    1.500   32.9437
    1.515   31.9326
    1.530   33.9547
    1.545   35.0711
    1.560   35.4292
    1.575   34.3339
    1.590   33.5756
    1.605   33.6282
    1.620   32.3433
    1.635   31.9115
    1.650   31.3112
    1.665   30.7952
    1.680   30.0263
    1.695   30.2791
    1.710   29.4260
    1.725   28.8573
    1.740   28.6045
    1.755   28.7520
    1.770   27.4671
    1.785   26.8668
    1.800   26.9405
    1.815   25.8452
    1.830   26.3928
    1.845   25.3607
    1.860   25.5082
    1.875   24.3707
    1.890   24.1917
    1.905   24.2865
    1.920   23.7072
    1.935   23.2122
    1.950   22.9700
    1.965   23.3281
    1.980   22.0537
    1.995   23.0121
    2.010   22.5276
    2.025   21.8536
    2.040   21.9273
    2.055   20.7583
    2.070   21.0848
    2.085   21.0005
    2.100   20.8320
    2.115   20.2844
    2.130   20.2738
    2.145   19.6735
    2.160   19.5682
    2.175   18.9995
    2.190   18.9468
    2.205   18.7046
    2.220   18.6309
    2.235   18.8731
    2.250   18.5887
    2.265   18.1253
    2.280   17.9884
    2.295   17.2933
    2.310   17.6830
    2.325   17.4513
    2.340   17.4092
    2.355   16.9142
    2.370   16.6298
    2.385   16.7667
    2.400   16.8826
    2.415   16.5666
    2.430   16.0716
    2.445   15.6925
    2.460   16.3139
    2.475   15.7767
    2.490   15.8294
    2.505   14.7973
    2.520   15.5240
    2.535   14.9763
    2.550   14.8710
    2.565   14.3971
    2.580   14.9026
    2.595   14.4602
    2.610   14.4813
    2.625   15.1343
    2.640   14.9552
    2.655   14.3023
    2.670   14.3339
    2.685   14.1443
    2.700   14.5234
    2.715   14.0811
    2.730   13.7125
    2.745   13.5124
    2.760   13.8705
    2.775   13.9442
    2.790   13.4387
    2.805   12.8910
    2.820   13.1438
    2.835   13.3228
    2.850   12.8805
    2.865   12.8067
    2.880   12.9858
    2.895   13.0384
    2.910   13.2491
    2.925   12.1643
    2.940   12.3223
    2.955   11.9747
    2.970   12.1327
    2.985   12.2380
    3.000   12.2486
    3.015   12.1327
    3.030   11.6377
    3.045   12.2486
    3.060   12.6277
    3.075   11.9747
    3.090   11.6482
    3.105   11.8589
    3.120   12.2486
    3.135   11.6904
    3.150   11.9537
    3.165   11.6482
    3.180   11.2691
    3.195   12.2380
    3.210   11.5956
    3.225   11.3323
    3.240   10.9742
    3.255   11.2691
    3.270   11.3007
    3.285   10.8689
    3.300   10.8899
    3.315   10.9321
    3.330   10.8373
    3.345   10.6477
    3.360   10.7214
    3.375   10.7214
    3.390   10.5635
    3.405   10.5213
    3.420   10.8899
    3.435   10.6266
    3.450   10.7320
    3.465   10.6056
    3.480   10.2686
    3.495   10.5951
    3.510   10.9847
    3.525   10.8583
    3.540   10.5951
    3.555   10.4897
    3.570   10.5951
    3.585   10.7530
    3.600   10.1211
    3.615   10.1632
    3.630   10.5003
    3.645   10.5529
    3.660    9.8894
    3.675    9.9526
    3.690   10.4160
    3.705   10.0474
    3.720    9.7525
    3.735   10.0474
    3.750    9.8894
    3.765   10.4581
    3.780   10.0790
    3.795    9.5419
    3.810    9.7841
    3.825   10.1106
    3.840   10.2791
    3.855    9.8157
    3.870    9.7630
    3.885    9.4787
    3.900    9.3628
    3.915    9.5313
    3.930    9.6577
    3.945    9.9105
    3.960    9.3102
    3.975    9.1206
    3.990    8.9942
    4.005    9.2364
    4.020    9.3523
    4.035    9.3734
    4.050    9.8052
    4.065    9.0785
    4.080    9.5735
    4.095    9.5945
    4.110    9.6577
    4.125    9.3944
    4.140    9.1101
    4.155    9.1732
    4.170    8.8994
    4.185    9.7420
    4.200    9.7630
    4.215    9.6998
    4.230    9.3207
    4.245    9.4681
    4.260    9.1522
    4.275    9.1627
    4.290    9.0047
    4.305    9.0995
    4.320    9.0153
    4.335    9.1943
    4.350    8.9310
    4.365    8.8362
    4.380    8.7098
    4.395    8.7204
    4.410    9.2575
    4.425    8.9837
    4.440    8.9731
    4.455    8.6361
    4.470    8.5624
    4.485    8.7204
    4.500    9.4365
    4.515    8.6677
    4.530    8.7941
    4.545    8.6888
    4.560    8.4887
    4.575    8.7309
    4.590    8.8257
    4.605    8.6151
    4.620    8.8152
    4.635    8.6783
    4.650    8.8046
    4.665    8.6467
    4.680    9.0363
    4.695    9.0258
    4.710    9.0258
    4.725    8.6045
    4.740    8.3623
    4.755    8.6677
    4.770    9.0574
    4.785    8.7836
    4.800    8.2780
    4.815    8.5413
    4.830    8.5940
    4.845    8.4992
    4.860    8.3623
    4.875    8.2780
    4.890    8.3412
    4.905    8.2254
    4.920    8.8468
    4.935    8.1622
    4.950    8.1938
    4.965    8.3307
    4.980    8.5624
    4.995    8.4255
    5.010    8.1201
    5.025    8.5413
    5.040    8.3202
    5.055    8.2359
    5.070    8.5624
    5.085    8.5413
    5.100    8.2043
    5.115    8.2464
    5.130    8.1411
    5.145    8.1517
    5.160    8.1095
    5.175    8.0990
    5.190    8.1095
    5.205    8.2254
    5.220    8.3939
    5.235    8.2149
    5.250    8.2254
    5.265    8.3412
    5.280    8.0990
    5.295    8.3202
    5.310    7.9200
    5.325    8.2149
    5.340    8.1833
    5.355    7.8989
    5.370    7.8041
    5.385    7.8146
    5.400    7.6567
    5.415    7.9410
    5.430    8.4781
    5.445    8.3728
    5.460    8.0358
    5.475    8.4887
    5.490    8.1306
    5.505    8.0147
    5.520    8.3834
    5.535    7.9937
    5.550    8.0253
    5.565    8.1517
    5.580    8.0463
    5.595    8.2359
    5.610    8.3202
    5.625    7.8778
    5.640    7.8778
    5.655    7.8989
    5.670    8.1938
    5.685    8.1306
    5.700    8.3412
    5.715    8.2043
    5.730    8.3834
    5.745    8.5413
    5.760    8.0990
    5.775    8.3939
    5.790    8.0253
    5.805    7.7409
    5.820    7.9726
    5.835    7.8146
    5.850    8.5097
    5.865    8.1517
    5.880    7.9937
    5.895    7.8252
    5.910    8.6993
    5.925    8.3728
    5.940    7.5935
    5.955    8.0463
    5.970    8.1095
    5.985    7.9621
    6.000    7.9094
    6.015    8.0042
    6.030    8.2359
    6.045    7.8041
    6.060    7.9094
    6.075    7.9937
    6.090    8.2043
    6.105    8.1727
    6.120    7.6672
    6.135    8.2149
    6.150    8.0569
    6.165    7.8568
    6.180    8.1095
    6.195    8.0147
    6.210    7.6567
    6.225    7.8357
    6.240    7.7514
    6.255    7.9094
    6.270    7.8673
    6.285    8.0463
    6.300    7.8884
    6.315    7.7514
    6.330    8.0779
    6.345    8.2254
    6.360    8.0779
    6.375    8.2359
    6.390    7.8146
    6.405    7.6883
    6.420    7.6883
    6.435    7.4355
    6.450    7.7620
    6.465    7.8989
    6.480    8.0779
    6.495    8.1306
    6.510    7.8146
    6.525    7.6988
    6.540    7.7199
    6.555    7.9200
    6.570    7.9621
    6.585    7.7304
    6.600    8.2991
    6.615    8.2359
    6.630    7.8252
    6.645    7.7725
    6.660    8.0147
    6.675    7.7409
    6.690    7.8884
    6.705    8.0042
    6.720    7.8568
    6.735    7.9621
    6.750    8.2043
    6.765    8.0463
    6.780    7.8778
    6.795    7.7199
    6.810    7.9937
    6.825    7.7725
    6.840    8.2043
    6.855    8.4044
    6.870    8.2675
    6.885    8.2359
    6.900    8.0779
    6.915    7.8673
    6.930    7.5935
    6.945    8.1727
    6.960    8.3096
    6.975    7.8146
    6.990    7.8884
    7.005    7.9200
    7.020    7.9200
    7.035    8.2149
    7.050    8.5308
    7.065    8.2780
    7.080    8.0253
    7.095    8.0885
    7.110    8.0990
    7.125    7.8252
    7.140    7.9305
    7.155    7.8989
    7.170    7.7514
    7.185    7.7199
    7.200    7.9094
    7.215    8.0042
    7.230    7.8146
    7.245    8.0042
    7.260    7.9937
    7.275    8.2570
    7.290    7.9410
    7.305    8.3728
    7.320    8.0463
    7.335    8.2043
    7.350    8.0463
    7.365    8.1938
    7.380    8.0463
    7.395    8.4571
    7.410    8.2254
    7.425    8.1517
    7.440    8.1938
    7.455    7.9516
    7.470    7.7514
    7.485    7.7199
    7.500    8.0147
    7.515    7.9094
    7.530    7.6988
    7.545    7.8357
    7.560    8.1201
    7.575    8.0253
    7.590    7.6883
    7.605    7.5619
    7.620    7.4460
    7.635    7.6988
    7.650    7.6461
    7.665    7.9200
    7.680    8.3202
    7.695    7.8778
    7.710    8.1622
    7.725    8.1306
    7.740    7.6040
    7.755    8.1833
    7.770    7.8041
    7.785    7.8568
    7.800    7.9726
    7.815    8.2780
    7.830    8.2149
    7.845    8.0463
    7.860    8.3202
    7.875    8.1938
    7.890    8.0147
    7.905    7.8252
    7.920    8.1622
    7.935    7.9516
    7.950    8.1517
    7.965    8.2675
    7.980    7.9726
    7.995    7.7199
    8.010    7.7093
    8.025    7.9516
    8.040    7.9200
    8.055    7.6672
    8.070    7.6145
    8.085    7.7199
    8.100    8.0990
    8.115    7.9937
    8.130    8.0463
    8.145    7.6777
    8.160    7.8884
    8.175    8.0779
    8.190    8.0569
    8.205    8.0463
    8.220    8.3307
    8.235    8.1622
    8.250    8.2780
    8.265    7.9094
    8.280    8.2149
    8.295    8.0253
    8.310    8.1411
    8.325    7.8462
    8.340    8.0147
    8.355    8.3518
    8.370    8.8678
    8.385    8.4044
    8.400    8.0779
    8.415    8.3728
    8.430    8.4781
    8.445    8.4676
    8.460    8.5097
    8.475    8.2359
    8.490    8.3307
    8.505    7.9410
    8.520    8.5940
    8.535    8.1622
    8.550    8.5203
    8.565    7.8462
    8.580    8.1727
    8.595    7.8568
    8.610    8.3096
    8.625    7.9937
    8.640    8.4781
    8.655    8.5519
    8.670    8.0990
    8.685    8.4255
    8.700    8.8784
    8.715    8.2991
    8.730    8.4044
    8.745    8.2780
    8.760    8.2043
    8.775    8.2886
    8.790    8.1938
    8.805    8.0253
    8.820    8.6888
    8.835    7.7830
    8.850    8.4044
    8.865    8.5097
    8.880    8.6151
    8.895    8.2991
    8.910    8.3518
    8.925    8.5097
    8.940    8.2780
    8.955    8.5308
    8.970    8.2570
    8.985    8.1201
    9.000    8.4044
    9.015    8.6888
    9.030    8.7204
    9.045    8.7520
    9.060    8.6993
    9.075    8.6677
    9.090    8.4255
    9.105    8.0885
    9.120    8.6783
    9.135    8.4150
    9.150    8.4044
    9.165    7.8884
    9.180    8.4044
    9.195    8.3728
    9.210    8.4255
    9.225    8.8152
    9.240    8.5413
    9.255    8.0042
    9.270    8.4992
    9.285    8.3202
    9.300    8.1833
    9.315    8.4676
    9.330    8.6572
    9.345    8.1306
    9.360    8.2570
    9.375    8.6151
    9.390    8.4044
    9.405    8.6361
    9.420    8.3518
    9.435    8.2254
    9.450    8.3096
    9.465    8.2043
    9.480    7.9200
    9.495    8.2780
    9.510    8.4676
    9.525    8.4044
    9.540    8.2043
    9.555    8.0779
    9.570    8.5940
    9.585    8.5308
    9.600    8.6256
    9.615    8.2149
    9.630    8.7309
    9.645    8.0358
    9.660    8.2780
    9.675    8.4360
    9.690    8.5413
    9.705    8.1201
    9.720    8.1938
    9.735    8.5940
    9.750    8.3307
    9.765    8.5203
    9.780    8.3728
    9.795    8.0463
    9.810    8.1938
    9.825    7.8673
    9.840    8.3518
    9.855    8.0779
    9.870    8.1938
    9.885    8.5097
    9.900    8.5413
    9.915    8.0569
    9.930    8.0885
    9.945    8.1938
    9.960    8.5413
    9.975    8.2043
    9.990    8.6151
   10.005    8.2149
   10.020    8.5413
   10.035    8.8994
   10.050    8.3307
   10.065    8.0358
   10.080    8.2359
   10.095    8.2149
   10.110    8.0779
   10.125    8.2149
   10.140    8.3518
   10.155    8.2991
   10.170    7.9200
   10.185    8.3728
   10.200    8.4044
   10.215    8.4255
   10.230    8.4992
   10.245    8.4044
   10.260    8.4466
   10.275    8.3096
   10.290    8.4887
   10.305    8.7625
   10.320    8.1833
   10.335    8.3728
   10.350    8.4150
   10.365    8.0147
   10.380    8.0253
   10.395    7.6883
   10.410    7.9831
   10.425    7.9831
   10.440    8.4571
   10.455    8.8678
   10.470    8.2359
   10.485    8.1727
   10.500    8.1517
   10.515    7.8568
   10.530    7.9305
   10.545    8.4255
   10.560    7.8989
   10.575    7.8462
   10.590    8.7836
   10.605    8.4466
   10.620    8.0885
   10.635    8.3202
   10.650    7.7199
   10.665    8.1411
   10.680    8.3939
   10.695    8.6361
   10.710    8.1095
   10.725    8.0463
   10.740    8.2149
   10.755    8.2149
   10.770    7.7830
   10.785    7.6988
   10.800    7.9094
   10.815    8.1306
   10.830    8.1727
   10.845    8.2043
   10.860    8.1306
   10.875    8.0253
   10.890    8.2043
   10.905    8.3412
   10.920    8.4781
   10.935    8.3623
   10.950    8.1727
   10.965    7.6883
   10.980    8.2570
   10.995    8.0147
   11.010    7.8989
   11.025    7.8884
   11.040    8.0674
   11.055    8.1727
   11.070    8.3939
   11.085    8.2359
   11.100    7.8989
   11.115    7.5197
   11.130    7.5724
   11.145    8.0463
   11.160    8.0253
   11.175    7.9516
   11.190    7.9410
   11.205    7.4250
   11.220    7.4987
   11.235    8.2886
   11.250    7.8673
   11.265    8.0463
   11.280    7.7514
   11.295    8.0253
   11.310    8.1727
   11.325    8.1938
   11.340    8.0253
   11.355    7.6040
   11.370    8.4150
   11.385    7.7830
   11.400    8.5308
   11.415    8.1727
   11.430    8.0042
   11.445    8.0885
   11.460    7.8462
   11.475    7.7725
   11.490    7.6461
   11.505    8.1201
   11.520    7.8252
   11.535    7.9831
   11.550    8.3623
   11.565    7.8041
   11.580    8.0042
   11.595    7.9200
   11.610    7.8357
   11.625    7.8884
   11.640    7.7725
   11.655    7.6145
   11.670    7.8568
   11.685    7.9937
   11.700    8.1306
   11.715    7.9305
   11.730    7.8146
   11.745    8.0569
   11.760    7.5724
   11.775    7.8989
   11.790    7.4987
   11.805    7.5408
   11.820    8.0569
   11.835    7.6988
   11.850    7.5408
   11.865    7.8778
   11.880    7.4144
   11.895    7.4355
   11.910    7.2986
   11.925    7.5724
   11.940    7.5513
   11.955    7.6567
   11.970    7.9200
   11.985    7.7620
   12.000    7.5935
   12.015    7.6777
   12.030    7.7093
   12.045    7.5829
   12.060    7.7830
   12.075    7.4250
   12.090    7.4144
   12.105    7.4566
   12.120    7.9937
   12.135    7.7409
   12.150    7.5092
   12.165    7.4144
   12.180    7.4776
   12.195    7.4039
   12.210    7.4144
   12.225    7.4250
   12.240    7.5197
   12.255    7.3723
   12.270    7.0985
   12.285    7.4460
   12.300    7.2249
   12.315    7.5619
   12.330    7.3618
   12.345    7.4566
   12.360    7.7093
   12.375    7.8462
   12.390    7.3407
   12.405    7.3934
   12.420    7.5829
   12.435    7.4250
   12.450    7.4460
   12.465    7.9200
   12.480    7.7620
   12.495    7.7199
   12.510    7.7093
   12.525    7.5092
   12.540    7.5408
   12.555    7.2775
   12.570    7.4671
   12.585    7.5829
   12.600    7.5724
   12.615    7.3618
   12.630    7.4144
   12.645    7.2775
   12.660    7.1722
   12.675    7.3934
   12.690    7.3091
   12.705    7.0879
   12.720    7.3723
   12.735    7.5724
   12.750    7.3091
   12.765    6.8984
   12.780    7.6040
   12.795    7.4250
   12.810    7.3512
   12.825    7.4566
   12.840    7.2670
   12.855    7.5935
   12.870    7.6356
   12.885    7.2354
   12.900    7.6040
   12.915    7.3618
   12.930    7.3828
   12.945    7.5092
   12.960    7.5619
   12.975    7.3512
   12.990    6.8562
   13.005    7.0669
   13.020    7.6251
   13.035    7.1617
   13.050    7.1511
   13.065    7.1195
   13.080    7.2249
   13.095    7.1195
   13.110    7.1406
   13.125    7.2880
   13.140    7.0563
   13.155    7.4039
   13.170    7.3618
   13.185    7.8673
   13.200    7.7620
   13.215    7.0879
   13.230    7.2565
   13.245    7.1406
   13.260    7.2880
   13.275    7.2354
   13.290    7.2986
   13.305    6.9510
   13.320    7.4250
   13.335    7.4144
   13.350    7.4460
   13.365    7.4355
   13.380    7.4671
   13.395    6.6877
   13.410    7.4355
   13.425    7.4460
   13.440    7.6883
   13.455    7.7409
   13.470    7.3934
   13.485    7.2038
   13.500    6.9826
   13.515    7.3091
   13.530    7.5408
   13.545    6.9721
   13.560    7.0669
   13.575    7.2565
   13.590    7.0353
   13.605    7.4039
   13.620    7.2986
   13.635    7.5197
   13.650    7.1511
   13.665    7.2459
   13.680    7.3828
   13.695    6.8562
   13.710    7.1617
   13.725    7.2880
   13.740    7.2249
   13.755    7.3618
   13.770    7.2565
   13.785    7.6777
   13.800    7.2038
   13.815    7.5092
   13.830    6.9721
   13.845    6.7193
   13.860    6.9300
   13.875    7.1406
   13.890    6.8878
   13.905    6.7404
   13.920    6.9826
   13.935    7.2565
   13.950    7.3196
   13.965    7.4355
   13.980    7.3407
   13.995    7.0563
   14.010    6.7299
   14.025    6.6667
   14.040    6.5719
   14.055    6.7404
   14.070    6.8878
   14.085    7.1511
   14.100    7.0458
   14.115    7.4671
   14.130    7.4566
   14.145    7.0774
   14.160    7.0248
   14.175    7.0669
   14.190    7.3302
   14.205    7.3407
   14.220    7.5092
   14.235    7.2565
   14.250    6.8878
   14.265    7.0563
   14.280    7.0248
   14.295    7.3407
   14.310    7.2775
   14.325    7.2986
   14.340    7.5619
   14.355    7.2249
   14.370    7.4039
   14.385    6.8878
   14.400    7.0037
   14.415    7.3091
   14.430    6.8984
   14.445    6.9194
   14.460    7.1301
   14.475    6.6877
   14.490    7.1406
   14.505    7.6988
   14.520    7.1511
   14.535    7.3407
   14.550    7.1301
   14.565    7.1827
   14.580    7.2249
   14.595    7.3618
   14.610    7.0879
   14.625    7.1195
   14.640    7.4882
   14.655    7.5724
   14.670    7.5408
   14.685    7.4566
   14.700    7.6567
   14.715    7.2986
   14.730    7.2986
   14.745    7.1406
   14.760    6.9300
   14.775    7.1195
   14.790    7.2880
   14.805    7.0563
   14.820    6.9616
   14.835    7.0985
   14.850    7.1406
   14.865    7.0774
   14.880    6.9932
   14.895    6.9510
   14.910    7.0985
   14.925    7.3091
   14.940    7.2880
   14.955    7.2354
   14.970    7.4987
   14.985    7.3407
   15.000    7.0248
   15.015    7.1722
   15.030    7.0669
   15.045    7.2459
   15.060    7.2459
   15.075    7.6567
   15.090    6.6983
   15.105    7.1090
   15.120    7.3828
   15.135    7.1933
   15.150    7.2459
   15.165    7.1195
   15.180    6.9932
   15.195    7.1617
   15.210    6.9405
   15.225    7.1617
   15.240    7.3091
   15.255    7.0985
   15.270    6.9510
   15.285    6.6877
   15.300    6.8878
   15.315    7.1406
   15.330    7.2354
   15.345    7.3618
   15.360    7.5619
   15.375    7.4776
   15.390    6.8878
   15.405    6.6877
   15.420    7.1617
   15.435    7.3512
   15.450    7.1090
   15.465    7.2986
   15.480    7.2670
   15.495    7.4987
   15.510    7.3091
   15.525    6.8773
   15.540    7.1617
   15.555    7.2880
   15.570    6.9721
   15.585    6.8668
   15.600    7.0037
   15.615    7.3407
   15.630    7.3196
   15.645    7.0037
   15.660    6.8878
   15.675    7.0353
   15.690    7.1301
   15.705    7.4987
   15.720    7.1090
   15.735    7.1511
   15.750    6.7825
   15.765    6.6140
   15.780    7.3196
   15.795    7.1933
   15.810    6.8562
   15.825    7.0353
   15.840    7.3618
   15.855    7.1406
   15.870    7.1301
   15.885    7.2775
   15.900    6.9616
   15.915    7.3091
   15.930    7.5408
   15.945    7.3828
   15.960    7.6988
   15.975    7.3723
   15.990    7.1617
   16.005    7.1406
   16.020    7.0985
   16.035    6.7615
   16.050    7.0458
   16.065    6.6772
   16.080    7.0142
   16.095    7.3302
   16.110    7.4355
   16.125    7.5092
   16.140    7.4039
   16.155    6.9932
   16.170    7.3828
   16.185    7.3618
   16.200    6.9405
   16.215    7.3302
   16.230    6.8246
   16.245    6.9089
   16.260    7.3618
   16.275    7.2143
   16.290    7.1933
   16.305    7.4250
   16.320    7.4250
   16.335    6.8878
   16.350    7.4039
   16.365    6.7825
   16.380    7.1722
   16.395    7.1406
   16.410    6.9932
   16.425    6.7615
   16.440    7.2249
   16.455    7.3828
   16.470    7.2670
   16.485    7.0669
   16.500    7.6461
   16.515    7.5829
   16.530    7.0037
   16.545    7.1933
   16.560    7.5619
   16.575    7.1511
   16.590    7.3302
   16.605    7.2038
   16.620    7.1090
   16.635    7.2354
   16.650    6.9616
   16.665    7.0353
   16.680    7.3618
   16.695    6.8562
   16.710    7.2143
   16.725    7.2986
   16.740    7.0879
   16.755    7.0774
   16.770    7.4882
   16.785    7.0142
   16.800    6.9826
   16.815    7.6672
   16.830    7.2565
   16.845    7.1195
   16.860    7.0458
   16.875    7.3302
   16.890    7.3512
   16.905    7.0563
   16.920    6.9616
   16.935    7.2354
   16.950    7.1617
   16.965    6.8457
   16.980    7.3091
   16.995    7.8252
   17.010    7.1301
   17.025    6.7825
   17.040    7.2249
   17.055    7.4987
   17.070    7.1933
   17.085    7.4355
   17.100    7.5092
   17.115    7.2038
   17.130    7.5408
   17.145    7.0458
   17.160    7.2038
   17.175    7.1722
   17.190    7.4039
   17.205    7.2986
   17.220    7.3618
   17.235    7.7409
   17.250    7.5197
   17.265    7.4460
   17.280    7.7409
   17.295    7.3934
   17.310    7.1090
   17.325    7.5303
   17.340    7.1511
   17.355    7.1511
   17.370    7.2249
   17.385    7.4566
   17.400    7.1722
   17.415    7.4776
   17.430    7.5092
   17.445    7.0774
   17.460    7.2775
   17.475    7.2775
   17.490    7.3828
   17.505    7.2880
   17.520    7.1195
   17.535    6.9826
   17.550    6.7825
   17.565    7.4144
   17.580    7.4460
   17.595    7.5935
   17.610    7.0248
   17.625    7.0669
   17.640    7.2459
   17.655    6.9721
   17.670    6.9510
   17.685    7.2565
   17.700    7.5303
   17.715    7.2670
   17.730    7.2459
   17.745    7.0879
   17.760    6.9721
   17.775    7.4566
   17.790    7.4671
   17.805    7.8673
   17.820    7.5197
   17.835    7.3407
   17.850    7.5513
   17.865    7.5092
   17.880    7.3196
   17.895    7.4039
   17.910    7.6040
   17.925    7.8884
   17.940    8.0042
   17.955    7.2459
   17.970    7.5197
   17.985    7.6356
   18.000    7.8252
   18.015    7.7620
   18.030    7.3618
   18.045    7.0037
   18.060    7.4144
   18.075    7.3723
   18.090    7.4039
   18.105    7.6988
   18.120    7.6567
   18.135    7.5197
   18.150    7.2670
   18.165    7.1090
   18.180    6.9721
   18.195    7.1617
   18.210    7.2249
   18.225    7.4671
   18.240    7.3091
   18.255    7.4882
   18.270    7.5197
   18.285    7.7093
   18.300    7.2354
   18.315    7.4250
   18.330    7.5829
   18.345    7.1933
   18.360    7.5408
   18.375    7.5303
   18.390    7.2986
   18.405    7.4671
   18.420    7.3828
   18.435    7.1511
   18.450    7.3091
   18.465    6.9510
   18.480    7.0037
   18.495    6.9300
   18.510    7.5197
   18.525    7.9094
   18.540    7.1617
   18.555    7.3828
   18.570    7.9516
   18.585    7.5829
   18.600    7.6672
   18.615    7.5092
   18.630    7.5513
   18.645    7.7304
   18.660    7.3407
   18.675    6.9510
   18.690    7.3618
   18.705    7.5408
   18.720    7.9516
   18.735    8.0253
   18.750    7.8778
   18.765    7.8041
   18.780    7.8146
   18.795    7.6040
   18.810    7.6040
   18.825    7.1827
   18.840    7.1617
   18.855    7.8146
   18.870    7.6672
   18.885    7.6251
   18.900    7.5197
   18.915    7.8568
   18.930    7.5619
   18.945    7.3723
   18.960    7.4987
   18.975    7.2459
   18.990    7.5303
   19.005    7.3828
   19.020    7.4039
   19.035    7.4250
   19.050    7.6777
   19.065    7.5619
   19.080    7.3302
   19.095    7.5197
   19.110    7.6251
   19.125    7.7620
   19.140    7.2986
   19.155    7.4144
   19.170    7.3723
   19.185    7.5619
   19.200    7.1827
   19.215    7.0879
   19.230    7.3512
   19.245    7.5724
   19.260    7.1722
   19.275    7.0353
   19.290    7.5829
   19.305    7.3828
   19.320    7.3302
   19.335    7.5619
   19.350    7.9305
   19.365    7.6356
   19.380    7.5829
   19.395    7.2143
   19.410    7.5408
   19.425    7.4566
   19.440    7.6672
   19.455    7.2459
   19.470    7.2354
   19.485    7.2249
   19.500    7.2249
   19.515    7.5619
   19.530    7.5935
   19.545    7.5197
   19.560    7.4355
   19.575    7.6461
   19.590    7.5513
   19.605    7.6251
   19.620    7.5197
   19.635    7.2880
   19.650    7.6356
   19.665    7.5513
   19.680    7.7936
   19.695    7.3828
   19.710    7.0879
   19.725    7.4144
   19.740    7.3302
   19.755    7.0248
   19.770    7.1827
   19.785    7.5935
   19.800    7.7620
   19.815    7.4987
   19.830    7.6145
   19.845    7.0458
   19.860    7.6040
   19.875    7.8146
   19.890    7.6145
   19.905    7.6251
   19.920    7.2565
   19.935    7.0563
   19.950    7.3302
   19.965    7.3512
   19.980    7.2775
   19.995    7.4355
   20.010    7.5513
   20.025    7.5303
   20.040    7.2459
   20.055    7.5408
   20.070    7.9305
   20.085    8.1095
   20.100    7.8146
   20.115    7.6672
   20.130    7.4882
   20.145    7.8146
   20.160    7.7514
   20.175    7.6145
   20.190    7.0985
   20.205    7.3618
   20.220    7.4566
   20.235    7.5513
   20.250    7.7199
   20.265    7.8146
   20.280    7.7725
   20.295    7.7199
   20.310    7.4566
   20.325    7.6988
   20.340    7.4144
   20.355    6.9616
   20.370    7.4250
   20.385    7.7199
   20.400    7.5408
   20.415    7.5724
   20.430    7.4882
   20.445    7.6883
   20.460    7.7725
   20.475    7.5935
   20.490    7.6040
   20.505    7.2354
   20.520    7.1827
   20.535    7.4460
   20.550    7.7725
   20.565    7.3196
   20.580    7.9621
   20.595    7.7304
   20.610    7.4566
   20.625    7.5513
   20.640    7.5303
   20.655    7.8989
   20.670    7.5513
   20.685    7.4987
   20.700    7.6988
   20.715    7.5513
   20.730    7.4355
   20.745    7.6567
   20.760    7.9726
   20.775    7.8884
   20.790    7.7409
   20.805    7.8252
   20.820    7.2775
   20.835    7.5092
   20.850    7.8252
   20.865    8.3623
   20.880    7.8462
   20.895    7.6461
   20.910    7.4566
   20.925    7.6145
   20.940    7.6461
   20.955    7.8041
   20.970    8.0779
   20.985    7.8252
   21.000    7.6988
   21.015    7.6145
   21.030    7.4987
   21.045    7.5619
   21.060    7.6567
   21.075    7.4776
   21.090    8.0147
   21.105    7.2880
   21.120    7.4039
   21.135    7.4355
   21.150    7.4355
   21.165    7.2880
   21.180    7.2986
   21.195    7.7304
   21.210    7.3302
   21.225    7.3828
   21.240    7.6988
   21.255    7.5092
   21.270    7.4566
   21.285    7.6883
   21.300    7.7304
   21.315    7.4460
   21.330    7.6040
   21.345    7.7409
   21.360    7.6040
   21.375    7.6988
   21.390    7.4566
   21.405    7.4039
   21.420    7.5092
   21.435    7.2038
   21.450    7.3934
   21.465    7.7409
   21.480    7.6040
   21.495    7.7830
   21.510    7.5829
   21.525    7.9200
   21.540    7.9305
   21.555    7.6883
   21.570    7.5935
   21.585    7.9516
   21.600    7.6988
   21.615    7.7199
   21.630    7.7830
   21.645    7.4671
   21.660    7.6567
   21.675    7.3934
   21.690    7.2143
   21.705    7.5724
   21.720    7.6356
   21.735    7.5724
   21.750    7.2249
   21.765    7.7514
   21.780    7.8778
   21.795    8.0358
   21.810    7.7725
   21.825    8.0253
   21.840    7.4566
   21.855    7.9621
   21.870    7.8041
   21.885    7.8357
   21.900    8.1727
   21.915    8.0674
   21.930    7.6777
   21.945    7.8884
   21.960    7.4355
   21.975    7.6988
   21.990    7.8673
   22.005    7.5092
   22.020    7.4882
   22.035    7.5724
   22.050    7.5092
   22.065    7.4355
   22.080    7.4144
   22.095    7.8462
   22.110    7.9410
   22.125    8.0042
   22.140    7.9621
   22.155    7.3618
   22.170    7.7620
   22.185    7.7620
   22.200    7.5092
   22.215    7.9305
   22.230    7.6567
   22.245    7.9200
   22.260    7.9516
   22.275    7.7725
   22.290    7.5513
   22.305    7.6988
   22.320    8.0147
   22.335    7.7093
   22.350    7.4460
   22.365    7.5829
   22.380    7.5513
   22.395    7.4566
   22.410    7.8989
   22.425    6.9826
   22.440    7.2565
   22.455    7.6988
   22.470    8.2043
   22.485    8.0358
   22.500    7.8989
   22.515    7.5935
   22.530    7.5303
   22.545    7.8673
   22.560    7.5619
   22.575    7.8673
   22.590    7.6777
   22.605    7.8357
   22.620    7.3723
   22.635    7.5829
   22.650    7.7620
   22.665    7.7514
   22.680    7.2775
   22.695    7.7725
   22.710    8.0885
   22.725    8.1833
   22.740    7.9937
   22.755    7.7725
   22.770    7.3618
   22.785    7.4882
   22.800    7.8884
   22.815    7.9831
   22.830    8.0674
   22.845    7.6988
   22.860    7.3302
   22.875    7.6672
   22.890    7.6040
   22.905    7.5724
   22.920    7.3934
   22.935    7.6988
   22.950    7.9621
   22.965    7.3723
   22.980    7.7409
   22.995    7.6777
   23.010    7.5829
   23.025    7.6251
   23.040    7.4250
   23.055    7.7409
   23.070    7.7199
   23.085    7.7725
   23.100    8.0147
   23.115    7.2354
   23.130    7.6883
   23.145    7.5829
   23.160    7.8884
   23.175    7.6672
   23.190    7.4987
   23.205    7.3407
   23.220    7.6883
   23.235    7.6567
   23.250    7.9621
   23.265    7.6988
   23.280    7.6251
   23.295    7.7199
   23.310    7.6567
   23.325    7.8568
   23.340    7.8568
   23.355    7.8884
   23.370    7.9200
   23.385    7.6145
   23.400    7.7093
   23.415    7.3512
   23.430    7.4987
   23.445    7.7830
   23.460    7.8568
   23.475    7.7620
   23.490    7.4776
   23.505    7.8252
   23.520    7.6567
   23.535    7.3407
   23.550    7.7514
   23.565    7.7093
   23.580    7.9410
   23.595    7.7725
   23.610    7.3618
   23.625    7.5408
   23.640    7.4355
   23.655    7.1617
   23.670    7.9200
   23.685    7.6145
   23.700    7.8146
   23.715    7.8146
   23.730    7.8041
   23.745    7.6883
   23.760    7.4144
   23.775    7.4039
   23.790    7.7093
   23.805    7.5829
   23.820    7.8568
   23.835    7.7304
   23.850    8.0253
   23.865    7.6777
   23.880    7.2986
   23.895    7.4355
   23.910    7.5935
   23.925    7.2038
   23.940    7.5303
   23.955    7.2565
   23.970    7.1827
   23.985    7.1406
   24.000    8.1095
   24.015    7.9094
   24.030    7.5197
   24.045    7.2986
   24.060    7.0879
   24.075    7.6988
   24.090    7.8989
   24.105    7.6461
   24.120    7.5829
   24.135    7.2249
   24.150    7.3302
   24.165    7.3407
   24.180    7.9831
   24.195    7.6356
   24.210    7.3196
   24.225    6.8352
   24.240    7.6461
   24.255    7.0879
   24.270    7.3723
   24.285    7.5829
   24.300    7.5513
   24.315    7.6145
   24.330    7.0037
   24.345    7.5513
   24.360    7.3723
   24.375    7.8462
   24.390    7.5829
   24.405    7.5829
   24.420    7.3302
   24.435    7.2459
   24.450    7.5092
   24.465    7.4566
   24.480    7.5303
   24.495    7.4460
   24.510    7.2670
   24.525    7.1090
   24.540    7.4144
   24.555    7.4039
   24.570    7.1195
   24.585    6.9194
   24.600    7.3407
   24.615    7.6040
   24.630    7.2038
   24.645    7.3091
   24.660    7.1301
   24.675    6.8036
   24.690    7.0248
   24.705    7.3512
   24.720    7.2986
   24.735    7.3196
   24.750    7.5724
   24.765    7.5197
   24.780    7.3512
   24.795    7.2986
   24.810    7.5197
   24.825    7.2459
   24.840    7.6988
   24.855    7.6251
   24.870    7.5408
   24.885    7.4039
   24.900    7.5408
   24.915    7.3934
   24.930    7.0669
   24.945    7.1195
   24.960    7.2565
   24.975    7.2354
   24.990    7.3618
   25.005    7.2565
   25.020    7.3618
   25.035    7.5829
   25.050    6.8984
   25.065    7.3828
   25.080    7.4250
   25.095    7.3934
   25.110    7.3302
   25.125    6.9932
   25.140    7.2986
   25.155    7.3934
   25.170    7.0879
   25.185    7.3512
   25.200    7.1195
   25.215    7.1617
   25.230    7.3723
   25.245    7.0142
   25.260    7.0774
   25.275    7.6567
   25.290    7.2670
   25.305    7.5303
   25.320    7.1933
   25.335    7.6145
   25.350    7.3723
   25.365    7.0879
   25.380    7.4987
   25.395    7.2880
   25.410    7.1511
   25.425    6.9510
   25.440    7.1617
   25.455    7.1511
   25.470    7.1933
   25.485    7.2565
   25.500    7.1617
   25.515    7.2459
   25.530    7.8041
   25.545    7.5619
   25.560    6.8246
   25.575    7.0353
   25.590    7.4566
   25.605    7.3512
   25.620    7.1090
   25.635    7.0774
   25.650    7.2143
   25.665    7.4671
   25.680    7.0353
   25.695    7.1617
   25.710    7.4882
   25.725    7.0037
   25.740    7.0985
   25.755    7.6777
   25.770    7.3512
   25.785    7.1195
   25.800    7.1722
   25.815    7.0774
   25.830    6.9616
   25.845    7.4039
   25.860    7.2249
   25.875    7.2880
   25.890    7.0563
   25.905    7.0037
   25.920    7.1617
   25.935    7.2038
   25.950    7.1406
   25.965    7.4039
   25.980    7.1090
   25.995    6.7825
   26.010    7.0142
   26.025    7.0985
   26.040    7.0563
   26.055    7.3512
   26.070    7.2249
   26.085    7.4144
   26.100    7.1511
   26.115    7.1827
   26.130    6.9826
   26.145    7.0037
   26.160    7.1301
   26.175    6.9932
   26.190    7.0353
   26.205    7.3196
   26.220    7.1195
   26.235    6.8562
   26.250    7.2038
   26.265    6.9300
   26.280    7.0563
   26.295    7.0248
   26.310    6.9932
   26.325    7.3723
   26.340    7.0563
   26.355    6.8457
   26.370    7.1827
   26.385    6.9510
   26.400    6.8562
   26.415    7.1301
   26.430    7.1090
   26.445    6.9616
   26.460    7.1933
   26.475    7.0774
   26.490    7.1617
   26.505    6.9405
   26.520    6.9089
   26.535    6.9721
   26.550    7.2249
   26.565    6.9721
   26.580    7.0142
   26.595    7.1933
   26.610    7.2459
   26.625    7.3302
   26.640    6.8036
   26.655    6.9300
   26.670    6.5929
   26.685    6.9405
   26.700    7.0563
   26.715    7.0879
   26.730    6.9194
   26.745    6.7930
   26.760    6.9089
   26.775    6.8352
   26.790    6.6456
   26.805    7.0248
   26.820    7.0563
   26.835    6.8562
   26.850    7.1933
   26.865    6.9721
   26.880    7.1195
   26.895    7.1406
   26.910    7.0669
   26.925    7.3091
   26.940    7.2880
   26.955    6.8457
   26.970    6.7930
   26.985    6.9510
   27.000    6.6351
   27.015    6.8352
   27.030    6.8352
   27.045    7.0774
   27.060    6.8668
   27.075    6.8562
   27.090    6.8352
   27.105    6.6877
   27.120    6.5824
   27.135    6.4771
   27.150    7.1090
   27.165    6.7825
   27.180    6.7720
   27.195    7.1301
   27.210    7.0353
   27.225    6.9089
   27.240    6.9405
   27.255    6.7404
   27.270    6.6772
   27.285    6.6351
   27.300    7.0353
   27.315    7.0353
   27.330    6.9826
   27.345    7.0248
   27.360    6.7825
   27.375    6.7615
   27.390    6.6245
   27.405    7.0458
   27.420    7.0458
   27.435    6.7404
   27.450    6.9194
   27.465    6.9721
   27.480    7.0669
   27.495    7.0037
   27.510    7.0669
   27.525    6.4982
   27.540    6.5508
   27.555    6.5508
   27.570    6.6456
   27.585    6.9089
   27.600    6.8036
   27.615    6.7930
   27.630    6.4771
   27.645    6.7720
   27.660    6.7720
   27.675    6.6035
   27.690    6.3296
   27.705    6.9826
   27.720    6.6456
   27.735    6.9089
   27.750    7.2670
   27.765    6.9405
   27.780    6.6035
   27.795    6.4982
   27.810    6.5508
   27.825    6.6351
   27.840    6.7615
   27.855    6.8036
   27.870    6.2665
   27.885    6.9194
   27.900    6.2243
   27.915    6.8352
   27.930    6.8246
   27.945    6.5929
   27.960    6.4034
   27.975    6.8878
   27.990    6.6772
   28.005    6.6456
   28.020    6.8141
   28.035    6.8246
   28.050    6.7404
   28.065    6.6035
   28.080    6.5192
   28.095    6.7193
   28.110    6.8984
   28.125    6.6561
   28.140    6.7193
   28.155    6.5298
   28.170    6.5508
   28.185    6.8141
   28.200    6.3612
   28.215    6.8878
   28.230    6.6140
   28.245    6.7509
   28.260    6.6877
   28.275    6.7193
   28.290    6.6772
   28.305    6.6667
   28.320    6.8352
   28.335    6.5613
   28.350    6.8141
   28.365    6.6140
   28.380    6.6245
   28.395    6.7720
   28.410    7.0037
   28.425    6.8141
   28.440    6.6456
   28.455    6.9089
   28.470    6.7825
   28.485    6.3718
   28.500    6.5824
   28.515    6.8878
   28.530    6.7088
   28.545    6.5929
   28.560    6.7193
   28.575    6.5403
   28.590    6.5824
   28.605    6.1085
   28.620    6.4139
   28.635    6.7509
   28.650    6.4350
   28.665    6.3191
   28.680    6.8668
   28.695    6.4034
   28.710    6.6667
   28.725    6.5403
   28.740    6.8773
   28.755    6.8562
   28.770    6.8878
   28.785    6.1822
   28.800    6.5613
   28.815    6.5508
   28.830    6.5298
   28.845    6.3086
   28.860    6.4876
   28.875    6.4982
   28.890    6.7825
   28.905    6.5192
   28.920    6.3507
   28.935    6.8984
   28.950    6.6351
   28.965    6.8036
   28.980    6.9721
   28.995    6.7299
   29.010    6.6772
   29.025    6.2349
   29.040    6.0137
   29.055    6.1295
   29.070    6.4771
   29.085    6.6456
   29.100    6.7825
   29.115    6.6351
   29.130    6.6561
   29.145    6.7509
   29.160    6.2033
   29.175    6.2138
   29.190    6.5613
   29.205    6.3086
   29.220    6.4350
   29.235    6.8352
   29.250    6.1506
   29.265    6.4350
   29.280    6.5824
   29.295    6.5403
   29.310    6.3718
   29.325    5.9294
   29.340    6.4560
   29.355    6.4139
   29.370    6.1822
   29.385    6.2981
   29.400    6.2981
   29.415    6.3296
   29.430    6.6983
   29.445    6.4139
   29.460    6.4666
   29.475    5.9505
   29.490    6.4666
   29.505    6.6035
   29.520    6.4982
   29.535    6.2033
   29.550    6.6351
   29.565    6.2033
   29.580    6.3928
   29.595    6.5298
   29.610    6.1611
   29.625    6.3718
   29.640    6.7404
   29.655    6.6245
   29.670    6.6035
   29.685    6.5192
   29.700    6.1506
   29.715    6.5192
   29.730    6.0874
   29.745    6.5192
   29.760    6.7825
   29.775    6.8352
   29.790    6.3928
   29.805    6.2243
   29.820    6.6140
   29.835    6.3296
   29.850    5.9400
   29.865    6.6983
   29.880    6.4982
   29.895    6.2665
   29.910    6.8457
   29.925    6.6561
   29.940    6.0769
   29.955    5.9821
   29.970    6.1927
   29.985    6.0242
   30.000    5.9821
   30.015    6.2243
   30.030    6.4666
   30.045    6.4350
   30.060    6.4244
   30.075    6.4560
   30.090    6.4139
   30.105    6.6667
   30.120    6.9089
   30.135    6.6667
   30.150    6.5192
   30.165    6.0979
   30.180    6.5508
   30.195    6.5719
   30.210    6.3402
   30.225    6.4244
   30.240    6.3402
   30.255    6.2243
   30.270    6.2665
   30.285    6.3086
   30.300    6.6983
   30.315    6.5087
   30.330    6.5929
   30.345    6.3718
   30.360    6.2033
   30.375    6.0242
   30.390    6.2665
   30.405    6.0453
   30.420    6.0664
   30.435    5.9610
   30.450    5.8978
   30.465    6.2875
   30.480    6.2033
   30.495    6.1927
   30.510    6.1927
   30.525    6.4560
   30.540    6.7299
   30.555    6.3402
   30.570    6.2875
   30.585    6.5508
   30.600    6.2875
   30.615    6.1401
   30.630    6.6035
   30.645    6.3928
   30.660    6.0137
   30.675    6.1295
   30.690    6.1717
   30.705    5.9610
   30.720    6.1717
   30.735    5.9610
   30.750    6.1822
   30.765    6.3191
   30.780    6.3507
   30.795    6.2454
   30.810    6.0137
   30.825    6.2033
   30.840    6.0874
   30.855    6.0769
   30.870    6.5087
   30.885    6.3296
   30.900    5.9926
   30.915    5.9400
   30.930    6.2349
   30.945    6.2243
   30.960    6.2033
   30.975    6.3296
   30.990    6.2033
   31.005    6.2243
   31.020    6.2665
   31.035    6.4244
   31.050    6.2349
   31.065    6.0664
   31.080    6.1085
   31.095    6.2665
   31.110    6.1717
   31.125    6.3086
   31.140    5.6872
   31.155    6.1717
   31.170    5.6661
   31.185    5.6767
   31.200    5.9926
   31.215    6.0032
   31.230    6.0979
   31.245    6.0769
   31.260    5.9189
   31.275    5.9189
   31.290    5.8241
   31.305    6.4876
   31.320    6.0242
   31.335    6.0979
   31.350    6.2033
   31.365    6.0769
   31.380    5.9294
   31.395    6.2349
   31.410    6.1611
   31.425    5.9716
   31.440    6.0874
   31.455    6.2138
   31.470    6.0558
   31.485    5.8136
   31.500    5.9610
   31.515    6.0769
   31.530    6.0664
   31.545    6.4350
   31.560    6.1927
   31.575    6.0348
   31.590    5.9821
   31.605    5.7399
   31.620    5.9400
   31.635    5.9926
   31.650    6.2243
   31.665    6.3928
   31.680    6.1717
   31.695    6.3296
   31.710    6.1506
   31.725    5.9189
   31.740    6.0769
   31.755    5.9400
   31.770    5.8662
   31.785    6.1611
   31.800    6.1927
   31.815    6.1085
   31.830    5.9505
   31.845    5.8452
   31.860    5.5398
   31.875    5.7083
   31.890    6.2665
   31.905    6.0137
   31.920    5.7609
   31.935    5.7715
   31.950    5.8136
   31.965    6.0874
   31.980    5.6661
   31.995    5.9505
   32.010    5.9821
   32.025    5.5924
   32.040    6.1822
   32.055    5.9821
   32.070    5.8136
   32.085    5.9505
   32.100    6.3086
   32.115    6.2138
   32.130    5.8978
   32.145    6.0769
   32.160    6.1611
   32.175    5.9610
   32.190    5.6029
   32.205    5.5503
   32.220    5.9189
   32.235    5.9716
   32.250    6.1085
   32.265    5.6872
   32.280    5.8136
   32.295    5.9926
   32.310    6.0032
   32.325    5.8873
   32.340    5.6451
   32.355    5.9400
   32.370    5.9926
   32.385    5.7820
   32.400    5.6240
   32.415    5.7504
   32.430    5.6345
   32.445    5.6661
   32.460    5.7609
   32.475    5.6767
   32.490    5.9716
   32.505    5.8557
   32.520    5.5924
   32.535    5.8978
   32.550    6.2138
   32.565    5.9084
   32.580    5.8873
   32.595    5.6977
   32.610    5.6977
   32.625    5.7188
   32.640    5.8241
   32.655    5.6767
   32.670    5.5714
   32.685    5.8031
   32.700    5.9821
   32.715    6.3928
   32.730    5.9084
   32.745    5.8241
   32.760    5.8031
   32.775    5.6345
   32.790    5.6977
   32.805    5.6240
   32.820    5.5714
   32.835    5.6661
   32.850    6.0137
   32.865    6.0874
   32.880    5.9505
   32.895    6.1401
   32.910    6.1401
   32.925    5.6767
   32.940    5.9610
   32.955    5.6240
   32.970    5.8031
   32.985    6.1822
   33.000    6.2454
   33.015    5.9716
   33.030    5.6556
   33.045    5.7504
   33.060    5.5714
   33.075    6.0032
   33.090    5.9821
   33.105    5.7820
   33.120    5.6556
   33.135    6.0769
   33.150    5.6135
   33.165    5.8768
   33.180    5.8452
   33.195    5.7504
   33.210    5.9189
   33.225    5.6872
   33.240    5.7083
   33.255    6.0242
   33.270    5.8031
   33.285    5.9610
   33.300    5.7609
   33.315    5.5503
   33.330    5.6451
   33.345    5.8031
   33.360    5.6556
   33.375    5.6451
   33.390    6.1611
   33.405    6.1611
   33.420    6.0348
   33.435    5.8978
   33.450    5.6872
   33.465    5.7715
   33.480    5.4555
   33.495    5.8241
   33.510    6.0453
   33.525    5.6661
   33.540    5.5714
   33.555    5.5503
   33.570    5.6240
   33.585    5.6767
   33.600    5.6977
   33.615    6.0348
   33.630    5.6345
   33.645    5.4344
   33.660    5.5187
   33.675    5.3291
   33.690    5.7293
   33.705    5.6872
   33.720    5.6872
   33.735    5.8241
   33.750    5.3291
   33.765    5.2659
   33.780    5.7504
   33.795    5.6977
   33.810    5.7504
   33.825    5.6556
   33.840    5.9716
   33.855    6.0032
   33.870    6.0769
   33.885    6.0242
   33.900    5.8452
   33.915    5.8873
   33.930    5.5924
   33.945    5.5082
   33.960    5.5292
   33.975    5.9294
   33.990    5.9610
   34.005    5.6240
   34.020    5.4450
   34.035    5.3818
   34.050    5.3818
   34.065    5.5608
   34.080    5.3818
   34.095    5.7820
   34.110    5.6451
   34.125    5.3923
   34.140    5.3712
   34.155    5.8031
   34.170    5.6872
   34.185    5.5187
   34.200    5.5082
   34.215    5.7083
   34.230    5.5187
   34.245    5.1185
   34.260    5.4555
   34.275    5.5714
   34.290    5.4028
   34.305    5.4766
   34.320    5.7609
   34.335    5.3712
   34.350    5.3923
   34.365    5.6345
   34.380    5.5082
   34.395    5.5398
   34.410    5.3291
   34.425    5.1395
   34.440    5.5082
   34.455    5.9294
   34.470    5.8978
   34.485    5.6345
   34.500    5.6345
   34.515    5.7293
   34.530    5.5292
   34.545    5.2238
   34.560    5.5714
   34.575    5.3502
   34.590    5.2870
   34.605    5.2659
   34.620    5.5292
   34.635    5.5187
   34.650    5.3291
   34.665    5.3923
   34.680    5.4766
   34.695    5.3186
   34.710    5.2870
   34.725    5.1395
   34.740    5.2238
   34.755    5.2870
   34.770    5.2765
   34.785    5.4660
   34.800    5.6345
   34.815    5.5924
   34.830    5.7820
   34.845    5.6767
   34.860    5.4976
   34.875    5.3081
   34.890    5.4976
   34.905    5.7504
   34.920    5.1080
   34.935    5.5082
   34.950    5.5187
   34.965    5.1606
   34.980    5.5924
   34.995    5.6240
   35.010    5.4660
   35.025    5.5714
   35.040    5.3923
   35.055    5.4028
   35.070    5.4134
   35.085    5.1185
   35.100    5.3712
   35.115    5.4134
   35.130    5.0869
   35.145    5.0658
   35.160    5.2975
   35.175    5.2238
   35.190    5.4871
   35.205    5.2765
   35.220    5.4660
   35.235    5.5819
   35.250    5.4344
   35.265    5.2975
   35.280    5.0026
   35.295    5.4450
   35.310    5.4976
   35.325    5.3081
   35.340    5.7399
   35.355    5.7609
   35.370    5.8136
   35.385    5.7715
   35.400    5.2133
   35.415    5.1501
   35.430    5.1080
   35.445    5.5924
   35.460    5.5503
   35.475    5.4450
   35.490    5.5292
   35.505    5.3607
   35.520    5.2133
   35.535    5.0974
   35.550    5.2870
   35.565    5.4555
   35.580    5.4871
   35.595    5.2238
   35.610    5.3923
   35.625    5.6029
   35.640    5.6767
   35.655    5.3186
   35.670    5.2027
   35.685    5.1501
   35.700    5.4450
   35.715    5.4976
   35.730    5.2343
   35.745    5.2238
   35.760    5.3818
   35.775    5.6240
   35.790    5.5292
   35.805    5.3502
   35.820    5.1606
   35.835    5.1185
   35.850    5.1501
   35.865    5.1606
   35.880    5.2449
   35.895    5.2343
   35.910    5.0237
   35.925    5.4660
   35.940    5.3291
   35.955    5.4555
   35.970    4.9816
   35.985    5.0237
   36.000    5.0553
   36.015    5.3607
   36.030    5.4134
   36.045    5.2659
   36.060    5.2554
   36.075    5.3186
   36.090    5.2659
   36.105    5.1922
   36.120    5.3502
   36.135    5.5187
   36.150    5.3818
   36.165    5.5819
   36.180    5.2449
   36.195    4.9921
   36.210    5.2133
   36.225    5.2133
   36.240    5.0869
   36.255    5.2343
   36.270    5.0132
   36.285    5.3081
   36.300    4.9289
   36.315    5.2449
   36.330    5.5819
   36.345    5.3186
   36.360    5.2975
   36.375    5.2027
   36.390    4.9921
   36.405    5.3607
   36.420    5.1501
   36.435    5.0869
   36.450    4.9710
   36.465    5.1501
   36.480    5.2449
   36.495    5.3712
   36.510    5.2343
   36.525    5.2343
   36.540    5.5819
   36.555    5.1711
   36.570    5.2975
   36.585    5.7083
   36.600    5.3397
   36.615    5.2133
   36.630    5.3607
   36.645    5.4766
   36.660    5.4450
   36.675    4.8868
   36.690    5.0658
   36.705    5.0869
   36.720    5.0132
   36.735    5.3818
   36.750    5.1817
   36.765    5.3502
   36.780    5.2343
   36.795    5.0764
   36.810    4.9605
   36.825    5.0342
   36.840    5.0869
   36.855    5.0026
   36.870    5.3607
   36.885    5.3081
   36.900    5.2554
   36.915    5.1922
   36.930    5.4028
   36.945    5.3712
   36.960    5.3607
   36.975    5.4134
   36.990    5.4239
   37.005    5.0764
   37.020    4.9184
   37.035    5.1395
   37.050    5.0026
   37.065    4.7815
   37.080    5.1290
   37.095    5.4344
   37.110    5.1395
   37.125    5.0553
   37.140    5.1817
   37.155    5.0026
   37.170    5.0553
   37.185    5.2449
   37.200    5.0553
   37.215    5.2343
   37.230    5.2343
   37.245    5.2449
   37.260    5.1501
   37.275    5.2133
   37.290    5.2765
   37.305    5.4976
   37.320    5.4028
   37.335    5.2870
   37.350    5.3397
   37.365    5.2449
   37.380    5.1922
   37.395    4.8657
   37.410    5.1922
   37.425    5.4344
   37.440    5.2343
   37.455    5.1290
   37.470    5.3291
   37.485    5.0974
   37.500    5.2449
   37.515    5.1080
   37.530    5.4660
   37.545    5.1395
   37.560    5.1395
   37.575    5.3081
   37.590    5.2975
   37.605    4.7709
   37.620    5.0342
   37.635    5.1080
   37.650    5.2238
   37.665    5.6240
   37.680    4.9605
   37.695    4.9921
   37.710    5.3712
   37.725    5.2975
   37.740    5.0448
   37.755    5.2765
   37.770    4.9500
   37.785    5.3186
   37.800    5.2449
   37.815    4.8763
   37.830    5.1501
   37.845    5.2554
   37.860    5.2343
   37.875    5.2238
   37.890    5.0974
   37.905    4.9816
   37.920    5.0132
   37.935    4.9605
   37.950    5.0342
   37.965    5.3502
   37.980    5.5082
   37.995    4.8025
   38.010    5.0448
   38.025    4.9605
   38.040    5.2027
   38.055    5.1711
   38.070    5.2133
   38.085    5.3081
   38.100    5.4555
   38.115    4.9605
   38.130    4.6551
   38.145    4.8868
   38.160    5.3397
   38.175    5.3397
   38.190    5.0974
   38.205    5.0553
   38.220    4.8868
   38.235    5.1922
   38.250    4.8025
   38.265    4.8131
   38.280    5.2133
   38.295    4.8763
   38.310    5.0658
   38.325    5.0764
   38.340    5.2659
   38.355    5.0342
   38.370    5.0764
   38.385    5.2554
   38.400    5.2027
   38.415    5.0342
   38.430    5.3081
   38.445    5.0869
   38.460    5.0974
   38.475    5.0448
   38.490    5.0448
   38.505    4.8657
   38.520    4.9921
   38.535    5.0237
   38.550    5.0764
   38.565    5.1606
   38.580    5.2238
   38.595    5.1501
   38.610    4.7920
   38.625    4.7288
   38.640    4.9394
   38.655    5.1185
   38.670    5.0132
   38.685    4.7393
   38.700    5.0658
   38.715    5.0342
   38.730    5.0764
   38.745    5.1290
   38.760    5.0448
   38.775    5.4028
   38.790    5.5503
   38.805    5.0132
   38.820    5.0553
   38.835    4.7709
   38.850    4.9500
   38.865    5.1711
   38.880    5.1290
   38.895    5.0237
   38.910    4.8868
   38.925    4.7077
   38.940    5.3502
   38.955    4.9394
   38.970    4.6130
   38.985    4.8552
   39.000    5.0448
   39.015    5.0658
   39.030    5.0448
   39.045    5.2554
   39.060    5.0448
   39.075    4.9816
   39.090    5.1501
   39.105    4.9078
   39.120    5.0448
   39.135    5.0026
   39.150    5.3923
   39.165    5.3186
   39.180    5.4976
   39.195    4.7920
   39.210    4.9921
   39.225    5.1817
   39.240    4.8868
   39.255    5.1395
   39.270    5.3923
   39.285    5.3291
   39.300    4.8973
   39.315    5.1080
   39.330    5.0658
   39.345    5.5292
   39.360    5.2870
   39.375    4.8973
   39.390    5.1606
   39.405    5.6240
   39.420    4.9289
   39.435    4.9710
   39.450    4.9710
   39.465    5.1606
   39.480    4.9710
   39.495    5.2765
   39.510    5.1817
   39.525    4.9078
   39.540    5.0132
   39.555    5.1606
   39.570    4.9394
   39.585    5.0132
   39.600    5.0342
   39.615    4.8552
   39.630    5.1395
   39.645    5.1922
   39.660    5.3923
   39.675    5.3291
   39.690    5.1080
   39.705    5.1080
   39.720    5.2554
   39.735    5.2133
   39.750    4.9710
   39.765    4.6445
   39.780    4.8236
   39.795    4.7183
   39.810    4.8025
   39.825    5.1185
   39.840    5.1817
   39.855    5.0342
   39.870    5.2027
   39.885    5.1817
   39.900    5.0132
   39.915    4.8657
   39.930    5.2765
   39.945    5.1185
   39.960    5.1185
   39.975    5.1606
   39.990    5.0448
