    1.500    9.7314
    1.515    9.8157
    1.530    9.6472
    1.545    9.1943
    1.560    9.0679
    1.575    8.9837
    1.590    9.3944
    1.605    8.9626
    1.620    8.2043
    1.635    8.3202
    1.650    8.0885
    1.665    7.7725
    1.680    8.0147
    1.695    7.7936
    1.710    7.7514
    1.725    8.1411
    1.740    7.6356
    1.755    7.4882
    1.770    7.6777
    1.785    7.4776
    1.800    6.9826
    1.815    6.8668
    1.830    6.5403
    1.845    6.7299
    1.860    7.0142
    1.875    6.7615
    1.890    6.1717
    1.905    6.4034
    1.920    6.4876
    1.935    6.4876
    1.950    6.5087
    1.965    6.5403
    1.980    6.3402
    1.995    6.3507
    2.010    5.7820
    2.025    5.8873
    2.040    5.9716
    2.055    5.6872
    2.070    5.8557
    2.085    5.8768
    2.100    6.0453
    2.115    6.0453
    2.130    5.6029
    2.145    6.1611
    2.160    5.7609
    2.175    5.7715
    2.190    5.7083
    2.205    5.6977
    2.220    6.0032
    2.235    5.3818
    2.250    4.9921
    2.265    5.3502
    2.280    5.4344
    2.295    5.3397
    2.310    5.6240
    2.325    5.3818
    2.340    5.5714
    2.355    5.7188
    2.370    5.6345
    2.385    5.8768
    2.400    5.7083
    2.415    5.3712
    2.430    5.5608
    2.445    5.1395
    2.460    5.0342
    2.475    5.5292
    2.490    5.8136
    2.505    5.3291
    2.520    5.6556
    2.535    5.4766
    2.550    5.5503
    2.565    5.4028
    2.580    5.1922
    2.595    5.5924
    2.610    5.7609
    2.625    5.9716
    2.640    5.9716
    2.655    5.8031
    2.670    6.0769
    2.685    6.4560
    2.700    5.9716
    2.715    6.0242
    2.730    5.8662
    2.745    6.2138
    2.760    6.3928
    2.775    6.7193
    2.790    7.1301
    2.805    7.1511
    2.820    7.1090
    2.835    6.8668
    2.850    7.3934
    2.865    7.5408
    2.880    7.8884
    2.895    7.9937
    2.910    7.9937
    2.925    8.4781
    2.940    8.8468
    2.955    8.5624
    2.970    8.9837
    2.985    9.6472
    3.000   10.3002
    3.015   10.6161
    3.030   10.9426
    3.045   11.4797
    3.060   11.7641
    3.075   12.1538
    3.090   12.5329
    3.105   13.2596
    3.120   13.9968
    3.135   14.5972
    3.150   14.7551
    3.165   15.8083
    3.180   16.8510
    3.195   18.1359
    3.210   19.2628
    3.225   19.6209
    3.240   21.1480
    3.255   23.0542
    3.270   23.6124
    3.285   25.1817
    3.300   25.9084
    3.315   28.0042
    3.330   29.8894
    3.345   31.0585
    3.360   33.3965
    3.375   35.0816
    3.390   35.0816
    3.405   34.9552
    3.420   36.2717
    3.435   36.3349
    3.450   35.7873
    3.465   35.1343
    3.480   34.4076
    3.495   33.3860
    3.510   31.6904
    3.525   28.8257
    3.540   27.4039
    3.555   25.2554
    3.570   23.9705
    3.585   21.6008
    3.600   21.1374
    3.615   19.5366
    3.630   18.4729
    3.645   17.4618
    3.660   17.2512
    3.675   15.9663
    3.690   15.5661
    3.705   15.9663
    3.720   15.0922
    3.735   15.1237
    3.750   15.1553
    3.765   15.3344
    3.780   15.9347
    3.795   15.4397
    3.810   15.2291
    3.825   15.3976
    3.840   15.3660
    3.855   15.5240
    3.870   15.3555
    3.885   15.6187
    3.900   16.0400
    3.915   15.4502
    3.930   15.4186
    3.945   15.3344
    3.960   16.2191
    3.975   15.2291
    3.990   15.4397
    4.005   15.0184
    4.020   14.6919
    4.035   14.8920
    4.050   14.4286
    4.065   13.7441
    4.080   14.0284
    4.095   14.3339
    4.110   13.2807
    4.125   12.6698
    4.140   12.4171
    4.155   12.4592
    4.170   11.6904
    4.185   11.5113
    4.200   11.2796
    4.215   10.2896
    4.230   10.2159
    4.245   10.2370
    4.260    9.4260
    4.275    8.8889
    4.290    8.5413
    4.305    8.8257
    4.320    8.5413
    4.335    8.1095
    4.350    7.5303
    4.365    7.1722
    4.380    7.0353
    4.395    7.1617
    4.410    6.3718
    4.425    6.5508
    4.440    6.1927
    4.455    5.9821
    4.470    5.7188
    4.485    5.7083
    4.500    5.4134
    4.515    5.1922
    4.530    5.2975
    4.545    4.9184
    4.560    4.7183
    4.575    4.6972
    4.590    4.7288
    4.605    4.7499
    4.620    4.3391
    4.635    4.5919
    4.650    4.3075
    4.665    4.0021
    4.680    4.0969
    4.695    3.9284
    4.710    3.6756
    4.725    3.7809
    4.740    3.7493
    4.755    3.7599
    4.770    3.5914
    4.785    3.7388
    4.800    3.3597
    4.815    3.4966
    4.830    3.2754
    4.845    3.5598
    4.860    3.2438
    4.875    3.4439
    4.890    3.6862
    4.905    3.3702
    4.920    3.2017
    4.935    2.8752
    4.950    3.0858
    4.965    3.2859
    4.980    3.3913
    4.995    3.2438
    5.010    3.3597
    5.025    3.0437
    5.040    3.2333
    5.055    3.3702
    5.070    3.2333
    5.085    3.0016
    5.100    2.8541
    5.115    2.9805
    5.130    2.7067
    5.145    2.8225
    5.160    2.8120
    5.175    2.8120
    5.190    3.0753
    5.205    3.1490
    5.220    2.9279
    5.235    2.8120
    5.250    3.0332
    5.265    2.6224
    5.280    2.5592
    5.295    2.9384
    5.310    2.6646
    5.325    2.7383
    5.340    3.0858
    5.355    2.7067
    5.370    2.6330
    5.385    2.8541
    5.400    2.6119
    5.415    2.7278
    5.430    2.9068
    5.445    2.6856
    5.460    2.5066
    5.475    2.6856
    5.490    2.4750
    5.505    2.6224
    5.520    2.6330
    5.535    2.4118
    5.550    2.4223
    5.565    2.4750
    5.580    2.3802
    5.595    2.6119
    5.610    2.6330
    5.625    2.6224
    5.640    2.4645
    5.655    2.6119
    5.670    2.4118
    5.685    2.3802
    5.700    2.4645
    5.715    2.5171
    5.730    2.5803
    5.745    2.4645
    5.760    2.5908
    5.775    2.4539
    5.790    2.4750
    5.805    2.3802
    5.820    2.5698
    5.835    2.4329
    5.850    2.6330
    5.865    2.4645
    5.880    2.6330
    5.895    2.4750
    5.910    2.3065
    5.925    2.2328
    5.940    2.4329
    5.955    2.5066
    5.970    2.6224
    5.985    2.4329
    6.000    2.5276
    6.015    2.5276
    6.030    2.2538
    6.045    2.4961
    6.060    2.8120
    6.075    2.3486
    6.090    2.4855
    6.105    2.3381
    6.120    2.2012
    6.135    2.3275
    6.150    2.4118
    6.165    2.5066
    6.180    2.4329
    6.195    2.3907
    6.210    2.5382
    6.225    2.7172
    6.240    2.4855
    6.255    2.2854
    6.270    2.2854
    6.285    2.5592
    6.300    2.3802
    6.315    2.5066
    6.330    2.2749
    6.345    2.5592
    6.360    2.3907
    6.375    2.6856
    6.390    2.3591
    6.405    2.3802
    6.420    2.6435
    6.435    2.5803
    6.450    2.6962
    6.465    2.8225
    6.480    2.5382
    6.495    2.6014
    6.510    2.5066
    6.525    2.7909
    6.540    2.5171
    6.555    2.7488
    6.570    2.7488
    6.585    2.5066
    6.600    2.7067
    6.615    2.8647
    6.630    3.0437
    6.645    2.8436
    6.660    2.8541
    6.675    2.8541
    6.690    2.9595
    6.705    3.1385
    6.720    3.3491
    6.735    3.4650
    6.750    3.2017
    6.765    3.6019
    6.780    3.7388
    6.795    3.9073
    6.810    4.0864
    6.825    4.1390
    6.840    4.5708
    6.855    4.6972
    6.870    5.3397
    6.885    4.8236
    6.900    4.7815
    6.915    5.3186
    6.930    4.8973
    6.945    5.4239
    6.960    5.3502
    6.975    5.0553
    6.990    4.8236
    7.005    4.8763
    7.020    4.4234
    7.035    4.3497
    7.050    4.3075
    7.065    4.1074
    7.080    3.8020
    7.095    3.6756
    7.110    3.5808
    7.125    3.6335
    7.140    3.3386
    7.155    3.3175
    7.170    3.3070
    7.185    3.0964
    7.200    3.0437
    7.215    2.8857
    7.230    3.2017
    7.245    2.9805
    7.260    2.9068
    7.275    3.0121
    7.290    2.6646
    7.305    2.7067
    7.320    2.8436
    7.335    2.7909
    7.350    2.5698
    7.365    2.6751
    7.380    2.2433
    7.395    2.5066
    7.410    2.7278
    7.425    2.8015
    7.440    2.6751
    7.455    2.5066
    7.470    2.6224
    7.485    2.3907
    7.500    2.5803
    7.515    2.5171
    7.530    2.5803
    7.545    2.5487
    7.560    2.7172
    7.575    2.6224
    7.590    2.7067
    7.605    2.5382
    7.620    2.7593
    7.635    2.7909
    7.650    2.4645
    7.665    2.5803
    7.680    2.5908
    7.695    2.6962
    7.710    2.9279
    7.725    2.8963
    7.740    2.7067
    7.755    2.7593
    7.770    2.7593
    7.785    3.0121
    7.800    2.8436
    7.815    2.7593
    7.830    2.9173
    7.845    2.8752
    7.860    2.9805
    7.875    2.8647
    7.890    2.9910
    7.905    2.9173
    7.920    2.9068
    7.935    2.8857
    7.950    3.0437
    7.965    3.2859
    7.980    3.1490
    7.995    3.2122
    8.010    3.1490
    8.025    3.0858
    8.040    3.1806
    8.055    3.3070
    8.070    3.2649
    8.085    3.0858
    8.100    3.2227
    8.115    2.9595
    8.130    3.0121
    8.145    3.0332
    8.160    3.2227
    8.175    2.8541
    8.190    3.0332
    8.205    3.1280
    8.220    3.1912
    8.235    3.3070
    8.250    2.9279
    8.265    3.0648
    8.280    3.0753
    8.295    3.3913
    8.310    3.3807
    8.325    3.1490
    8.340    3.0121
    8.355    3.1701
    8.370    3.0016
    8.385    2.7804
    8.400    3.1280
    8.415    3.3070
    8.430    3.1069
    8.445    3.2543
    8.460    3.1596
    8.475    3.0121
    8.490    3.2859
    8.505    3.2333
    8.520    3.1174
    8.535    2.9068
    8.550    2.8647
    8.565    2.8120
    8.580    2.7699
    8.595    2.8015
    8.610    2.7383
    8.625    2.8647
    8.640    2.7804
    8.655    2.7172
    8.670    2.7488
    8.685    2.8436
    8.700    2.9173
    8.715    2.9595
    8.730    2.7488
    8.745    2.3591
    8.760    2.3486
    8.775    2.5066
    8.790    2.4750
    8.805    2.4750
    8.820    2.7909
    8.835    2.5592
    8.850    2.5908
    8.865    2.8015
    8.880    2.5592
    8.895    2.4434
    8.910    2.5171
    8.925    2.5698
    8.940    2.5382
    8.955    2.6435
    8.970    2.3275
    8.985    2.3802
    9.000    2.4118
    9.015    2.4645
    9.030    2.4013
    9.045    2.2538
    9.060    2.2854
    9.075    2.2222
    9.090    2.4961
    9.105    2.3275
    9.120    2.3486
    9.135    1.9379
    9.150    2.1380
    9.165    2.2538
    9.180    2.4539
    9.195    2.4223
    9.210    2.3697
    9.225    2.1169
    9.240    2.3170
    9.255    2.3907
    9.270    2.2222
    9.285    2.2117
    9.300    2.0011
    9.315    2.2012
    9.330    2.4539
    9.345    2.3170
    9.360    2.2538
    9.375    2.2854
    9.390    2.2433
    9.405    2.2433
    9.420    2.1696
    9.435    2.2328
    9.450    2.2117
    9.465    2.3381
    9.480    1.9589
    9.495    2.1590
    9.510    2.3065
    9.525    2.2538
    9.540    2.1801
    9.555    2.0116
    9.570    2.2854
    9.585    2.2538
    9.600    1.9695
    9.615    2.0432
    9.630    2.0221
    9.645    2.0221
    9.660    2.1485
    9.675    2.2328
    9.690    2.2959
    9.705    2.3170
    9.720    2.0326
    9.735    1.9800
    9.750    2.0432
    9.765    2.3065
    9.780    2.0642
    9.795    2.1906
    9.810    2.2328
    9.825    2.1064
    9.840    2.1380
    9.855    2.0011
    9.870    1.9589
    9.885    2.2222
    9.900    2.3591
    9.915    2.2854
    9.930    2.0748
    9.945    2.1064
    9.960    2.3170
    9.975    2.1064
    9.990    2.0958
   10.005    2.1696
   10.020    2.4013
   10.035    2.2222
   10.050    2.4118
   10.065    2.1906
   10.080    2.1169
   10.095    2.0537
   10.110    2.0958
   10.125    2.0853
   10.140    2.2222
   10.155    2.1380
   10.170    2.1380
   10.185    2.2222
   10.200    2.1696
   10.215    2.1380
   10.230    2.0748
   10.245    2.0748
   10.260    2.0748
   10.275    2.3697
   10.290    2.2643
   10.305    2.2117
   10.320    2.2117
   10.335    2.3381
   10.350    2.2959
   10.365    2.4961
   10.380    2.4855
   10.395    2.4118
   10.410    2.3486
   10.425    2.2433
   10.440    2.3591
   10.455    2.1696
   10.470    2.5592
   10.485    2.2222
   10.500    2.2117
   10.515    2.3170
   10.530    2.2012
   10.545    2.1380
   10.560    2.2222
   10.575    2.3697
   10.590    2.2433
   10.605    2.2643
   10.620    2.2538
   10.635    1.9695
   10.650    2.2328
   10.665    2.2749
   10.680    2.2012
   10.695    2.0642
   10.710    2.1801
   10.725    2.0642
   10.740    2.2222
   10.755    2.1906
   10.770    2.2012
   10.785    2.1590
   10.800    2.1169
   10.815    1.9695
   10.830    2.0853
   10.845    2.0958
   10.860    2.1274
   10.875    2.1485
   10.890    2.0958
   10.905    2.2117
   10.920    2.0326
   10.935    2.0116
   10.950    2.2854
   10.965    2.3275
   10.980    2.2012
   10.995    2.0537
   11.010    1.9063
   11.025    1.9905
   11.040    2.0116
   11.055    2.0221
   11.070    2.2222
   11.085    2.0748
   11.100    2.1064
   11.115    2.1590
   11.130    1.9168
   11.145    2.0116
   11.160    2.1801
   11.175    2.0326
   11.190    2.1485
   11.205    2.3591
   11.220    2.0432
   11.235    2.1169
   11.250    1.9168
   11.265    1.9695
   11.280    2.0853
   11.295    2.1906
   11.310    2.1274
   11.325    2.1906
   11.340    2.2222
   11.355    2.2854
   11.370    1.9589
   11.385    1.9063
   11.400    2.2959
   11.415    2.3065
   11.430    2.0642
   11.445    2.4223
   11.460    2.2012
   11.475    2.1485
   11.490    2.0642
   11.505    2.0853
   11.520    2.2643
   11.535    2.2328
   11.550    2.1274
   11.565    2.2117
   11.580    2.3486
   11.595    2.2012
   11.610    1.9379
   11.625    2.0853
   11.640    2.1906
   11.655    2.3170
   11.670    2.2643
   11.685    2.1380
   11.700    2.2222
   11.715    2.2854
   11.730    2.0958
   11.745    2.1169
   11.760    2.3591
   11.775    2.2749
   11.790    2.0853
   11.805    1.9168
   11.820    2.0642
   11.835    2.1906
   11.850    2.0853
   11.865    2.0326
   11.880    2.3591
   11.895    2.1380
   11.910    2.3065
   11.925    2.3065
   11.940    2.1801
   11.955    2.2433
   11.970    2.1906
   11.985    2.4223
   12.000    2.1064
   12.015    2.0116
   12.030    2.3065
   12.045    2.1801
   12.060    2.3381
   12.075    2.3381
   12.090    2.3907
   12.105    2.3697
   12.120    2.2538
   12.135    2.0958
   12.150    2.1590
   12.165    2.1380
   12.180    2.1064
   12.195    2.1801
   12.210    2.1274
   12.225    2.0432
   12.240    2.2117
   12.255    2.1064
   12.270    2.2117
   12.285    2.4539
   12.300    2.2222
   12.315    2.2012
   12.330    2.1590
   12.345    2.2222
   12.360    2.3802
   12.375    2.4118
   12.390    2.1274
   12.405    2.3802
   12.420    2.1801
   12.435    2.0537
   12.450    2.1274
   12.465    2.3802
   12.480    2.4434
   12.495    2.2433
   12.510    2.3802
   12.525    2.3697
   12.540    2.2854
   12.555    2.3065
   12.570    2.2433
   12.585    2.3275
   12.600    2.1485
   12.615    2.3275
   12.630    2.3591
   12.645    2.2959
   12.660    2.2328
   12.675    2.1801
   12.690    2.1274
   12.705    2.2117
   12.720    2.2222
   12.735    1.9800
   12.750    2.0642
   12.765    2.2012
   12.780    2.0537
   12.795    2.0958
   12.810    2.1064
   12.825    2.2328
   12.840    2.3275
   12.855    2.1590
   12.870    2.4118
   12.885    2.2012
   12.900    2.2959
   12.915    2.0853
   12.930    2.0853
   12.945    2.2328
   12.960    2.0958
   12.975    2.2538
   12.990    2.2012
   13.005    2.3802
   13.020    2.1906
   13.035    2.3170
   13.050    2.1064
   13.065    2.2854
   13.080    2.2328
   13.095    2.3697
   13.110    2.1485
   13.125    2.2433
   13.140    2.3697
   13.155    2.0221
   13.170    2.4013
   13.185    2.2749
   13.200    2.0642
   13.215    2.2854
   13.230    2.1696
   13.245    2.1906
   13.260    2.1064
   13.275    2.0432
   13.290    2.1801
   13.305    2.1696
   13.320    2.0326
   13.335    1.9905
   13.350    2.1380
   13.365    2.1274
   13.380    2.1380
   13.395    2.0853
   13.410    2.1485
   13.425    2.2012
   13.440    2.1380
   13.455    2.2012
   13.470    2.3381
   13.485    2.2538
   13.500    2.1274
   13.515    2.1590
   13.530    1.9905
   13.545    2.0432
   13.560    2.1485
   13.575    2.2959
   13.590    2.0432
   13.605    2.1380
   13.620    2.1906
   13.635    2.1485
   13.650    2.3065
   13.665    2.4013
   13.680    2.0958
   13.695    2.2117
   13.710    1.9589
   13.725    2.0642
   13.740    2.3170
   13.755    2.2433
   13.770    2.3381
   13.785    2.0537
   13.800    1.9905
   13.815    1.8431
   13.830    1.9695
   13.845    2.1590
   13.860    2.2433
   13.875    2.2643
   13.890    2.1380
   13.905    2.2222
   13.920    2.0326
   13.935    1.9905
   13.950    2.1380
   13.965    2.1906
   13.980    2.2328
   13.995    2.1696
   14.010    2.2854
   14.025    2.2012
   14.040    2.0748
   14.055    2.0116
   14.070    2.1906
   14.085    2.2328
   14.100    2.2012
   14.115    2.2854
   14.130    2.1064
   14.145    2.3065
   14.160    2.0537
   14.175    1.8852
   14.190    2.1801
   14.205    2.1169
   14.220    2.2433
   14.235    2.1801
   14.250    2.2012
   14.265    2.1801
   14.280    2.0537
   14.295    2.0642
   14.310    2.1801
   14.325    2.0537
   14.340    2.2328
   14.355    2.3065
   14.370    2.0326
   14.385    2.0748
   14.400    2.1169
   14.415    2.2012
   14.430    2.1064
   14.445    1.9589
   14.460    2.1380
   14.475    2.0537
   14.490    2.0537
   14.505    1.9905
   14.520    1.9589
   14.535    1.9905
   14.550    2.0537
   14.565    1.9589
   14.580    2.2854
   14.595    2.1906
   14.610    1.9800
   14.625    2.0326
   14.640    2.0853
   14.655    2.2012
   14.670    2.0432
   14.685    2.0221
   14.700    1.9168
   14.715    2.0853
   14.730    2.2012
   14.745    2.1169
   14.760    2.2012
   14.775    1.9484
   14.790    1.9800
   14.805    2.0116
   14.820    2.0853
   14.835    1.9484
   14.850    1.7799
   14.865    1.8325
   14.880    1.9905
   14.895    1.8536
   14.910    1.9589
   14.925    1.8852
   14.940    2.0221
   14.955    2.1906
   14.970    2.0221
   14.985    2.0326
   15.000    2.0853
   15.015    1.9168
   15.030    2.0326
   15.045    1.7694
   15.060    2.1064
   15.075    1.9800
   15.090    2.0853
   15.105    2.0642
   15.120    2.1590
   15.135    1.9695
   15.150    2.0853
   15.165    2.0011
   15.180    2.0326
   15.195    2.0748
   15.210    2.1274
   15.225    2.0432
   15.240    1.9905
   15.255    1.8957
   15.270    1.8852
   15.285    1.9695
   15.300    1.9273
   15.315    2.0537
   15.330    2.0221
   15.345    2.0642
   15.360    2.0011
   15.375    2.2854
   15.390    2.0221
   15.405    2.0537
   15.420    2.0116
   15.435    2.0537
   15.450    1.9589
   15.465    1.8431
   15.480    1.9800
   15.495    1.9800
   15.510    2.0116
   15.525    2.1485
   15.540    2.1274
   15.555    2.0116
   15.570    1.9589
   15.585    1.9168
   15.600    2.0853
   15.615    2.1590
   15.630    2.0853
   15.645    2.1169
   15.660    2.0432
   15.675    2.0853
   15.690    2.0221
   15.705    2.1274
   15.720    2.0642
   15.735    2.0537
   15.750    2.2749
   15.765    2.1590
   15.780    2.1064
   15.795    1.8852
   15.810    1.7904
   15.825    1.9589
   15.840    2.1801
   15.855    2.0537
   15.870    2.1274
   15.885    2.0748
   15.900    1.9905
   15.915    1.9695
   15.930    1.9484
   15.945    1.8536
   15.960    1.9800
   15.975    1.9273
   15.990    1.9168
   16.005    2.1274
   16.020    1.9168
   16.035    1.9905
   16.050    2.1801
   16.065    2.2433
   16.080    2.2433
   16.095    2.2012
   16.110    1.9168
   16.125    1.8852
   16.140    1.7904
   16.155    1.9695
   16.170    1.9379
   16.185    1.9168
   16.200    2.0537
   16.215    1.9589
   16.230    2.0011
   16.245    2.0958
   16.260    2.0011
   16.275    1.9905
   16.290    2.0642
   16.305    2.0642
   16.320    2.1169
   16.335    1.9273
   16.350    1.9484
   16.365    2.0221
   16.380    2.0432
   16.395    1.8641
   16.410    1.8852
   16.425    2.1801
   16.440    2.0011
   16.455    1.8431
   16.470    1.8536
   16.485    2.0853
   16.500    2.0432
   16.515    2.2012
   16.530    2.0537
   16.545    1.9800
   16.560    2.1064
   16.575    2.0748
   16.590    2.0537
   16.605    2.2749
   16.620    2.2012
   16.635    2.1169
   16.650    2.1169
   16.665    2.0326
   16.680    1.9063
   16.695    1.9695
   16.710    1.9905
   16.725    1.9273
   16.740    2.0221
   16.755    2.1485
   16.770    1.8957
   16.785    1.9379
   16.800    1.8431
   16.815    2.0326
   16.830    1.9484
   16.845    1.9379
   16.860    2.2854
   16.875    2.0116
   16.890    1.7904
   16.905    1.9273
   16.920    2.0432
   16.935    1.9273
   16.950    1.9905
   16.965    1.9484
   16.980    2.0432
   16.995    1.8852
   17.010    2.0748
   17.025    2.0221
   17.040    2.1169
   17.055    2.0326
   17.070    2.0221
   17.085    1.9379
   17.100    1.9379
   17.115    1.8852
   17.130    2.0011
   17.145    1.7483
   17.160    1.9905
   17.175    2.0642
   17.190    1.9905
   17.205    2.0432
   17.220    2.1590
   17.235    2.0958
   17.250    2.2538
   17.265    2.0958
   17.280    2.1801
   17.295    2.0958
   17.310    2.3170
   17.325    2.2222
   17.340    1.9589
   17.355    2.0748
   17.370    2.1274
   17.385    2.2433
   17.400    2.0853
   17.415    2.0537
   17.430    2.0116
   17.445    2.0537
   17.460    2.2328
   17.475    2.1064
   17.490    2.1485
   17.505    2.1485
   17.520    2.2222
   17.535    2.0537
   17.550    1.9695
   17.565    2.1590
   17.580    2.2222
   17.595    2.0537
   17.610    2.1590
   17.625    2.1169
   17.640    1.9589
   17.655    1.7904
   17.670    1.7378
   17.685    2.1274
   17.700    1.9273
   17.715    2.1064
   17.730    2.0642
   17.745    1.8220
   17.760    2.0432
   17.775    2.0853
   17.790    2.0748
   17.805    2.1801
   17.820    1.9589
   17.835    1.8115
   17.850    1.9905
   17.865    2.1274
   17.880    2.2328
   17.895    2.0853
   17.910    2.0326
   17.925    1.9800
   17.940    2.0748
   17.955    2.0642
   17.970    2.1696
   17.985    2.2222
   18.000    2.2328
   18.015    2.1485
   18.030    1.8641
   18.045    2.2749
   18.060    2.1064
   18.075    2.2222
   18.090    2.1801
   18.105    2.1485
   18.120    1.9168
   18.135    2.1274
   18.150    2.1064
   18.165    1.9905
   18.180    2.1274
   18.195    1.9695
   18.210    2.1169
   18.225    2.1064
   18.240    2.2643
   18.255    2.1380
   18.270    1.9063
   18.285    2.0432
   18.300    2.2117
   18.315    2.2117
   18.330    2.3697
   18.345    2.0537
   18.360    2.0958
   18.375    1.9905
   18.390    1.9695
   18.405    1.8431
   18.420    2.0853
   18.435    2.3275
   18.450    2.2538
   18.465    2.1801
   18.480    2.2433
   18.495    2.1064
   18.510    1.9800
   18.525    2.1274
   18.540    2.0642
   18.555    1.9589
   18.570    2.0116
   18.585    1.9589
   18.600    2.0642
   18.615    2.2538
   18.630    2.1696
   18.645    1.9695
   18.660    2.0958
   18.675    1.9063
   18.690    2.0958
   18.705    1.8220
   18.720    2.0642
   18.735    2.2643
   18.750    2.2328
   18.765    1.9695
   18.780    2.0748
   18.795    2.2643
   18.810    2.0011
   18.825    1.9273
   18.840    1.7904
   18.855    1.9695
   18.870    1.8641
   18.885    2.1696
   18.900    1.9484
   18.915    1.9695
   18.930    1.9800
   18.945    2.2222
   18.960    1.9063
   18.975    2.1801
   18.990    2.1064
   19.005    2.0958
   19.020    2.0958
   19.035    1.9905
   19.050    2.2012
   19.065    2.0221
   19.080    1.9379
   19.095    2.0748
   19.110    2.3065
   19.125    2.0326
   19.140    2.1696
   19.155    2.1590
   19.170    1.9695
   19.185    2.2222
   19.200    2.1590
   19.215    2.1274
   19.230    2.1590
   19.245    2.0748
   19.260    2.2959
   19.275    1.9484
   19.290    2.1064
   19.305    2.0748
   19.320    2.0116
   19.335    2.1485
   19.350    2.2012
   19.365    2.1380
   19.380    1.9695
   19.395    2.0432
   19.410    2.0326
   19.425    2.2749
   19.440    2.2222
   19.455    1.9800
   19.470    1.9905
   19.485    2.2012
   19.500    2.0958
   19.515    1.9905
   19.530    2.1696
   19.545    2.1380
   19.560    2.1485
   19.575    2.1169
   19.590    2.3697
   19.605    2.2433
   19.620    2.0221
   19.635    2.1274
   19.650    2.1169
   19.665    2.1906
   19.680    2.0326
   19.695    2.3170
   19.710    2.2222
   19.725    2.2538
   19.740    2.3907
   19.755    2.3065
   19.770    2.1590
   19.785    2.2959
   19.800    2.4118
   19.815    2.2643
   19.830    2.2538
   19.845    2.4118
   19.860    2.1485
   19.875    2.1169
   19.890    2.2328
   19.905    2.3907
   19.920    2.1696
   19.935    2.1696
   19.950    2.1380
   19.965    2.4013
   19.980    2.1380
   19.995    2.3486
   20.010    2.2222
   20.025    2.1801
   20.040    2.1169
   20.055    2.2643
   20.070    2.3381
   20.085    2.1590
   20.100    2.0748
   20.115    2.5382
   20.130    2.2012
   20.145    2.1064
   20.160    2.3591
   20.175    2.1380
   20.190    2.2749
   20.205    2.2749
   20.220    2.3802
   20.235    2.1801
   20.250    2.3907
   20.265    2.3591
   20.280    2.1696
   20.295    2.1274
   20.310    2.4750
   20.325    2.2538
   20.340    2.2328
   20.355    2.2117
   20.370    2.2012
   20.385    1.9695
   20.400    2.3275
   20.415    2.4645
   20.430    2.3486
   20.445    2.0537
   20.460    2.2012
   20.475    2.1590
   20.490    2.3065
   20.505    2.1590
   20.520    2.1485
   20.535    2.2959
   20.550    2.3486
   20.565    2.1485
   20.580    2.1801
   20.595    2.1274
   20.610    2.3697
   20.625    2.2854
   20.640    2.2959
   20.655    2.1590
   20.670    2.0537
   20.685    2.3065
   20.700    2.2222
   20.715    2.2117
   20.730    2.2328
   20.745    1.9695
   20.760    2.1380
   20.775    2.4750
   20.790    2.3907
   20.805    2.2117
   20.820    2.2854
   20.835    2.0642
   20.850    2.3065
   20.865    2.3907
   20.880    2.1906
   20.895    2.1064
   20.910    2.1485
   20.925    2.1169
   20.940    2.3275
   20.955    2.5803
   20.970    2.2117
   20.985    1.9905
   21.000    2.2749
   21.015    2.4223
   21.030    2.2643
   21.045    2.2854
   21.060    2.2117
   21.075    2.4118
   21.090    2.1064
   21.105    2.1380
   21.120    2.1380
   21.135    2.3486
   21.150    2.4118
   21.165    2.2959
   21.180    2.2749
   21.195    2.2222
   21.210    2.2854
   21.225    2.2433
   21.240    2.4013
   21.255    2.2012
   21.270    2.3275
   21.285    2.3591
   21.300    2.2854
   21.315    2.3591
   21.330    2.5698
   21.345    2.3591
   21.360    2.2749
   21.375    2.2117
   21.390    2.0011
   21.405    2.0432
   21.420    2.1169
   21.435    2.2433
   21.450    2.3381
   21.465    2.1485
   21.480    2.0642
   21.495    2.2117
   21.510    2.2959
   21.525    2.1485
   21.540    2.2643
   21.555    2.1169
   21.570    2.1274
   21.585    2.2749
   21.600    2.2959
   21.615    2.3275
   21.630    2.2433
   21.645    2.2222
   21.660    2.3591
   21.675    2.3065
   21.690    2.1274
   21.705    2.2328
   21.720    2.3381
   21.735    2.2854
   21.750    2.2222
   21.765    2.3381
   21.780    2.2433
   21.795    2.3802
   21.810    2.4434
   21.825    2.2117
   21.840    2.2854
   21.855    2.1801
   21.870    2.2328
   21.885    2.3065
   21.900    2.3907
   21.915    2.3907
   21.930    2.4329
   21.945    2.2643
   21.960    2.0853
   21.975    2.2117
   21.990    2.2433
   22.005    2.2012
   22.020    2.5276
   22.035    2.2959
   22.050    2.1801
   22.065    2.0642
   22.080    2.1696
   22.095    2.1906
   22.110    2.1696
   22.125    2.0537
   22.140    2.2538
   22.155    2.1590
   22.170    2.1696
   22.185    2.3486
   22.200    2.2854
   22.215    2.4855
   22.230    2.3907
   22.245    2.3591
   22.260    2.4013
   22.275    2.2854
   22.290    2.4645
   22.305    2.2749
   22.320    2.2117
   22.335    2.3381
   22.350    2.0642
   22.365    2.1590
   22.380    2.4539
   22.395    2.1064
   22.410    2.2433
   22.425    2.1801
   22.440    2.3065
   22.455    2.1906
   22.470    2.2012
   22.485    2.0853
   22.500    2.2117
   22.515    2.1485
   22.530    2.2538
   22.545    2.3486
   22.560    2.4013
   22.575    2.4223
   22.590    2.2222
   22.605    2.3802
   22.620    2.2854
   22.635    2.3065
   22.650    2.2012
   22.665    2.3065
   22.680    1.9905
   22.695    2.1485
   22.710    2.3065
   22.725    2.2538
   22.740    2.2959
   22.755    2.4118
   22.770    2.2433
   22.785    2.0432
   22.800    2.4013
   22.815    2.6540
   22.830    2.2538
   22.845    2.1274
   22.860    2.2433
   22.875    2.2117
   22.890    2.4223
   22.905    2.1696
   22.920    2.3486
   22.935    2.0748
   22.950    2.0748
   22.965    2.0853
   22.980    2.0537
   22.995    2.1169
   23.010    2.0853
   23.025    2.1380
   23.040    2.1274
   23.055    2.2222
   23.070    2.0853
   23.085    2.0432
   23.100    2.0748
   23.115    2.3065
   23.130    2.3065
   23.145    2.2222
   23.160    2.1801
   23.175    2.3802
   23.190    2.2012
   23.205    1.9800
   23.220    2.1274
   23.235    2.1380
   23.250    2.1169
   23.265    2.2433
   23.280    2.1064
   23.295    2.2749
   23.310    2.3381
   23.325    2.1274
   23.340    2.1169
   23.355    2.1169
   23.370    2.0326
   23.385    2.0011
   23.400    2.2012
   23.415    2.2643
   23.430    2.0853
   23.445    2.3275
   23.460    2.0642
   23.475    2.2328
   23.490    2.1274
   23.505    2.0116
   23.520    2.1906
   23.535    2.3170
   23.550    2.1801
   23.565    2.0326
   23.580    2.1696
   23.595    2.0011
   23.610    1.9379
   23.625    2.2012
   23.640    2.3275
   23.655    2.2222
   23.670    2.2643
   23.685    1.9695
   23.700    2.0748
   23.715    2.2749
   23.730    2.2012
   23.745    2.3381
   23.760    2.5382
   23.775    2.0642
   23.790    2.2749
   23.805    2.0432
   23.820    2.1696
   23.835    2.1906
   23.850    2.1274
   23.865    2.1801
   23.880    2.1380
   23.895    2.1696
   23.910    1.9800
   23.925    2.1380
   23.940    2.2433
   23.955    2.2854
   23.970    2.4118
   23.985    2.2749
   24.000    2.1274
   24.015    2.0958
   24.030    2.2538
   24.045    2.3381
   24.060    1.9589
   24.075    2.1590
   24.090    1.9800
   24.105    2.2854
   24.120    2.2854
   24.135    1.8325
   24.150    2.2328
   24.165    2.1906
   24.180    2.1169
   24.195    2.0958
   24.210    2.1801
   24.225    2.0537
   24.240    2.2433
   24.255    2.0116
   24.270    2.1590
   24.285    1.9800
   24.300    2.0011
   24.315    2.0116
   24.330    2.1906
   24.345    2.4434
   24.360    2.0221
   24.375    1.9695
   24.390    2.0432
   24.405    2.0958
   24.420    2.2117
   24.435    2.2117
   24.450    2.0537
   24.465    2.0326
   24.480    2.1064
   24.495    2.3275
   24.510    2.2012
   24.525    2.0116
   24.540    1.9695
   24.555    2.1274
   24.570    2.2012
   24.585    2.1485
   24.600    2.3381
   24.615    2.1064
   24.630    1.9905
   24.645    2.1380
   24.660    2.0853
   24.675    2.3275
   24.690    2.2749
   24.705    2.2328
   24.720    2.2222
   24.735    2.1801
   24.750    2.1590
   24.765    2.2538
   24.780    2.1274
   24.795    2.0853
   24.810    2.0326
   24.825    1.7904
   24.840    2.0326
   24.855    2.1274
   24.870    1.9168
   24.885    1.8536
   24.900    1.9800
   24.915    2.2012
   24.930    2.0221
   24.945    1.9905
   24.960    2.0537
   24.975    1.9905
   24.990    2.0011
   25.005    2.1696
   25.020    2.1380
   25.035    2.1906
   25.050    2.1590
   25.065    2.0432
   25.080    1.8852
   25.095    2.0748
   25.110    2.1274
   25.125    1.9800
   25.140    2.0326
   25.155    1.7799
   25.170    1.8957
   25.185    2.1380
   25.200    2.1274
   25.215    2.0326
   25.230    2.0326
   25.245    1.7378
   25.260    1.8957
   25.275    2.1064
   25.290    2.2433
   25.305    2.2538
   25.320    2.1801
   25.335    2.1590
   25.350    2.2959
   25.365    2.2012
   25.380    2.0748
   25.395    2.3275
   25.410    2.1590
   25.425    2.1801
   25.440    2.1169
   25.455    1.9695
   25.470    2.0853
   25.485    1.9273
   25.500    2.1169
   25.515    2.2643
   25.530    2.1169
   25.545    2.0011
   25.560    1.7694
   25.575    1.9168
   25.590    1.8957
   25.605    1.8957
   25.620    1.9484
   25.635    2.0221
   25.650    2.1274
   25.665    1.9695
   25.680    1.9168
   25.695    2.0011
   25.710    1.9273
   25.725    1.8325
   25.740    1.8852
   25.755    1.8431
   25.770    1.9800
   25.785    2.1169
   25.800    2.0116
   25.815    2.0011
   25.830    2.0537
   25.845    1.9800
   25.860    2.1274
   25.875    2.2328
   25.890    2.0116
   25.905    1.9905
   25.920    1.8747
   25.935    1.9589
   25.950    2.1169
   25.965    1.9273
   25.980    1.9273
   25.995    1.8957
   26.010    2.0221
   26.025    1.8641
   26.040    2.0221
   26.055    1.9379
   26.070    1.7799
   26.085    1.9589
   26.100    2.0432
   26.115    2.0432
   26.130    2.0537
   26.145    1.9589
   26.160    1.9800
   26.175    1.8325
   26.190    1.7904
   26.205    1.7904
   26.220    1.9589
   26.235    2.1590
   26.250    2.1064
   26.265    1.9800
   26.280    1.8747
   26.295    1.8431
   26.310    1.9800
   26.325    1.8957
   26.340    2.0853
   26.355    2.1169
   26.370    1.9273
   26.385    1.8431
   26.400    1.8957
   26.415    2.1590
   26.430    2.0326
   26.445    1.8115
   26.460    1.9273
   26.475    1.9695
   26.490    1.7694
   26.505    1.8009
   26.520    1.6956
   26.535    1.8115
   26.550    1.9379
   26.565    1.9589
   26.580    2.0432
   26.595    1.8009
   26.610    1.8431
   26.625    1.9273
   26.640    2.0011
   26.655    1.8536
   26.670    1.6956
   26.685    1.8115
   26.700    1.8747
   26.715    1.8325
   26.730    1.8536
   26.745    2.1274
   26.760    2.0011
   26.775    2.0432
   26.790    1.7272
   26.805    1.8431
   26.820    2.0326
   26.835    2.0432
   26.850    1.8115
   26.865    1.8747
   26.880    1.7694
   26.895    1.8009
   26.910    1.9484
   26.925    1.6956
   26.940    1.8957
   26.955    1.8431
   26.970    2.0958
   26.985    1.9589
   27.000    1.9273
   27.015    1.8747
   27.030    1.9800
   27.045    2.1696
   27.060    1.8220
   27.075    1.8220
   27.090    1.8536
   27.105    1.7483
   27.120    1.7799
   27.135    1.7378
   27.150    1.8115
   27.165    1.8536
   27.180    1.7694
   27.195    1.7588
   27.210    1.8536
   27.225    1.8431
   27.240    1.8957
   27.255    1.9695
   27.270    1.7588
   27.285    2.0221
   27.300    2.0748
   27.315    1.8536
   27.330    1.9905
   27.345    1.8220
   27.360    1.7904
   27.375    1.7588
   27.390    1.9063
   27.405    1.7694
   27.420    1.8747
   27.435    2.0326
   27.450    1.7904
   27.465    1.8536
   27.480    2.0011
   27.495    1.8957
   27.510    1.7378
   27.525    1.7588
   27.540    1.8641
   27.555    1.9168
   27.570    1.8220
   27.585    1.8747
   27.600    1.7588
   27.615    1.9168
   27.630    1.8957
   27.645    1.6956
   27.660    2.1696
   27.675    2.0221
   27.690    1.9695
   27.705    1.8431
   27.720    1.6956
   27.735    1.8220
   27.750    1.8957
   27.765    1.8220
   27.780    1.7483
   27.795    1.8431
   27.810    1.9273
   27.825    1.7588
   27.840    1.9484
   27.855    1.9168
   27.870    1.5798
   27.885    1.5798
   27.900    1.7904
   27.915    1.7272
   27.930    1.7588
   27.945    1.7167
   27.960    1.7272
   27.975    1.8747
   27.990    1.9063
   28.005    1.8220
   28.020    1.7694
   28.035    1.7799
   28.050    1.8009
   28.065    2.0116
   28.080    1.9063
   28.095    1.7904
   28.110    1.8641
   28.125    1.9379
   28.140    2.1064
   28.155    2.0116
   28.170    2.0011
   28.185    1.7272
   28.200    1.8431
   28.215    1.8747
   28.230    1.7483
   28.245    1.8009
   28.260    1.8852
   28.275    2.1274
   28.290    1.9905
   28.305    1.9379
   28.320    1.8536
   28.335    1.8536
   28.350    1.9273
   28.365    2.1064
   28.380    1.8536
   28.395    1.8641
   28.410    1.9800
   28.425    2.0537
   28.440    1.9379
   28.455    1.8115
   28.470    1.8536
   28.485    1.7062
   28.500    1.7483
   28.515    1.9168
   28.530    1.7588
   28.545    1.8957
   28.560    1.7062
   28.575    1.7167
   28.590    1.8852
   28.605    1.8115
   28.620    1.6219
   28.635    2.0116
   28.650    2.0642
   28.665    1.9273
   28.680    1.7062
   28.695    1.6851
   28.710    1.7694
   28.725    1.6746
   28.740    1.7694
   28.755    1.9063
   28.770    1.9379
   28.785    1.7378
   28.800    1.8747
   28.815    1.7799
   28.830    1.6746
   28.845    1.6956
   28.860    1.7167
   28.875    1.7167
   28.890    1.7799
   28.905    1.8325
   28.920    1.7483
   28.935    1.6324
   28.950    1.6430
   28.965    1.7904
   28.980    1.9273
   28.995    1.9589
   29.010    1.8852
   29.025    1.8220
   29.040    1.8431
   29.055    1.8325
   29.070    1.6114
   29.085    1.7378
   29.100    1.7272
   29.115    1.6956
   29.130    1.6746
   29.145    1.7167
   29.160    1.7167
   29.175    1.8431
   29.190    1.8115
   29.205    1.7378
   29.220    1.9589
   29.235    1.6746
   29.250    1.7694
   29.265    1.8220
   29.280    1.8220
   29.295    1.8641
   29.310    2.0221
   29.325    1.9484
   29.340    1.7904
   29.355    1.7904
   29.370    1.5166
   29.385    1.5166
   29.400    1.7799
   29.415    2.0011
   29.430    1.5903
   29.445    1.4850
   29.460    1.9168
   29.475    1.8747
   29.490    1.7378
   29.505    2.0748
   29.520    1.8852
   29.535    1.7904
   29.550    1.8220
   29.565    1.8536
   29.580    1.8957
   29.595    1.7904
   29.610    1.6430
   29.625    1.7588
   29.640    1.8852
   29.655    1.8009
   29.670    1.7378
   29.685    1.8220
   29.700    1.7167
   29.715    1.7588
   29.730    1.7062
   29.745    1.6430
   29.760    1.6746
   29.775    1.7167
   29.790    1.8431
   29.805    1.8536
   29.820    1.6219
   29.835    1.6430
   29.850    1.6746
   29.865    1.5587
   29.880    1.7272
   29.895    1.8009
   29.910    1.7904
   29.925    1.9695
   29.940    1.8325
   29.955    1.8852
   29.970    1.6956
   29.985    1.6851
   30.000    1.6114
   30.015    1.8747
   30.030    1.8115
   30.045    1.6746
   30.060    1.8641
   30.075    1.6746
   30.090    1.6956
   30.105    1.6008
   30.120    1.4534
   30.135    1.6851
   30.150    1.7904
   30.165    1.9484
   30.180    1.7904
   30.195    1.7588
   30.210    1.6851
   30.225    1.8009
   30.240    1.6008
   30.255    1.7167
   30.270    1.7167
   30.285    1.8536
   30.300    1.8957
   30.315    1.6114
   30.330    1.6430
   30.345    1.8536
   30.360    1.7062
   30.375    1.6851
   30.390    1.6324
   30.405    1.3797
   30.420    1.8325
   30.435    1.9273
   30.450    1.6956
   30.465    1.7062
   30.480    1.5798
   30.495    1.7483
   30.510    1.6640
   30.525    1.7378
   30.540    1.6746
   30.555    1.7272
   30.570    1.7378
   30.585    1.6956
   30.600    1.5692
   30.615    1.8957
   30.630    1.6851
   30.645    1.6219
   30.660    1.6956
   30.675    1.5377
   30.690    1.6430
   30.705    1.7167
   30.720    1.7378
   30.735    1.8009
   30.750    1.7694
   30.765    1.7588
   30.780    1.7904
   30.795    1.7588
   30.810    1.8009
   30.825    1.8747
   30.840    1.4745
   30.855    1.6219
   30.870    1.7272
   30.885    1.5061
   30.900    1.6956
   30.915    1.7167
   30.930    1.6114
   30.945    1.6746
   30.960    1.5903
   30.975    1.6219
   30.990    1.6535
   31.005    1.6324
   31.020    1.7904
   31.035    1.6640
   31.050    1.6956
   31.065    1.7378
   31.080    1.6008
   31.095    1.5482
   31.110    1.7062
   31.125    1.7588
   31.140    1.6640
   31.155    1.6008
   31.170    1.6640
   31.185    1.6219
   31.200    1.6956
   31.215    1.7904
   31.230    1.5587
   31.245    1.7588
   31.260    1.7483
   31.275    1.7378
   31.290    1.7062
   31.305    1.7272
   31.320    1.6008
   31.335    1.5271
   31.350    1.5798
   31.365    1.5903
   31.380    1.5903
   31.395    1.6956
   31.410    1.5798
   31.425    1.6324
   31.440    1.5377
   31.455    1.5271
   31.470    1.5377
   31.485    1.5587
   31.500    1.7272
   31.515    1.7378
   31.530    1.6219
   31.545    1.3586
   31.560    1.6746
   31.575    1.5587
   31.590    1.5166
   31.605    1.6114
   31.620    1.6535
   31.635    1.6219
   31.650    1.6851
   31.665    1.6114
   31.680    1.5903
   31.695    1.5903
   31.710    1.4113
   31.725    1.6430
   31.740    1.5903
   31.755    1.6324
   31.770    1.6219
   31.785    1.6640
   31.800    1.7483
   31.815    1.7272
   31.830    1.6956
   31.845    1.6640
   31.860    1.6430
   31.875    1.6324
   31.890    1.8536
   31.905    1.6430
   31.920    1.4639
   31.935    1.2954
   31.950    1.4534
   31.965    1.6851
   31.980    1.6956
   31.995    1.6746
   32.010    1.6535
   32.025    1.4745
   32.040    1.5377
   32.055    1.6219
   32.070    1.6746
   32.085    1.6535
   32.100    1.5482
   32.115    1.4534
   32.130    1.7588
   32.145    1.5903
   32.160    1.6008
   32.175    1.5587
   32.190    1.6640
   32.205    1.6956
   32.220    1.6114
   32.235    1.6324
   32.250    1.5377
   32.265    1.5377
   32.280    1.5903
   32.295    1.4955
   32.310    1.5903
   32.325    1.7062
   32.340    1.6430
   32.355    1.6219
   32.370    1.7062
   32.385    1.6640
   32.400    1.5482
   32.415    1.5377
   32.430    1.4850
   32.445    1.4534
   32.460    1.6535
   32.475    1.5166
   32.490    1.6640
   32.505    1.6008
   32.520    1.5271
   32.535    1.6746
   32.550    1.7062
   32.565    1.5587
   32.580    1.6114
   32.595    1.6535
   32.610    1.5061
   32.625    1.6114
   32.640    1.5271
   32.655    1.4218
   32.670    1.4639
   32.685    1.4745
   32.700    1.6535
   32.715    1.5903
   32.730    1.4955
   32.745    1.4850
   32.760    1.5271
   32.775    1.4745
   32.790    1.4850
   32.805    1.4850
   32.820    1.4639
   32.835    1.5798
   32.850    1.6114
   32.865    1.4218
   32.880    1.4534
   32.895    1.5166
   32.910    1.4323
   32.925    1.4745
   32.940    1.4955
   32.955    1.4639
   32.970    1.7588
   32.985    1.5377
   33.000    1.4639
   33.015    1.3165
   33.030    1.3481
   33.045    1.4534
   33.060    1.4850
   33.075    1.4323
   33.090    1.4745
   33.105    1.5166
   33.120    1.4534
   33.135    1.2954
   33.150    1.5903
   33.165    1.3586
   33.180    1.5903
   33.195    1.4007
   33.210    1.2638
   33.225    1.3165
   33.240    1.6746
   33.255    1.5482
   33.270    1.3691
   33.285    1.5798
   33.300    1.4850
   33.315    1.5271
   33.330    1.2744
   33.345    1.4007
   33.360    1.4323
   33.375    1.5061
   33.390    1.3902
   33.405    1.4955
   33.420    1.4429
   33.435    1.4323
   33.450    1.3270
   33.465    1.6324
   33.480    1.6114
   33.495    1.5903
   33.510    1.5482
   33.525    1.3481
   33.540    1.5377
   33.555    1.4955
   33.570    1.4113
   33.585    1.4429
   33.600    1.2744
   33.615    1.2533
   33.630    1.4639
   33.645    1.5587
   33.660    1.5587
   33.675    1.5377
   33.690    1.4534
   33.705    1.3165
   33.720    1.3270
   33.735    1.6008
   33.750    1.5798
   33.765    1.4955
   33.780    1.3691
   33.795    1.3902
   33.810    1.5166
   33.825    1.4218
   33.840    1.3902
   33.855    1.4745
   33.870    1.4534
   33.885    1.4323
   33.900    1.4850
   33.915    1.4007
   33.930    1.4639
   33.945    1.3902
   33.960    1.4745
   33.975    1.3375
   33.990    1.3797
   34.005    1.3797
   34.020    1.3902
   34.035    1.2849
   34.050    1.4113
   34.065    1.2217
   34.080    1.3586
   34.095    1.4007
   34.110    1.4745
   34.125    1.3902
   34.140    1.4534
   34.155    1.4113
   34.170    1.3375
   34.185    1.3270
   34.200    1.4429
   34.215    1.5061
   34.230    1.5271
   34.245    1.5903
   34.260    1.4745
   34.275    1.4007
   34.290    1.3691
   34.305    1.3375
   34.320    1.5482
   34.335    1.6219
   34.350    1.5061
   34.365    1.1585
   34.380    1.3060
   34.395    1.2849
   34.410    1.3060
   34.425    1.3165
   34.440    1.4429
   34.455    1.4850
   34.470    1.2744
   34.485    1.2849
   34.500    1.4745
   34.515    1.5166
   34.530    1.4429
   34.545    1.3902
   34.560    1.2849
   34.575    1.0321
   34.590    1.2217
   34.605    1.4850
   34.620    1.4639
   34.635    1.5166
   34.650    1.4745
   34.665    1.5482
   34.680    1.3902
   34.695    1.3586
   34.710    1.2322
   34.725    1.3165
   34.740    1.4639
   34.755    1.2638
   34.770    1.2533
   34.785    1.5692
   34.800    1.4850
   34.815    1.3165
   34.830    1.2638
   34.845    1.3060
   34.860    1.3691
   34.875    1.3691
   34.890    1.5166
   34.905    1.3270
   34.920    1.2533
   34.935    1.2954
   34.950    1.3165
   34.965    1.2638
   34.980    1.3797
   34.995    1.1796
   35.010    1.3375
   35.025    1.3902
   35.040    1.4113
   35.055    1.3902
   35.070    1.4323
   35.085    1.5798
   35.100    1.3270
   35.115    1.1585
   35.130    1.2954
   35.145    1.3375
   35.160    1.3270
   35.175    1.3060
   35.190    1.3481
   35.205    1.4639
   35.220    1.3165
   35.235    1.0742
   35.250    1.2533
   35.265    1.3375
   35.280    1.2744
   35.295    1.5166
   35.310    1.5377
   35.325    1.4007
   35.340    1.4007
   35.355    1.3165
   35.370    1.1901
   35.385    1.3691
   35.400    1.2638
   35.415    1.3902
   35.430    1.4218
   35.445    1.2638
   35.460    1.2006
   35.475    1.5271
   35.490    1.4639
   35.505    1.2638
   35.520    1.2744
   35.535    1.5587
   35.550    1.4218
   35.565    1.3375
   35.580    1.3165
   35.595    1.4534
   35.610    1.3375
   35.625    1.4850
   35.640    1.3060
   35.655    1.1269
   35.670    1.1164
   35.685    1.2849
   35.700    1.3797
   35.715    1.2006
   35.730    1.1269
   35.745    1.2849
   35.760    1.1796
   35.775    1.1796
   35.790    1.2744
   35.805    1.4745
   35.820    1.0953
   35.835    1.2112
   35.850    1.3797
   35.865    1.3902
   35.880    1.3481
   35.895    1.3060
   35.910    1.2744
   35.925    1.2217
   35.940    1.2744
   35.955    1.1269
   35.970    1.2428
   35.985    1.2217
   36.000    1.3375
   36.015    1.2112
   36.030    1.3060
   36.045    1.1901
   36.060    1.3691
   36.075    1.3691
   36.090    1.2533
   36.105    1.2954
   36.120    1.1374
   36.135    1.2954
   36.150    1.3691
   36.165    1.0742
   36.180    1.0427
   36.195    1.2744
   36.210    1.3586
   36.225    1.3797
   36.240    1.2954
   36.255    1.3797
   36.270    1.3481
   36.285    1.2006
   36.300    1.1901
   36.315    1.0742
   36.330    1.1058
   36.345    1.3375
   36.360    1.2112
   36.375    1.2533
   36.390    1.2006
   36.405    1.2006
   36.420    1.2322
   36.435    1.2638
   36.450    1.2533
   36.465    1.3375
   36.480    1.3586
   36.495    1.3165
   36.510    1.3165
   36.525    1.1796
   36.540    1.1690
   36.555    1.2006
   36.570    1.3375
   36.585    1.3481
   36.600    1.2533
   36.615    1.2428
   36.630    1.3165
   36.645    1.2217
   36.660    1.2849
   36.675    1.2006
   36.690    1.2006
   36.705    1.2744
   36.720    1.1480
   36.735    1.2217
   36.750    1.3375
   36.765    1.1796
   36.780    1.1796
   36.795    1.1480
   36.810    1.1164
   36.825    1.2006
   36.840    1.2849
   36.855    1.3165
   36.870    1.3060
   36.885    1.2006
   36.900    1.0953
   36.915    1.2006
   36.930    1.2006
   36.945    1.2217
   36.960    1.3270
   36.975    1.1796
   36.990    1.2006
   37.005    1.3060
   37.020    1.2638
   37.035    1.4639
   37.050    1.2006
   37.065    1.1480
   37.080    1.3902
   37.095    1.3797
   37.110    1.3270
   37.125    1.0637
   37.140    1.2322
   37.155    1.1690
   37.170    1.2428
   37.185    1.2322
   37.200    1.2954
   37.215    1.2638
   37.230    1.2217
   37.245    1.0532
   37.260    1.1796
   37.275    1.1901
   37.290    1.2533
   37.305    1.1164
   37.320    1.1374
   37.335    1.1164
   37.350    1.0953
   37.365    1.1374
   37.380    1.1585
   37.395    1.1269
   37.410    1.0111
   37.425    1.0427
   37.440    1.1796
   37.455    1.2954
   37.470    1.2428
   37.485    1.1480
   37.500    1.1585
   37.515    1.1585
   37.530    1.2533
   37.545    1.1690
   37.560    1.0848
   37.575    0.9479
   37.590    0.9900
   37.605    1.0637
   37.620    1.2849
   37.635    1.1585
   37.650    1.1374
   37.665    1.0532
   37.680    1.1796
   37.695    1.1901
   37.710    1.0321
   37.725    1.2954
   37.740    1.1164
   37.755    0.8952
   37.770    0.9900
   37.785    1.0005
   37.800    1.1058
   37.815    1.3060
   37.830    1.3375
   37.845    1.2638
   37.860    1.4113
   37.875    1.2217
   37.890    1.1374
   37.905    1.1480
   37.920    1.1480
   37.935    1.0742
   37.950    1.1901
   37.965    1.1585
   37.980    1.1269
   37.995    1.2428
   38.010    1.0848
   38.025    1.3270
   38.040    1.2744
   38.055    1.1164
   38.070    1.2322
   38.085    1.1796
   38.100    1.2533
   38.115    1.2006
   38.130    1.1269
   38.145    1.0637
   38.160    1.2954
   38.175    1.1796
   38.190    1.1690
   38.205    1.1796
   38.220    1.1164
   38.235    1.2217
   38.250    1.2112
   38.265    1.2006
   38.280    1.1480
   38.295    1.2744
   38.310    1.2006
   38.325    1.1690
   38.340    1.1164
   38.355    1.1374
   38.370    1.3165
   38.385    1.2322
   38.400    1.2006
   38.415    1.2006
   38.430    1.3375
   38.445    1.1796
   38.460    1.2954
   38.475    1.1164
   38.490    1.2006
   38.505    1.1585
   38.520    1.1796
   38.535    1.3375
   38.550    1.2322
   38.565    1.2006
   38.580    1.4323
   38.595    1.1690
   38.610    1.2322
   38.625    1.2849
   38.640    1.3270
   38.655    1.2006
   38.670    1.0321
   38.685    1.3375
   38.700    1.1374
   38.715    1.1901
   38.730    1.1374
   38.745    1.2428
   38.760    1.2533
   38.775    1.0005
   38.790    1.2006
   38.805    1.2638
   38.820    1.2638
   38.835    1.0637
   38.850    1.3270
   38.865    1.2006
   38.880    1.3165
   38.895    1.3060
   38.910    1.1374
   38.925    1.0427
   38.940    1.0637
   38.955    1.0742
   38.970    1.2849
   38.985    1.1585
   39.000    0.9900
   39.015    1.1480
   39.030    1.0953
   39.045    1.3060
   39.060    1.2849
   39.075    1.1374
   39.090    1.0953
   39.105    1.1690
   39.120    1.1480
   39.135    1.2849
   39.150    1.1164
   39.165    1.0321
   39.180    1.2533
   39.195    1.1901
   39.210    1.1901
   39.225    1.0742
   39.240    0.9689
   39.255    1.2006
   39.270    1.0005
   39.285    1.0111
   39.300    1.1690
   39.315    1.1585
   39.330    1.1690
   39.345    1.0953
   39.360    1.1164
   39.375    1.1164
   39.390    1.0953
   39.405    1.0742
   39.420    1.2006
   39.435    1.1164
   39.450    1.0637
   39.465    1.1164
   39.480    1.1796
   39.495    1.0637
   39.510    1.0005
   39.525    1.0637
   39.540    1.0532
   39.555    1.2428
   39.570    1.2533
   39.585    1.1374
   39.600    1.2112
   39.615    1.1585
   39.630    1.0637
   39.645    1.1585
   39.660    1.0637
   39.675    1.2112
   39.690    1.1585
   39.705    1.0321
   39.720    1.1585
   39.735    1.0111
   39.750    1.1585
   39.765    1.2322
   39.780    1.0427
   39.795    1.0637
   39.810    1.1164
   39.825    1.2006
   39.840    1.1796
   39.855    1.1901
   39.870    1.0637
   39.885    1.2428
   39.900    1.2428
   39.915    1.2112
   39.930    1.1480
   39.945    1.2217
   39.960    1.1901
   39.975    1.1164
   39.990    1.0216
