    1.500   13.7019
    1.515   13.8494
    1.530   13.5650
    1.545   12.8805
    1.560   12.0169
    1.575   12.1222
    1.590   11.7852
    1.605   11.2796
    1.620   11.8589
    1.635   11.6166
    1.650   11.3533
    1.665   11.0269
    1.680   10.6898
    1.695   10.9742
    1.710   10.3739
    1.725   10.4476
    1.740   10.5635
    1.755   10.8162
    1.770   10.1316
    1.785   10.1106
    1.800    9.9105
    1.815    9.3734
    1.830    9.4050
    1.845    9.4892
    1.860    9.4471
    1.875    9.2259
    1.890    8.8678
    1.905    9.1417
    1.920    8.9521
    1.935    8.7204
    1.950    8.8573
    1.965    8.9837
    1.980    8.4044
    1.995    8.1622
    2.010    7.9305
    2.025    7.9937
    2.040    7.8989
    2.055    7.3828
    2.070    7.8673
    2.085    7.9094
    2.100    7.5724
    2.115    7.3723
    2.130    7.2880
    2.145    7.5619
    2.160    7.6040
    2.175    7.7304
    2.190    7.2775
    2.205    7.3091
    2.220    6.9089
    2.235    6.8352
    2.250    6.7404
    2.265    6.9616
    2.280    6.6667
    2.295    6.6772
    2.310    6.5824
    2.325    6.6456
    2.340    6.6035
    2.355    6.4560
    2.370    6.2665
    2.385    6.2875
    2.400    6.3086
    2.415    6.0979
    2.430    6.3507
    2.445    6.2033
    2.460    5.8347
    2.475    6.3718
    2.490    6.5613
    2.505    6.0242
    2.520    5.6135
    2.535    5.6240
    2.550    5.8452
    2.565    5.6345
    2.580    5.7083
    2.595    6.0242
    2.610    5.4239
    2.625    5.6345
    2.640    5.3818
    2.655    5.6556
    2.670    5.5292
    2.685    5.3818
    2.700    5.4976
    2.715    5.4871
    2.730    5.1080
    2.745    4.9394
    2.760    5.3291
    2.775    5.2765
    2.790    5.2449
    2.805    4.8763
    2.820    4.8657
    2.835    4.9184
    2.850    4.6656
    2.865    4.5287
    2.880    4.7499
    2.895    4.7920
    2.910    4.8447
    2.925    5.1606
    2.940    5.0132
    2.955    5.0132
    2.970    4.7815
    2.985    4.7183
    3.000    4.7393
    3.015    4.6972
    3.030    4.6761
    3.045    5.1711
    3.060    4.4760
    3.075    4.5392
    3.090    4.2970
    3.105    4.2443
    3.120    4.1917
    3.135    4.4128
    3.150    4.3602
    3.165    4.5498
    3.180    4.2759
    3.195    4.0548
    3.210    4.1706
    3.225    4.2127
    3.240    4.2127
    3.255    4.2127
    3.270    4.2443
    3.285    4.2970
    3.300    4.2443
    3.315    4.0126
    3.330    4.1601
    3.345    4.1074
    3.360    4.1601
    3.375    3.9705
    3.390    4.0758
    3.405    4.1074
    3.420    4.2970
    3.435    4.0548
    3.450    3.9179
    3.465    3.9810
    3.480    3.8231
    3.495    3.9284
    3.510    3.9600
    3.525    3.7283
    3.540    3.6546
    3.555    3.8863
    3.570    4.0758
    3.585    3.9389
    3.600    3.6440
    3.615    3.7599
    3.630    3.8968
    3.645    3.9389
    3.660    3.9389
    3.675    3.7177
    3.690    3.4966
    3.705    3.5176
    3.720    3.5387
    3.735    3.6756
    3.750    3.9389
    3.765    3.7599
    3.780    3.8020
    3.795    3.7493
    3.810    3.6019
    3.825    3.7283
    3.840    3.8020
    3.855    3.7599
    3.870    3.4544
    3.885    3.5492
    3.900    3.7599
    3.915    3.8231
    3.930    3.5914
    3.945    3.4123
    3.960    3.4334
    3.975    3.4650
    3.990    3.6967
    4.005    3.4123
    4.020    3.6019
    4.035    3.6230
    4.050    3.3175
    4.065    3.6651
    4.080    3.4966
    4.095    3.4229
    4.110    3.3175
    4.125    3.5598
    4.140    3.4755
    4.155    3.7809
    4.170    3.5598
    4.185    3.4860
    4.200    3.3070
    4.215    3.2859
    4.230    3.5282
    4.245    3.3491
    4.260    3.3070
    4.275    3.1806
    4.290    3.7599
    4.305    3.4229
    4.320    3.2543
    4.335    3.5598
    4.350    3.4439
    4.365    3.4860
    4.380    3.3281
    4.395    3.4860
    4.410    3.5071
    4.425    3.2333
    4.440    3.0858
    4.455    3.2333
    4.470    3.4544
    4.485    3.3491
    4.500    3.2754
    4.515    3.0648
    4.530    3.1069
    4.545    3.0858
    4.560    3.1174
    4.575    3.3281
    4.590    3.5071
    4.605    3.3070
    4.620    3.2649
    4.635    3.2227
    4.650    3.2333
    4.665    2.9700
    4.680    3.0226
    4.695    3.0964
    4.710    3.2649
    4.725    3.2438
    4.740    3.3491
    4.755    3.3281
    4.770    2.9595
    4.785    3.1280
    4.800    2.9910
    4.815    2.8647
    4.830    2.9910
    4.845    3.2754
    4.860    3.2754
    4.875    2.9805
    4.890    3.2649
    4.905    2.9595
    4.920    3.0648
    4.935    2.9595
    4.950    3.0964
    4.965    2.9805
    4.980    2.8225
    4.995    3.0016
    5.010    2.9489
    5.025    2.8015
    5.040    2.7804
    5.055    2.8857
    5.070    3.0016
    5.085    2.9805
    5.100    2.8857
    5.115    3.2227
    5.130    3.1490
    5.145    2.8436
    5.160    2.9805
    5.175    3.1490
    5.190    3.0753
    5.205    2.8647
    5.220    3.0332
    5.235    3.0964
    5.250    3.1806
    5.265    2.9700
    5.280    2.7909
    5.295    2.7067
    5.310    2.8857
    5.325    2.8647
    5.340    3.0648
    5.355    3.1174
    5.370    2.9700
    5.385    2.8225
    5.400    2.9910
    5.415    2.8436
    5.430    2.8436
    5.445    2.8331
    5.460    2.8857
    5.475    2.6751
    5.490    2.8752
    5.505    3.0648
    5.520    3.1385
    5.535    2.8857
    5.550    2.8963
    5.565    2.9279
    5.580    2.5698
    5.595    2.6224
    5.610    2.6540
    5.625    2.7699
    5.640    2.6224
    5.655    2.8647
    5.670    2.7383
    5.685    2.6330
    5.700    2.6435
    5.715    3.0332
    5.730    2.9279
    5.745    3.0016
    5.760    2.7909
    5.775    2.8541
    5.790    2.7383
    5.805    2.6540
    5.820    2.7172
    5.835    2.7804
    5.850    2.8647
    5.865    2.9595
    5.880    2.6435
    5.895    2.9805
    5.910    3.0858
    5.925    2.8752
    5.940    2.8436
    5.955    2.5487
    5.970    2.8436
    5.985    2.8331
    6.000    2.7699
    6.015    2.8331
    6.030    2.7488
    6.045    2.8225
    6.060    2.8541
    6.075    2.6856
    6.090    2.7593
    6.105    2.5592
    6.120    2.7593
    6.135    2.9279
    6.150    2.9384
    6.165    2.6330
    6.180    2.8120
    6.195    2.4855
    6.210    2.6856
    6.225    2.9068
    6.240    2.7172
    6.255    2.8647
    6.270    2.8331
    6.285    3.0648
    6.300    2.8857
    6.315    2.8120
    6.330    2.8331
    6.345    2.8752
    6.360    2.7278
    6.375    2.4645
    6.390    2.8436
    6.405    2.4434
    6.420    2.6014
    6.435    2.8225
    6.450    2.7593
    6.465    2.4750
    6.480    2.7488
    6.495    2.7383
    6.510    2.9700
    6.525    2.5908
    6.540    2.4434
    6.555    2.4434
    6.570    2.6435
    6.585    2.6119
    6.600    2.7383
    6.615    2.7488
    6.630    2.7172
    6.645    2.7909
    6.660    2.7593
    6.675    2.7804
    6.690    3.0016
    6.705    3.0332
    6.720    2.6751
    6.735    2.5171
    6.750    2.4434
    6.765    2.4855
    6.780    2.8647
    6.795    2.8436
    6.810    2.7909
    6.825    2.6330
    6.840    2.6540
    6.855    2.4013
    6.870    2.5382
    6.885    2.6646
    6.900    2.5908
    6.915    2.6014
    6.930    2.8331
    6.945    2.6330
    6.960    2.6119
    6.975    2.8857
    6.990    2.8857
    7.005    2.8436
    7.020    2.7699
    7.035    2.7593
    7.050    2.7593
    7.065    2.3065
    7.080    2.3275
    7.095    2.6014
    7.110    2.6014
    7.125    2.5698
    7.140    2.4961
    7.155    2.5803
    7.170    2.7067
    7.185    2.7593
    7.200    2.7278
    7.215    2.6224
    7.230    2.7278
    7.245    2.8752
    7.260    2.7909
    7.275    2.9279
    7.290    2.5803
    7.305    2.6751
    7.320    2.7278
    7.335    2.6856
    7.350    2.7699
    7.365    2.8120
    7.380    2.7067
    7.395    2.7488
    7.410    2.7593
    7.425    2.8541
    7.440    2.7172
    7.455    2.8436
    7.470    2.6330
    7.485    2.8436
    7.500    2.6540
    7.515    2.8331
    7.530    2.3591
    7.545    2.4855
    7.560    2.5276
    7.575    2.5487
    7.590    2.7909
    7.605    2.6540
    7.620    2.6330
    7.635    2.8647
    7.650    2.8120
    7.665    2.6856
    7.680    2.6014
    7.695    2.6856
    7.710    2.7593
    7.725    2.5066
    7.740    2.5592
    7.755    2.6962
    7.770    2.6962
    7.785    2.6751
    7.800    2.8225
    7.815    2.3907
    7.830    2.6646
    7.845    2.7593
    7.860    2.6330
    7.875    2.7804
    7.890    2.9384
    7.905    2.8225
    7.920    2.7383
    7.935    2.6435
    7.950    2.7067
    7.965    2.6856
    7.980    2.5171
    7.995    2.6540
    8.010    2.7383
    8.025    2.7278
    8.040    2.6540
    8.055    2.7488
    8.070    2.5171
    8.085    2.4329
    8.100    2.6435
    8.115    2.7383
    8.130    2.5908
    8.145    2.6435
    8.160    2.6119
    8.175    2.5276
    8.190    2.7278
    8.205    2.6330
    8.220    2.8647
    8.235    2.7067
    8.250    2.6014
    8.265    2.5908
    8.280    2.6119
    8.295    2.6435
    8.310    2.5066
    8.325    2.4961
    8.340    2.6540
    8.355    2.5803
    8.370    2.5382
    8.385    2.4645
    8.400    2.4329
    8.415    2.6119
    8.430    2.5803
    8.445    2.6119
    8.460    2.7067
    8.475    2.5487
    8.490    2.3802
    8.505    2.7699
    8.520    2.6119
    8.535    2.4329
    8.550    2.5908
    8.565    2.6224
    8.580    2.7909
    8.595    2.7488
    8.610    2.7699
    8.625    2.6856
    8.640    2.5276
    8.655    2.6224
    8.670    2.5908
    8.685    2.6751
    8.700    2.7909
    8.715    2.4855
    8.730    2.6119
    8.745    2.5382
    8.760    2.5171
    8.775    2.5803
    8.790    2.5908
    8.805    2.9910
    8.820    2.4223
    8.835    2.5382
    8.850    2.5698
    8.865    2.7067
    8.880    2.5382
    8.895    2.7067
    8.910    2.8120
    8.925    2.7067
    8.940    2.6540
    8.955    2.9173
    8.970    2.4118
    8.985    2.7909
    9.000    2.7278
    9.015    2.6540
    9.030    2.8857
    9.045    2.7699
    9.060    2.6330
    9.075    2.8225
    9.090    2.5803
    9.105    2.4961
    9.120    2.4118
    9.135    2.7067
    9.150    2.5066
    9.165    2.8120
    9.180    2.4013
    9.195    2.3065
    9.210    2.5487
    9.225    2.5698
    9.240    2.4434
    9.255    2.5382
    9.270    2.4539
    9.285    2.5066
    9.300    2.3802
    9.315    2.4223
    9.330    2.5698
    9.345    2.3486
    9.360    2.5382
    9.375    2.4539
    9.390    2.3591
    9.405    2.5276
    9.420    2.5276
    9.435    2.4961
    9.450    2.5276
    9.465    2.5698
    9.480    2.6962
    9.495    2.5698
    9.510    2.5908
    9.525    2.7383
    9.540    2.6330
    9.555    2.7172
    9.570    2.4961
    9.585    2.6962
    9.600    2.5803
    9.615    2.3275
    9.630    2.8331
    9.645    2.7172
    9.660    2.6119
    9.675    2.6856
    9.690    2.6224
    9.705    2.6224
    9.720    2.6224
    9.735    2.2328
    9.750    2.5171
    9.765    2.6014
    9.780    2.3591
    9.795    2.7383
    9.810    2.7488
    9.825    2.6014
    9.840    2.6224
    9.855    2.4434
    9.870    2.4013
    9.885    2.8647
    9.900    2.7278
    9.915    2.3697
    9.930    2.5908
    9.945    2.5908
    9.960    2.5171
    9.975    2.3907
    9.990    2.6435
   10.005    2.4750
   10.020    2.5382
   10.035    2.6330
   10.050    2.5276
   10.065    2.4645
   10.080    2.4855
   10.095    2.4645
   10.110    2.3486
   10.125    2.4961
   10.140    2.4223
   10.155    2.6224
   10.170    2.5171
   10.185    2.4539
   10.200    2.6856
   10.215    2.7278
   10.230    2.6435
   10.245    2.7278
   10.260    2.5698
   10.275    2.2959
   10.290    2.4645
   10.305    2.3697
   10.320    2.5066
   10.335    2.5908
   10.350    2.4855
   10.365    2.5066
   10.380    2.3697
   10.395    2.4013
   10.410    2.3697
   10.425    2.1485
   10.440    2.3907
   10.455    2.5698
   10.470    2.3591
   10.485    2.1485
   10.500    2.4118
   10.515    2.3381
   10.530    2.3697
   10.545    2.3275
   10.560    2.3591
   10.575    2.5908
   10.590    2.6435
   10.605    2.5382
   10.620    2.5908
   10.635    2.4223
   10.650    2.5171
   10.665    2.5487
   10.680    2.5066
   10.695    2.4750
   10.710    2.3591
   10.725    2.5276
   10.740    2.2854
   10.755    2.2854
   10.770    2.5698
   10.785    2.3381
   10.800    2.4329
   10.815    2.5698
   10.830    2.4855
   10.845    2.5066
   10.860    2.4539
   10.875    2.5171
   10.890    2.4750
   10.905    2.8015
   10.920    2.4013
   10.935    2.5698
   10.950    2.6014
   10.965    2.5592
   10.980    2.6540
   10.995    2.5382
   11.010    2.5487
   11.025    2.6014
   11.040    2.4118
   11.055    2.5908
   11.070    2.6330
   11.085    2.2538
   11.100    2.1906
   11.115    2.5803
   11.130    2.7383
   11.145    2.4223
   11.160    2.6014
   11.175    2.3697
   11.190    2.2117
   11.205    2.7278
   11.220    2.6540
   11.235    2.5066
   11.250    2.4961
   11.265    2.4223
   11.280    2.6856
   11.295    2.6751
   11.310    2.7172
   11.325    2.6014
   11.340    2.6119
   11.355    2.4223
   11.370    2.6014
   11.385    2.6856
   11.400    2.4223
   11.415    2.3802
   11.430    2.4434
   11.445    2.6435
   11.460    2.4118
   11.475    2.4118
   11.490    2.4118
   11.505    2.4329
   11.520    2.4961
   11.535    2.3802
   11.550    2.5487
   11.565    2.5066
   11.580    2.3275
   11.595    2.2854
   11.610    2.2749
   11.625    2.3697
   11.640    2.4855
   11.655    2.6646
   11.670    2.6540
   11.685    2.2117
   11.700    2.2643
   11.715    2.4434
   11.730    2.6119
   11.745    2.4645
   11.760    2.3381
   11.775    2.4750
   11.790    2.3381
   11.805    2.3065
   11.820    2.2854
   11.835    2.2117
   11.850    2.4118
   11.865    2.4855
   11.880    2.2433
   11.895    2.5171
   11.910    2.5382
   11.925    2.5276
   11.940    2.4539
   11.955    2.4118
   11.970    2.2538
   11.985    2.4434
   12.000    2.4961
   12.015    2.4434
   12.030    2.4329
   12.045    2.5592
   12.060    2.4329
   12.075    2.1064
   12.090    2.3381
   12.105    2.5382
   12.120    2.4645
   12.135    2.2433
   12.150    2.4434
   12.165    2.4961
   12.180    2.5171
   12.195    2.3697
   12.210    2.5276
   12.225    2.4013
   12.240    2.4434
   12.255    2.3697
   12.270    2.4118
   12.285    2.3697
   12.300    2.3065
   12.315    2.3907
   12.330    2.2433
   12.345    2.4118
   12.360    2.3907
   12.375    2.3802
   12.390    2.4539
   12.405    2.3907
   12.420    2.4118
   12.435    2.4645
   12.450    2.1064
   12.465    2.4013
   12.480    2.3907
   12.495    2.5276
   12.510    2.6014
   12.525    2.4434
   12.540    2.4750
   12.555    2.2854
   12.570    2.3907
   12.585    2.3907
   12.600    2.5382
   12.615    2.3065
   12.630    2.2959
   12.645    2.6014
   12.660    2.4329
   12.675    2.3591
   12.690    2.3907
   12.705    2.2643
   12.720    2.5803
   12.735    2.4013
   12.750    2.3907
   12.765    2.5276
   12.780    2.5066
   12.795    2.2117
   12.810    2.1906
   12.825    2.3065
   12.840    2.1380
   12.855    2.5487
   12.870    2.5066
   12.885    2.4434
   12.900    2.4329
   12.915    2.4961
   12.930    2.4645
   12.945    2.2749
   12.960    2.0326
   12.975    2.1590
   12.990    2.4539
   13.005    2.4329
   13.020    2.3802
   13.035    2.2854
   13.050    2.2117
   13.065    2.2222
   13.080    2.2643
   13.095    2.4434
   13.110    2.3591
   13.125    2.3697
   13.140    2.0748
   13.155    2.2749
   13.170    2.6014
   13.185    2.4223
   13.200    2.6540
   13.215    2.5066
   13.230    2.2749
   13.245    2.1590
   13.260    2.2538
   13.275    2.4223
   13.290    2.4539
   13.305    2.2328
   13.320    2.3591
   13.335    2.2117
   13.350    2.3802
   13.365    2.1274
   13.380    2.0748
   13.395    2.3907
   13.410    2.2959
   13.425    2.1485
   13.440    2.1169
   13.455    2.4434
   13.470    2.5066
   13.485    2.4013
   13.500    2.3381
   13.515    2.3697
   13.530    2.4645
   13.545    2.4961
   13.560    2.3591
   13.575    2.3381
   13.590    2.2538
   13.605    2.1380
   13.620    2.1590
   13.635    2.4750
   13.650    2.2222
   13.665    2.5276
   13.680    2.4329
   13.695    2.6751
   13.710    2.5276
   13.725    2.3697
   13.740    2.3381
   13.755    2.4539
   13.770    2.3591
   13.785    2.4013
   13.800    2.4645
   13.815    2.3802
   13.830    2.5382
   13.845    2.3907
   13.860    2.2012
   13.875    2.2328
   13.890    2.4434
   13.905    2.3802
   13.920    2.0326
   13.935    2.1590
   13.950    2.2012
   13.965    2.4118
   13.980    2.2328
   13.995    2.4329
   14.010    2.2854
   14.025    2.1906
   14.040    2.2012
   14.055    2.3275
   14.070    2.3802
   14.085    2.2328
   14.100    2.2012
   14.115    2.3697
   14.130    2.3802
   14.145    2.3697
   14.160    2.5066
   14.175    2.5803
   14.190    2.2749
   14.205    2.6646
   14.220    2.5066
   14.235    2.3697
   14.250    2.3170
   14.265    2.2117
   14.280    2.3381
   14.295    2.4434
   14.310    2.2643
   14.325    2.2854
   14.340    2.2222
   14.355    2.3486
   14.370    2.3275
   14.385    2.2749
   14.400    2.3381
   14.415    2.4223
   14.430    2.3170
   14.445    2.2222
   14.460    2.4329
   14.475    2.2538
   14.490    2.1274
   14.505    2.1906
   14.520    2.2222
   14.535    2.1274
   14.550    2.2959
   14.565    2.3381
   14.580    1.9063
   14.595    2.1801
   14.610    2.3907
   14.625    2.4223
   14.640    2.3065
   14.655    2.3275
   14.670    2.4434
   14.685    2.3802
   14.700    2.2854
   14.715    2.3065
   14.730    2.2433
   14.745    2.2749
   14.760    2.2854
   14.775    2.3275
   14.790    2.3907
   14.805    2.4118
   14.820    2.3486
   14.835    2.3591
   14.850    2.2117
   14.865    2.3697
   14.880    2.5382
   14.895    2.3170
   14.910    2.3591
   14.925    2.6751
   14.940    2.3907
   14.955    2.2433
   14.970    2.2328
   14.985    2.3381
   15.000    2.2433
   15.015    2.3802
   15.030    2.5066
   15.045    2.5592
   15.060    2.3697
   15.075    2.4329
   15.090    2.4961
   15.105    2.4223
   15.120    2.4855
   15.135    2.3802
   15.150    2.2643
   15.165    2.2012
   15.180    2.5066
   15.195    2.5276
   15.210    2.3381
   15.225    2.4645
   15.240    2.3170
   15.255    2.1590
   15.270    2.3275
   15.285    2.2433
   15.300    2.2117
   15.315    2.3170
   15.330    2.3065
   15.345    2.3065
   15.360    2.3802
   15.375    2.4750
   15.390    2.2854
   15.405    2.4013
   15.420    2.5276
   15.435    2.3802
   15.450    2.0116
   15.465    2.1801
   15.480    2.3697
   15.495    2.4855
   15.510    2.3170
   15.525    2.6751
   15.540    2.3697
   15.555    2.1380
   15.570    2.2854
   15.585    2.3907
   15.600    2.4118
   15.615    2.4013
   15.630    2.1590
   15.645    2.2959
   15.660    2.3170
   15.675    2.4855
   15.690    2.2117
   15.705    2.0642
   15.720    2.2854
   15.735    2.3170
   15.750    2.3170
   15.765    2.2854
   15.780    2.1485
   15.795    2.3170
   15.810    2.4223
   15.825    2.4223
   15.840    2.4329
   15.855    2.4223
   15.870    2.3802
   15.885    2.3907
   15.900    2.4539
   15.915    2.3591
   15.930    2.4118
   15.945    2.3170
   15.960    2.2749
   15.975    2.4013
   15.990    2.2117
   16.005    2.3170
   16.020    2.5276
   16.035    2.4434
   16.050    2.3802
   16.065    2.7804
   16.080    2.4961
   16.095    2.3907
   16.110    2.2643
   16.125    2.3170
   16.140    2.3065
   16.155    2.3591
   16.170    2.3591
   16.185    2.3065
   16.200    2.8647
   16.215    2.6330
   16.230    2.5171
   16.245    2.5382
   16.260    2.5487
   16.275    2.4434
   16.290    2.2012
   16.305    2.3486
   16.320    2.3381
   16.335    2.2959
   16.350    2.1906
   16.365    2.2749
   16.380    2.3802
   16.395    2.2222
   16.410    2.1169
   16.425    2.1696
   16.440    2.1274
   16.455    2.2117
   16.470    2.3065
   16.485    2.4645
   16.500    2.2222
   16.515    2.5276
   16.530    2.4013
   16.545    2.3486
   16.560    2.4223
   16.575    2.6751
   16.590    2.2117
   16.605    2.2959
   16.620    2.5382
   16.635    2.3591
   16.650    2.4118
   16.665    2.2854
   16.680    2.6119
   16.695    2.3907
   16.710    2.4961
   16.725    2.2538
   16.740    2.3697
   16.755    2.3907
   16.770    2.1906
   16.785    2.4434
   16.800    2.3486
   16.815    2.2643
   16.830    2.1696
   16.845    2.4750
   16.860    2.3170
   16.875    2.5592
   16.890    2.1485
   16.905    2.1380
   16.920    2.4539
   16.935    2.3907
   16.950    2.2643
   16.965    2.1801
   16.980    2.2643
   16.995    2.4434
   17.010    2.3591
   17.025    2.3275
   17.040    2.2643
   17.055    2.3802
   17.070    2.2538
   17.085    2.2538
   17.100    2.4750
   17.115    2.3907
   17.130    2.2749
   17.145    2.3802
   17.160    2.3065
   17.175    2.4329
   17.190    2.3170
   17.205    2.2854
   17.220    2.3170
   17.235    2.4013
   17.250    2.4750
   17.265    2.3591
   17.280    2.3907
   17.295    2.5171
   17.310    2.4013
   17.325    2.5276
   17.340    2.6224
   17.355    2.5171
   17.370    2.5487
   17.385    2.4750
   17.400    2.5908
   17.415    2.2433
   17.430    2.2643
   17.445    2.3381
   17.460    2.1696
   17.475    2.5276
   17.490    2.3381
   17.505    2.3486
   17.520    2.0642
   17.535    2.4750
   17.550    2.4539
   17.565    2.4539
   17.580    1.9905
   17.595    2.0537
   17.610    2.2959
   17.625    2.4961
   17.640    2.4645
   17.655    2.4961
   17.670    2.4434
   17.685    2.5487
   17.700    2.4961
   17.715    2.3802
   17.730    2.2328
   17.745    2.3381
   17.760    2.4539
   17.775    2.4013
   17.790    2.4645
   17.805    2.4750
   17.820    2.6224
   17.835    2.3381
   17.850    2.3170
   17.865    2.3275
   17.880    2.3170
   17.895    2.4118
   17.910    2.4013
   17.925    2.3802
   17.940    2.3907
   17.955    2.5698
   17.970    2.6330
   17.985    2.6646
   18.000    2.3697
   18.015    2.5908
   18.030    2.2854
   18.045    2.2222
   18.060    2.3697
   18.075    2.4750
   18.090    2.2643
   18.105    2.2433
   18.120    2.1696
   18.135    2.4539
   18.150    2.3802
   18.165    2.5171
   18.180    2.5276
   18.195    2.3275
   18.210    2.2749
   18.225    2.4434
   18.240    2.4855
   18.255    2.4855
   18.270    2.4645
   18.285    2.3065
   18.300    1.9484
   18.315    2.1064
   18.330    2.2012
   18.345    2.7278
   18.360    2.4645
   18.375    2.3697
   18.390    2.3802
   18.405    2.2117
   18.420    2.1906
   18.435    2.3170
   18.450    2.5382
   18.465    2.4855
   18.480    2.4645
   18.495    2.3381
   18.510    2.2538
   18.525    2.4013
   18.540    2.4855
   18.555    2.4645
   18.570    2.5066
   18.585    2.2854
   18.600    2.3802
   18.615    2.5592
   18.630    2.2749
   18.645    2.1801
   18.660    2.3802
   18.675    2.4329
   18.690    2.4539
   18.705    2.6330
   18.720    2.3381
   18.735    2.4645
   18.750    2.3802
   18.765    2.5592
   18.780    2.5592
   18.795    2.2117
   18.810    2.2012
   18.825    2.3065
   18.840    2.3486
   18.855    2.4329
   18.870    2.2538
   18.885    2.4539
   18.900    2.4961
   18.915    2.3802
   18.930    2.4539
   18.945    2.4750
   18.960    2.4329
   18.975    2.5382
   18.990    2.1801
   19.005    2.3802
   19.020    2.3591
   19.035    2.3697
   19.050    2.5908
   19.065    2.3802
   19.080    2.4434
   19.095    2.5698
   19.110    2.3275
   19.125    2.4645
   19.140    2.3381
   19.155    2.4013
   19.170    2.3275
   19.185    2.2538
   19.200    2.4329
   19.215    2.4539
   19.230    2.3802
   19.245    2.3802
   19.260    2.3275
   19.275    2.4645
   19.290    2.6962
   19.305    2.8225
   19.320    2.5066
   19.335    2.4013
   19.350    2.5066
   19.365    2.3697
   19.380    2.4961
   19.395    2.4855
   19.410    2.5066
   19.425    2.4434
   19.440    2.3170
   19.455    2.2959
   19.470    2.4539
   19.485    2.3591
   19.500    2.4855
   19.515    2.5066
   19.530    2.2959
   19.545    2.2012
   19.560    2.3065
   19.575    2.1906
   19.590    2.2012
   19.605    2.1485
   19.620    2.3907
   19.635    2.5698
   19.650    2.5066
   19.665    2.5066
   19.680    2.4118
   19.695    2.3907
   19.710    2.0537
   19.725    2.2117
   19.740    2.5592
   19.755    2.5487
   19.770    2.5803
   19.785    2.5171
   19.800    2.4645
   19.815    2.3591
   19.830    2.4434
   19.845    2.4539
   19.860    2.3170
   19.875    2.4645
   19.890    2.5066
   19.905    2.3802
   19.920    2.2433
   19.935    2.3802
   19.950    2.4118
   19.965    2.3381
   19.980    2.3170
   19.995    2.4434
   20.010    2.1169
   20.025    2.1696
   20.040    2.3275
   20.055    2.4855
   20.070    2.6014
   20.085    2.4645
   20.100    2.6014
   20.115    2.6540
   20.130    2.4434
   20.145    2.6962
   20.160    2.6119
   20.175    2.4329
   20.190    2.4645
   20.205    2.3591
   20.220    2.4855
   20.235    2.3275
   20.250    2.4539
   20.265    2.3381
   20.280    2.4750
   20.295    2.4013
   20.310    2.4855
   20.325    2.4750
   20.340    2.5276
   20.355    2.4118
   20.370    2.4961
   20.385    2.5171
   20.400    2.5487
   20.415    2.5803
   20.430    2.6435
   20.445    2.4434
   20.460    2.6856
   20.475    2.3486
   20.490    2.4118
   20.505    2.5382
   20.520    2.4961
   20.535    2.4434
   20.550    2.6014
   20.565    2.6224
   20.580    2.4961
   20.595    2.5908
   20.610    2.2433
   20.625    2.3170
   20.640    2.3170
   20.655    2.4539
   20.670    2.5382
   20.685    2.6540
   20.700    2.2854
   20.715    2.4855
   20.730    2.3065
   20.745    2.2959
   20.760    2.5066
   20.775    2.2854
   20.790    2.4013
   20.805    2.3591
   20.820    2.5066
   20.835    2.2959
   20.850    2.4118
   20.865    2.6540
   20.880    2.4539
   20.895    2.4645
   20.910    2.4223
   20.925    2.5171
   20.940    2.4223
   20.955    2.4013
   20.970    2.4645
   20.985    2.6014
   21.000    2.3697
   21.015    2.4223
   21.030    2.6224
   21.045    2.5276
   21.060    2.3170
   21.075    2.3065
   21.090    2.3802
   21.105    2.3591
   21.120    2.4645
   21.135    2.7067
   21.150    2.3486
   21.165    2.4434
   21.180    2.2117
   21.195    2.2433
   21.210    2.1801
   21.225    2.2854
   21.240    2.4539
   21.255    2.5698
   21.270    2.6119
   21.285    2.4434
   21.300    2.5276
   21.315    2.5487
   21.330    2.2328
   21.345    2.3275
   21.360    2.6014
   21.375    2.2749
   21.390    2.4750
   21.405    2.4329
   21.420    2.3170
   21.435    2.3065
   21.450    2.4645
   21.465    2.3697
   21.480    2.4118
   21.495    2.5803
   21.510    2.5592
   21.525    2.4434
   21.540    2.4750
   21.555    2.3697
   21.570    2.5698
   21.585    2.4645
   21.600    2.5382
   21.615    2.2643
   21.630    2.1485
   21.645    2.4750
   21.660    2.3907
   21.675    2.7067
   21.690    2.5592
   21.705    2.5171
   21.720    2.7383
   21.735    2.3907
   21.750    2.5171
   21.765    2.4434
   21.780    2.2959
   21.795    2.5276
   21.810    2.4434
   21.825    2.5803
   21.840    2.3381
   21.855    2.2433
   21.870    2.3591
   21.885    2.4539
   21.900    2.4750
   21.915    2.5276
   21.930    2.4750
   21.945    2.3591
   21.960    2.5276
   21.975    2.2749
   21.990    2.2643
   22.005    2.2854
   22.020    2.3697
   22.035    2.5066
   22.050    2.6119
   22.065    2.5698
   22.080    2.4223
   22.095    2.4013
   22.110    2.4013
   22.125    2.4750
   22.140    2.3802
   22.155    2.3802
   22.170    2.4434
   22.185    2.2012
   22.200    2.1906
   22.215    2.4118
   22.230    2.4434
   22.245    2.3275
   22.260    2.3170
   22.275    2.4645
   22.290    2.6224
   22.305    2.1380
   22.320    2.1906
   22.335    2.2959
   22.350    2.3381
   22.365    2.3591
   22.380    2.4329
   22.395    2.4645
   22.410    2.3802
   22.425    2.5908
   22.440    2.5276
   22.455    2.4855
   22.470    2.5276
   22.485    2.4855
   22.500    2.3170
   22.515    2.4013
   22.530    2.5908
   22.545    2.4539
   22.560    2.4855
   22.575    2.3591
   22.590    2.5803
   22.605    2.6856
   22.620    2.3697
   22.635    2.3486
   22.650    2.4645
   22.665    2.4750
   22.680    2.4645
   22.695    2.3591
   22.710    2.5382
   22.725    2.4539
   22.740    2.5382
   22.755    2.5487
   22.770    2.3907
   22.785    2.5382
   22.800    2.6119
   22.815    2.4855
   22.830    2.5171
   22.845    2.3697
   22.860    2.1906
   22.875    2.3697
   22.890    2.4223
   22.905    2.3065
   22.920    2.3697
   22.935    2.3802
   22.950    2.5276
   22.965    2.3802
   22.980    2.4013
   22.995    2.2749
   23.010    2.4434
   23.025    2.5592
   23.040    2.4750
   23.055    2.4223
   23.070    2.3275
   23.085    2.2643
   23.100    2.3065
   23.115    2.4329
   23.130    2.3170
   23.145    2.5382
   23.160    2.3381
   23.175    2.4855
   23.190    2.2749
   23.205    2.2328
   23.220    2.2854
   23.235    2.4539
   23.250    2.5803
   23.265    2.6962
   23.280    2.6330
   23.295    2.6751
   23.310    2.5066
   23.325    2.3802
   23.340    2.2643
   23.355    2.4645
   23.370    2.2749
   23.385    2.4013
   23.400    2.2222
   23.415    2.4750
   23.430    2.4855
   23.445    2.3170
   23.460    2.3802
   23.475    2.2959
   23.490    2.4539
   23.505    2.4223
   23.520    2.3170
   23.535    2.2433
   23.550    2.4750
   23.565    2.3486
   23.580    2.3486
   23.595    2.4223
   23.610    2.5276
   23.625    2.4118
   23.640    2.2959
   23.655    2.5908
   23.670    2.2222
   23.685    2.5592
   23.700    2.4223
   23.715    2.2433
   23.730    2.3802
   23.745    2.4855
   23.760    2.2222
   23.775    2.4434
   23.790    2.5908
   23.805    2.2222
   23.820    2.4539
   23.835    2.5487
   23.850    2.5803
   23.865    2.0537
   23.880    2.1590
   23.895    2.2433
   23.910    2.2643
   23.925    2.3802
   23.940    2.4013
   23.955    2.4329
   23.970    2.4961
   23.985    2.4855
   24.000    2.4223
   24.015    2.4750
   24.030    2.4855
   24.045    2.3275
   24.060    2.2854
   24.075    2.0642
   24.090    2.3907
   24.105    2.3486
   24.120    2.4750
   24.135    2.5066
   24.150    2.3275
   24.165    2.2854
   24.180    2.5066
   24.195    2.3802
   24.210    2.3065
   24.225    2.2749
   24.240    2.3802
   24.255    2.3275
   24.270    2.4013
   24.285    2.4118
   24.300    2.5487
   24.315    2.4223
   24.330    2.2222
   24.345    2.3275
   24.360    2.3275
   24.375    2.3065
   24.390    2.4118
   24.405    2.3065
   24.420    2.2854
   24.435    2.2012
   24.450    2.1696
   24.465    2.2117
   24.480    2.1590
   24.495    2.3275
   24.510    2.3486
   24.525    2.4750
   24.540    2.4118
   24.555    2.3065
   24.570    2.2959
   24.585    2.2538
   24.600    2.2959
   24.615    2.6224
   24.630    2.4329
   24.645    2.3907
   24.660    2.3486
   24.675    2.4645
   24.690    2.5066
   24.705    2.5803
   24.720    2.2538
   24.735    2.1380
   24.750    2.2012
   24.765    2.2222
   24.780    2.2328
   24.795    2.2854
   24.810    2.3275
   24.825    2.1274
   24.840    2.3907
   24.855    2.2959
   24.870    2.4750
   24.885    2.3591
   24.900    2.1590
   24.915    2.2117
   24.930    2.3697
   24.945    2.4118
   24.960    2.0642
   24.975    2.2328
   24.990    2.1064
   25.005    2.1485
   25.020    2.3697
   25.035    2.5803
   25.050    2.2959
   25.065    2.3697
   25.080    2.3697
   25.095    2.2222
   25.110    2.2117
   25.125    2.3802
   25.140    2.3802
   25.155    2.3170
   25.170    2.4539
   25.185    2.2854
   25.200    2.2538
   25.215    2.0221
   25.230    1.9063
   25.245    2.3381
   25.260    2.1485
   25.275    2.2222
   25.290    2.4223
   25.305    2.2117
   25.320    2.1485
   25.335    2.3170
   25.350    2.3170
   25.365    2.3697
   25.380    2.3275
   25.395    2.4223
   25.410    2.2854
   25.425    2.2959
   25.440    2.1380
   25.455    2.1064
   25.470    2.2117
   25.485    2.5066
   25.500    2.4118
   25.515    2.3381
   25.530    2.4434
   25.545    2.3381
   25.560    2.1801
   25.575    2.2538
   25.590    2.2328
   25.605    2.3591
   25.620    2.4223
   25.635    2.3486
   25.650    2.3591
   25.665    2.4961
   25.680    2.4434
   25.695    2.3802
   25.710    2.1169
   25.725    2.1274
   25.740    2.2854
   25.755    2.2117
   25.770    2.2749
   25.785    2.1064
   25.800    2.2959
   25.815    2.2854
   25.830    2.1906
   25.845    2.3065
   25.860    2.2222
   25.875    2.3907
   25.890    2.2433
   25.905    2.3802
   25.920    2.3275
   25.935    2.2538
   25.950    2.3170
   25.965    2.0853
   25.980    2.0642
   25.995    2.2117
   26.010    2.1696
   26.025    2.3591
   26.040    2.3486
   26.055    2.1590
   26.070    2.0537
   26.085    2.3486
   26.100    2.2328
   26.115    2.3381
   26.130    2.3065
   26.145    2.3907
   26.160    2.3065
   26.175    2.3802
   26.190    2.4855
   26.205    2.3170
   26.220    2.2012
   26.235    1.8536
   26.250    2.1064
   26.265    2.2643
   26.280    2.2538
   26.295    2.2538
   26.310    2.2012
   26.325    2.3486
   26.340    2.2643
   26.355    2.3275
   26.370    2.3275
   26.385    2.1064
   26.400    2.3275
   26.415    2.0642
   26.430    2.1485
   26.445    2.3907
   26.460    2.5698
   26.475    2.2328
   26.490    2.2433
   26.505    2.1380
   26.520    2.1380
   26.535    2.2643
   26.550    2.2117
   26.565    2.0642
   26.580    2.2433
   26.595    1.9905
   26.610    2.1169
   26.625    2.0853
   26.640    2.0326
   26.655    2.0326
   26.670    2.1380
   26.685    2.2433
   26.700    2.0958
   26.715    2.0011
   26.730    2.0748
   26.745    2.0748
   26.760    2.0853
   26.775    2.3170
   26.790    2.2959
   26.805    2.0432
   26.820    2.0748
   26.835    2.3065
   26.850    2.3907
   26.865    2.3170
   26.880    2.0432
   26.895    2.1274
   26.910    2.1906
   26.925    2.0326
   26.940    2.0011
   26.955    2.1380
   26.970    2.0642
   26.985    2.1906
   27.000    2.2643
   27.015    2.0748
   27.030    2.3065
   27.045    2.3065
   27.060    2.1485
   27.075    2.2643
   27.090    2.3591
   27.105    2.1801
   27.120    2.1696
   27.135    2.0221
   27.150    2.2643
   27.165    2.3170
   27.180    2.0221
   27.195    2.1590
   27.210    2.1169
   27.225    2.3275
   27.240    2.2959
   27.255    1.9800
   27.270    2.1380
   27.285    2.1696
   27.300    2.0326
   27.315    2.0853
   27.330    2.0537
   27.345    2.0958
   27.360    2.3170
   27.375    2.1485
   27.390    2.2538
   27.405    2.1696
   27.420    2.2643
   27.435    2.3697
   27.450    1.9695
   27.465    2.0011
   27.480    2.3170
   27.495    2.0853
   27.510    2.3802
   27.525    2.0221
   27.540    2.0958
   27.555    2.2012
   27.570    1.8957
   27.585    1.9800
   27.600    2.1696
   27.615    2.0537
   27.630    1.9273
   27.645    1.9379
   27.660    2.1906
   27.675    2.2433
   27.690    2.1696
   27.705    2.0432
   27.720    2.0642
   27.735    1.9905
   27.750    2.0432
   27.765    2.2328
   27.780    2.1590
   27.795    2.0011
   27.810    2.0642
   27.825    2.0748
   27.840    2.2117
   27.855    2.2328
   27.870    2.1380
   27.885    2.2328
   27.900    2.2328
   27.915    2.1274
   27.930    1.9379
   27.945    2.0537
   27.960    1.9905
   27.975    2.0853
   27.990    2.3275
   28.005    2.2117
   28.020    2.0853
   28.035    2.1696
   28.050    2.2959
   28.065    2.2117
   28.080    2.0116
   28.095    2.0853
   28.110    2.1590
   28.125    2.0011
   28.140    2.2433
   28.155    2.4539
   28.170    2.1274
   28.185    2.0221
   28.200    2.2117
   28.215    2.2433
   28.230    2.1169
   28.245    2.0011
   28.260    1.9484
   28.275    2.2959
   28.290    1.8747
   28.305    2.0537
   28.320    2.2328
   28.335    2.1064
   28.350    1.9379
   28.365    1.9695
   28.380    2.0958
   28.395    2.2012
   28.410    1.9063
   28.425    2.0011
   28.440    2.1906
   28.455    2.1380
   28.470    2.0853
   28.485    2.1064
   28.500    2.1169
   28.515    2.0748
   28.530    2.0326
   28.545    2.0642
   28.560    2.1380
   28.575    2.1485
   28.590    2.0748
   28.605    2.2328
   28.620    1.9695
   28.635    1.8957
   28.650    2.2222
   28.665    2.0853
   28.680    2.1169
   28.695    2.0642
   28.710    2.0221
   28.725    2.0748
   28.740    1.8220
   28.755    2.1590
   28.770    2.1801
   28.785    2.1169
   28.800    2.1906
   28.815    2.1274
   28.830    1.9695
   28.845    2.1380
   28.860    2.0326
   28.875    2.0432
   28.890    2.1064
   28.905    2.0011
   28.920    1.9589
   28.935    2.2222
   28.950    1.9800
   28.965    1.8747
   28.980    2.0011
   28.995    1.9695
   29.010    2.0432
   29.025    2.0958
   29.040    1.9905
   29.055    1.8852
   29.070    2.1485
   29.085    2.0958
   29.100    1.8641
   29.115    1.8957
   29.130    1.8115
   29.145    1.7799
   29.160    1.8641
   29.175    1.9484
   29.190    1.8325
   29.205    2.0011
   29.220    2.2433
   29.235    1.8747
   29.250    1.8641
   29.265    2.0642
   29.280    1.9379
   29.295    2.0116
   29.310    2.0432
   29.325    2.0432
   29.340    2.0326
   29.355    1.9905
   29.370    1.9800
   29.385    1.9695
   29.400    2.2222
   29.415    2.2117
   29.430    2.0326
   29.445    1.9484
   29.460    2.0432
   29.475    2.0221
   29.490    1.8220
   29.505    1.9695
   29.520    2.0221
   29.535    1.8641
   29.550    1.8957
   29.565    1.7272
   29.580    1.8009
   29.595    2.1274
   29.610    1.9905
   29.625    2.0748
   29.640    2.0221
   29.655    1.8852
   29.670    1.9800
   29.685    2.0958
   29.700    2.0011
   29.715    2.0642
   29.730    2.1380
   29.745    1.9905
   29.760    1.9273
   29.775    1.8220
   29.790    1.9168
   29.805    1.8747
   29.820    1.7904
   29.835    1.9905
   29.850    1.9695
   29.865    1.8009
   29.880    1.8115
   29.895    1.9379
   29.910    1.8220
   29.925    1.6430
   29.940    1.8325
   29.955    1.7694
   29.970    2.0221
   29.985    1.9695
   30.000    2.0748
   30.015    1.9695
   30.030    1.9905
   30.045    1.9589
   30.060    1.8536
   30.075    1.8641
   30.090    1.9273
   30.105    2.0011
   30.120    1.7167
   30.135    1.8747
   30.150    2.0116
   30.165    1.9589
   30.180    1.9379
   30.195    1.8325
   30.210    2.0011
   30.225    2.0748
   30.240    2.1590
   30.255    1.9379
   30.270    2.0326
   30.285    1.8431
   30.300    1.8009
   30.315    1.8852
   30.330    2.0011
   30.345    1.8325
   30.360    1.7904
   30.375    1.9168
   30.390    1.9484
   30.405    2.0116
   30.420    2.0537
   30.435    1.9800
   30.450    1.7799
   30.465    1.9905
   30.480    1.7904
   30.495    1.6008
   30.510    1.8220
   30.525    1.7799
   30.540    1.9168
   30.555    1.7799
   30.570    1.7272
   30.585    1.7588
   30.600    1.9063
   30.615    1.7167
   30.630    1.8009
   30.645    1.8852
   30.660    2.1380
   30.675    2.0116
   30.690    1.9273
   30.705    1.7272
   30.720    1.8747
   30.735    1.9063
   30.750    1.9484
   30.765    1.7799
   30.780    1.9168
   30.795    1.8431
   30.810    1.8641
   30.825    1.8009
   30.840    1.9589
   30.855    1.7799
   30.870    1.9168
   30.885    1.7588
   30.900    1.7483
   30.915    2.1274
   30.930    1.8325
   30.945    1.8536
   30.960    1.8747
   30.975    1.8641
   30.990    1.6851
   31.005    1.9273
   31.020    1.7799
   31.035    1.9063
   31.050    1.9800
   31.065    1.8115
   31.080    1.7378
   31.095    1.8852
   31.110    1.7904
   31.125    1.9905
   31.140    1.8957
   31.155    1.7694
   31.170    1.8852
   31.185    1.9695
   31.200    1.7694
   31.215    1.9484
   31.230    1.8641
   31.245    1.8957
   31.260    1.9379
   31.275    2.1590
   31.290    2.0011
   31.305    1.8641
   31.320    1.9379
   31.335    1.8325
   31.350    1.8536
   31.365    2.0011
   31.380    1.9800
   31.395    1.8431
   31.410    1.8009
   31.425    2.0748
   31.440    1.8431
   31.455    1.8325
   31.470    1.9589
   31.485    1.9379
   31.500    2.0116
   31.515    1.9589
   31.530    1.9379
   31.545    1.8220
   31.560    1.6746
   31.575    1.7483
   31.590    1.8536
   31.605    1.7483
   31.620    1.7378
   31.635    1.7904
   31.650    1.7378
   31.665    1.7378
   31.680    1.7483
   31.695    1.7588
   31.710    1.8852
   31.725    1.7799
   31.740    1.6851
   31.755    1.7588
   31.770    1.8536
   31.785    1.8115
   31.800    1.9168
   31.815    1.8536
   31.830    1.8325
   31.845    1.7694
   31.860    2.0116
   31.875    1.9273
   31.890    1.8431
   31.905    1.7272
   31.920    1.8325
   31.935    1.7904
   31.950    1.8536
   31.965    1.6746
   31.980    1.7272
   31.995    1.6114
   32.010    1.8009
   32.025    1.9063
   32.040    1.9695
   32.055    1.7483
   32.070    1.7167
   32.085    1.8115
   32.100    1.6430
   32.115    1.6430
   32.130    1.7799
   32.145    1.5587
   32.160    1.6114
   32.175    1.6746
   32.190    1.7588
   32.205    1.8536
   32.220    1.8957
   32.235    1.6114
   32.250    1.9063
   32.265    1.8009
   32.280    1.6956
   32.295    1.7167
   32.310    1.6640
   32.325    1.7378
   32.340    1.6114
   32.355    1.6008
   32.370    1.6746
   32.385    1.7799
   32.400    1.8852
   32.415    1.9695
   32.430    1.6430
   32.445    1.7483
   32.460    1.5798
   32.475    1.7694
   32.490    1.8115
   32.505    1.8220
   32.520    1.7272
   32.535    1.7694
   32.550    1.6324
   32.565    1.4218
   32.580    1.4955
   32.595    1.6956
   32.610    1.8431
   32.625    1.7062
   32.640    1.5798
   32.655    1.5798
   32.670    1.7272
   32.685    1.7904
   32.700    1.6640
   32.715    1.8957
   32.730    1.8009
   32.745    1.6746
   32.760    1.5903
   32.775    1.5903
   32.790    1.6324
   32.805    1.8641
   32.820    1.6746
   32.835    1.6956
   32.850    1.6640
   32.865    1.5482
   32.880    1.6219
   32.895    1.8536
   32.910    1.7799
   32.925    1.8431
   32.940    1.6114
   32.955    1.6114
   32.970    1.6535
   32.985    1.8220
   33.000    1.7272
   33.015    1.6430
   33.030    1.6535
   33.045    1.8220
   33.060    1.6219
   33.075    1.5692
   33.090    1.5271
   33.105    1.5587
   33.120    1.7062
   33.135    1.8220
   33.150    1.6535
   33.165    1.6324
   33.180    1.8536
   33.195    1.7272
   33.210    1.7272
   33.225    1.4323
   33.240    1.4850
   33.255    1.6535
   33.270    1.6535
   33.285    1.7272
   33.300    1.6535
   33.315    1.4955
   33.330    1.7588
   33.345    1.6535
   33.360    1.7799
   33.375    1.6324
   33.390    1.6640
   33.405    1.6430
   33.420    1.6746
   33.435    1.7694
   33.450    1.8852
   33.465    1.6430
   33.480    1.6008
   33.495    1.5482
   33.510    1.5482
   33.525    1.5587
   33.540    1.6956
   33.555    1.5798
   33.570    1.8009
   33.585    1.7062
   33.600    1.7588
   33.615    1.6851
   33.630    1.6640
   33.645    1.6956
   33.660    1.6008
   33.675    1.7062
   33.690    1.7588
   33.705    1.8747
   33.720    1.7799
   33.735    1.7167
   33.750    1.5692
   33.765    1.6851
   33.780    1.5271
   33.795    1.8431
   33.810    1.9379
   33.825    1.7062
   33.840    1.5692
   33.855    1.6640
   33.870    1.7272
   33.885    1.6851
   33.900    1.7483
   33.915    1.6851
   33.930    1.6008
   33.945    1.8852
   33.960    1.7378
   33.975    1.6008
   33.990    1.5271
   34.005    1.5798
   34.020    1.7588
   34.035    1.7799
   34.050    1.6851
   34.065    1.6008
   34.080    1.5271
   34.095    1.6219
   34.110    1.4007
   34.125    1.6114
   34.140    1.6535
   34.155    1.6219
   34.170    1.6640
   34.185    1.6956
   34.200    1.4850
   34.215    1.5798
   34.230    1.6535
   34.245    1.5692
   34.260    1.3270
   34.275    1.6324
   34.290    1.5166
   34.305    1.6008
   34.320    1.5587
   34.335    1.6219
   34.350    1.6956
   34.365    1.5903
   34.380    1.5692
   34.395    1.6746
   34.410    1.4534
   34.425    1.3165
   34.440    1.5271
   34.455    1.5692
   34.470    1.6430
   34.485    1.7588
   34.500    1.5271
   34.515    1.4955
   34.530    1.6008
   34.545    1.4218
   34.560    1.6219
   34.575    1.6008
   34.590    1.5377
   34.605    1.5903
   34.620    1.6535
   34.635    1.6535
   34.650    1.7378
   34.665    1.5061
   34.680    1.5061
   34.695    1.6851
   34.710    1.6640
   34.725    1.8325
   34.740    1.3797
   34.755    1.5482
   34.770    1.7062
   34.785    1.6746
   34.800    1.6430
   34.815    1.5587
   34.830    1.3165
   34.845    1.4429
   34.860    1.5271
   34.875    1.4218
   34.890    1.3481
   34.905    1.5271
   34.920    1.6008
   34.935    1.6219
   34.950    1.6324
   34.965    1.6956
   34.980    1.5587
   34.995    1.5692
   35.010    1.6324
   35.025    1.6324
   35.040    1.4639
   35.055    1.5587
   35.070    1.6640
   35.085    1.4850
   35.100    1.6114
   35.115    1.6008
   35.130    1.5692
   35.145    1.4007
   35.160    1.4955
   35.175    1.4218
   35.190    1.6219
   35.205    1.5692
   35.220    1.5798
   35.235    1.5903
   35.250    1.3902
   35.265    1.5061
   35.280    1.2428
   35.295    1.3165
   35.310    1.4323
   35.325    1.4745
   35.340    1.2849
   35.355    1.6324
   35.370    1.6008
   35.385    1.6219
   35.400    1.5903
   35.415    1.4429
   35.430    1.5798
   35.445    1.6219
   35.460    1.5903
   35.475    1.4113
   35.490    1.3797
   35.505    1.4639
   35.520    1.4955
   35.535    1.3481
   35.550    1.4955
   35.565    1.3586
   35.580    1.5166
   35.595    1.5061
   35.610    1.5166
   35.625    1.4745
   35.640    1.4850
   35.655    1.5798
   35.670    1.5271
   35.685    1.6219
   35.700    1.5166
   35.715    1.5587
   35.730    1.3902
   35.745    1.3797
   35.760    1.5587
   35.775    1.5166
   35.790    1.4113
   35.805    1.6219
   35.820    1.5798
   35.835    1.4639
   35.850    1.5692
   35.865    1.5166
   35.880    1.4745
   35.895    1.3902
   35.910    1.4639
   35.925    1.6430
   35.940    1.5271
   35.955    1.4955
   35.970    1.2849
   35.985    1.3902
   36.000    1.3481
   36.015    1.3586
   36.030    1.4323
   36.045    1.6219
   36.060    1.3902
   36.075    1.3060
   36.090    1.2849
   36.105    1.2954
   36.120    1.3691
   36.135    1.4113
   36.150    1.3481
   36.165    1.4955
   36.180    1.3691
   36.195    1.4323
   36.210    1.5587
   36.225    1.4218
   36.240    1.3902
   36.255    1.4113
   36.270    1.3691
   36.285    1.6114
   36.300    1.5166
   36.315    1.5587
   36.330    1.4534
   36.345    1.4850
   36.360    1.6324
   36.375    1.5587
   36.390    1.4007
   36.405    1.5271
   36.420    1.5377
   36.435    1.7062
   36.450    1.5482
   36.465    1.3586
   36.480    1.4113
   36.495    1.4955
   36.510    1.3797
   36.525    1.4007
   36.540    1.5377
   36.555    1.3586
   36.570    1.3481
   36.585    1.4639
   36.600    1.5587
   36.615    1.4850
   36.630    1.4218
   36.645    1.4218
   36.660    1.6008
   36.675    1.5587
   36.690    1.5377
   36.705    1.3691
   36.720    1.3270
   36.735    1.6535
   36.750    1.4534
   36.765    1.2849
   36.780    1.2849
   36.795    1.4429
   36.810    1.1901
   36.825    1.2217
   36.840    1.3797
   36.855    1.5377
   36.870    1.3797
   36.885    1.5377
   36.900    1.5692
   36.915    1.4534
   36.930    1.5798
   36.945    1.5377
   36.960    1.5061
   36.975    1.4218
   36.990    1.2638
   37.005    1.3902
   37.020    1.3797
   37.035    1.4639
   37.050    1.3270
   37.065    1.2533
   37.080    1.4850
   37.095    1.2217
   37.110    1.3165
   37.125    1.2638
   37.140    1.4113
   37.155    1.4429
   37.170    1.3902
   37.185    1.2954
   37.200    1.3797
   37.215    1.6008
   37.230    1.4113
   37.245    1.5271
   37.260    1.3902
   37.275    1.3902
   37.290    1.4218
   37.305    1.4955
   37.320    1.3586
   37.335    1.4639
   37.350    1.4850
   37.365    1.3586
   37.380    1.2744
   37.395    1.3375
   37.410    1.3481
   37.425    1.2112
   37.440    1.5271
   37.455    1.5271
   37.470    1.4113
   37.485    1.3797
   37.500    1.2533
   37.515    1.4323
   37.530    1.4955
   37.545    1.3481
   37.560    1.4007
   37.575    1.3902
   37.590    1.2006
   37.605    1.4007
   37.620    1.3586
   37.635    1.3165
   37.650    1.3060
   37.665    1.3060
   37.680    1.3481
   37.695    1.4534
   37.710    1.3586
   37.725    1.2533
   37.740    1.4218
   37.755    1.4007
   37.770    1.3270
   37.785    1.2744
   37.800    1.4850
   37.815    1.4007
   37.830    1.4113
   37.845    1.2638
   37.860    1.2638
   37.875    1.3586
   37.890    1.5377
   37.905    1.4007
   37.920    1.2849
   37.935    1.2006
   37.950    1.4429
   37.965    1.5798
   37.980    1.2428
   37.995    1.3797
   38.010    1.2849
   38.025    1.3797
   38.040    1.5271
   38.055    1.4007
   38.070    1.3691
   38.085    1.5377
   38.100    1.2954
   38.115    1.3902
   38.130    1.3797
   38.145    1.2638
   38.160    1.1480
   38.175    1.4218
   38.190    1.4534
   38.205    1.2533
   38.220    1.2428
   38.235    1.4113
   38.250    1.6114
   38.265    1.3270
   38.280    1.1901
   38.295    1.4323
   38.310    1.3165
   38.325    1.1585
   38.340    1.2638
   38.355    1.4429
   38.370    1.3270
   38.385    1.2428
   38.400    1.2428
   38.415    1.2112
   38.430    1.3902
   38.445    1.3165
   38.460    1.3060
   38.475    1.3165
   38.490    1.4007
   38.505    1.5271
   38.520    1.3586
   38.535    1.4113
   38.550    1.3270
   38.565    1.2533
   38.580    1.1690
   38.595    1.4639
   38.610    1.3375
   38.625    1.4113
   38.640    1.3691
   38.655    1.2533
   38.670    1.3586
   38.685    1.4113
   38.700    1.4955
   38.715    1.2954
   38.730    1.3270
   38.745    1.3586
   38.760    1.3270
   38.775    1.3270
   38.790    1.3691
   38.805    1.1796
   38.820    1.3270
   38.835    1.3375
   38.850    1.3586
   38.865    1.3060
   38.880    1.3797
   38.895    1.5377
   38.910    1.4955
   38.925    1.3060
   38.940    1.4113
   38.955    1.3691
   38.970    1.5692
   38.985    1.2744
   39.000    1.2533
   39.015    1.4639
   39.030    1.4745
   39.045    1.4745
   39.060    1.3797
   39.075    1.3481
   39.090    1.4007
   39.105    1.4429
   39.120    1.3902
   39.135    1.2954
   39.150    1.3691
   39.165    1.4429
   39.180    1.3797
   39.195    1.2954
   39.210    1.3270
   39.225    1.4007
   39.240    1.3060
   39.255    1.2428
   39.270    1.2638
   39.285    1.2533
   39.300    1.2533
   39.315    1.3165
   39.330    1.4218
   39.345    1.4323
   39.360    1.5587
   39.375    1.3375
   39.390    1.2533
   39.405    1.4218
   39.420    1.3691
   39.435    1.2006
   39.450    1.2533
   39.465    1.4113
   39.480    1.4113
   39.495    1.3060
   39.510    1.4429
   39.525    1.3060
   39.540    1.3797
   39.555    1.2638
   39.570    1.2849
   39.585    1.4850
   39.600    1.4007
   39.615    1.3586
   39.630    1.5166
   39.645    1.3060
   39.660    1.2744
   39.675    1.3902
   39.690    1.3586
   39.705    1.3060
   39.720    1.4323
   39.735    1.3797
   39.750    1.3586
   39.765    1.3902
   39.780    1.4323
   39.795    1.3375
   39.810    1.2533
   39.825    1.3902
   39.840    1.2533
   39.855    1.3797
   39.870    1.3481
   39.885    1.4113
   39.900    1.2638
   39.915    1.3691
   39.930    1.3165
   39.945    1.2112
   39.960    1.3481
   39.975    1.2744
   39.990    1.2954
