    1.500   23.3175
    1.515   23.2859
    1.530   23.3491
    1.545   23.6546
    1.560   23.3281
    1.575   22.8436
    1.590   22.2012
    1.605   21.8536
    1.620   21.5692
    1.635   21.2533
    1.650   22.0537
    1.665   21.2217
    1.680   20.8952
    1.695   20.2528
    1.710   20.6214
    1.725   20.2844
    1.740   21.1901
    1.755   20.5898
    1.770   20.4423
    1.785   20.2001
    1.800   20.0421
    1.815   19.8526
    1.830   19.5155
    1.845   19.3154
    1.860   19.5366
    1.875   19.2206
    1.890   19.0416
    1.905   19.0627
    1.920   18.4308
    1.935   18.9258
    1.950   19.1890
    1.965   18.9468
    1.980   18.6625
    1.995   18.1675
    2.010   18.2201
    2.025   18.4097
    2.040   18.5993
    2.055   18.4518
    2.070   18.6730
    2.085   18.1991
    2.100   18.5782
    2.115   17.5777
    2.130   18.3149
    2.145   18.2306
    2.160   18.2412
    2.175   17.8410
    2.190   17.6830
    2.205   17.6619
    2.220   17.7567
    2.235   18.1043
    2.250   18.7888
    2.265   18.5255
    2.280   18.0516
    2.295   18.5887
    2.310   18.6940
    2.325   18.7362
    2.340   17.9568
    2.355   18.4202
    2.370   18.4518
    2.385   18.3781
    2.400   19.1153
    2.415   18.8099
    2.430   19.1469
    2.445   18.8626
    2.460   18.1569
    2.475   18.9573
    2.490   19.8631
    2.505   20.3265
    2.520   19.6840
    2.535   20.5161
    2.550   20.0632
    2.565   20.3054
    2.580   19.8526
    2.595   20.4213
    2.610   20.9795
    2.625   20.6424
    2.640   21.4534
    2.655   21.4429
    2.670   21.7799
    2.685   21.9063
    2.700   21.8325
    2.715   22.2749
    2.730   22.3275
    2.745   22.3591
    2.760   22.7278
    2.775   23.6756
    2.790   24.0758
    2.805   24.5708
    2.820   25.1395
    2.835   24.6235
    2.850   25.8241
    2.865   26.0558
    2.880   26.3612
    2.895   26.7404
    2.910   26.8457
    2.925   27.0037
    2.940   28.8257
    2.955   28.7836
    2.970   28.6783
    2.985   30.2475
    3.000   29.6682
    3.015   31.5008
    3.030   31.9537
    3.045   33.1754
    3.060   33.2070
    3.075   35.2080
    3.090   35.1975
    3.105   35.9452
    3.120   35.9452
    3.135   36.7457
    3.150   38.9468
    3.165   40.1264
    3.180   41.3797
    3.195   42.8120
    3.210   44.5814
    3.225   45.2027
    3.240   46.9194
    3.255   48.7099
    3.270   50.5529
    3.285   52.8594
    3.300   54.5656
    3.315   56.0822
    3.330   58.0411
    3.345   61.7483
    3.360   64.6446
    3.375   68.1411
    3.390   71.7325
    3.405   74.2917
    3.420   77.1143
    3.435   80.1053
    3.450   83.5282
    3.465   85.9400
    3.480   86.3191
    3.495   85.3818
    3.510   81.8957
    3.525   77.5461
    3.540   71.6377
    3.555   65.7188
    3.570   59.4945
    3.585   54.8394
    3.600   51.6377
    3.615   47.9200
    3.630   46.4244
    3.645   44.2022
    3.660   44.2127
    3.675   43.8652
    3.690   43.8231
    3.705   43.8863
    3.720   44.2759
    3.735   43.7704
    3.750   43.7915
    3.765   45.8136
    3.780   45.7504
    3.795   47.0563
    3.810   47.6040
    3.825   47.5724
    3.840   48.5308
    3.855   47.8462
    3.870   47.8041
    3.885   46.6877
    3.900   46.1927
    3.915   43.9600
    3.930   43.8020
    3.945   42.3275
    3.960   38.8415
    3.975   37.9989
    3.990   35.7557
    4.005   32.7225
    4.020   29.8368
    4.035   28.1727
    4.050   25.7293
    4.065   23.7177
    4.080   22.2328
    4.095   20.5477
    4.110   19.4945
    4.125   18.7888
    4.140   17.7462
    4.155   16.7773
    4.170   15.7346
    4.185   15.5240
    4.200   14.6182
    4.215   13.6177
    4.230   13.7335
    4.245   13.2912
    4.260   12.7225
    4.275   12.2907
    4.290   12.0274
    4.305   11.8378
    4.320   11.3007
    4.335   11.1216
    4.350   10.7846
    4.365   10.8268
    4.380   10.6161
    4.395   10.2475
    4.410   10.3633
    4.425   10.0685
    4.440    9.9842
    4.455   10.3633
    4.470    9.6261
    4.485    9.4787
    4.500    9.3628
    4.515    9.1101
    4.530    9.2680
    4.545    9.0047
    4.560    9.0469
    4.575    9.0995
    4.590    8.8678
    4.605    8.7414
    4.620    8.8784
    4.635    8.5097
    4.650    9.1206
    4.665    8.1938
    4.680    8.4887
    4.695    8.7941
    4.710    8.8889
    4.725    8.8046
    4.740    8.1622
    4.755    8.0358
    4.770    8.3939
    4.785    7.6567
    4.800    7.7830
    4.815    7.9937
    4.830    8.0674
    4.845    7.6356
    4.860    7.7093
    4.875    8.1622
    4.890    8.0569
    4.905    7.6145
    4.920    8.1517
    4.935    7.5935
    4.950    8.2780
    4.965    7.7304
    4.980    7.6567
    4.995    7.9200
    5.010    7.6461
    5.025    7.6672
    5.040    7.5724
    5.055    7.5619
    5.070    7.7936
    5.085    7.5197
    5.100    7.9410
    5.115    7.8778
    5.130    7.9516
    5.145    7.7093
    5.160    7.9094
    5.175    7.4355
    5.190    7.4776
    5.205    7.7514
    5.220    8.0990
    5.235    7.6883
    5.250    7.8778
    5.265    7.7409
    5.280    7.6461
    5.295    7.4566
    5.310    7.6145
    5.325    7.4250
    5.340    7.5408
    5.355    7.5724
    5.370    7.3618
    5.385    7.6567
    5.400    7.3618
    5.415    7.3723
    5.430    7.5619
    5.445    7.3723
    5.460    7.3196
    5.475    7.0774
    5.490    7.5092
    5.505    7.2670
    5.520    7.5408
    5.535    7.0879
    5.550    6.9721
    5.565    7.4671
    5.580    7.3618
    5.595    7.2775
    5.610    6.8352
    5.625    6.9932
    5.640    7.0037
    5.655    7.0669
    5.670    7.1511
    5.685    6.6667
    5.700    7.0458
    5.715    7.3723
    5.730    7.0248
    5.745    6.8246
    5.760    6.5192
    5.775    6.8984
    5.790    6.7404
    5.805    7.1722
    5.820    6.9616
    5.835    6.7404
    5.850    7.1406
    5.865    7.1722
    5.880    6.7299
    5.895    7.1827
    5.910    6.8562
    5.925    7.0985
    5.940    7.2565
    5.955    7.0142
    5.970    6.7720
    5.985    7.2775
    6.000    7.0458
    6.015    7.1722
    6.030    6.8984
    6.045    6.7193
    6.060    6.7825
    6.075    6.9932
    6.090    7.4039
    6.105    6.9826
    6.120    7.0142
    6.135    7.1090
    6.150    6.9616
    6.165    6.7404
    6.180    7.0037
    6.195    7.0563
    6.210    7.4460
    6.225    7.4039
    6.240    7.6040
    6.255    7.5092
    6.270    7.6040
    6.285    7.7093
    6.300    7.8041
    6.315    7.5935
    6.330    7.2986
    6.345    7.0985
    6.360    7.3618
    6.375    7.6777
    6.390    7.6567
    6.405    8.0674
    6.420    7.6883
    6.435    7.7514
    6.450    8.0779
    6.465    7.4460
    6.480    7.9200
    6.495    7.7725
    6.510    7.9516
    6.525    8.0147
    6.540    8.3412
    6.555    8.3728
    6.570    8.3623
    6.585    8.8573
    6.600    9.0258
    6.615    9.0047
    6.630    8.8046
    6.645    9.0574
    6.660    9.5313
    6.675   10.0474
    6.690    9.7104
    6.705    9.8052
    6.720   10.1211
    6.735   10.2370
    6.750   10.9215
    6.765   10.9426
    6.780   11.7536
    6.795   11.6166
    6.810   12.0169
    6.825   12.6593
    6.840   13.2596
    6.855   13.7862
    6.870   14.1759
    6.885   15.2291
    6.900   15.5450
    6.915   16.1664
    6.930   17.0511
    6.945   18.0727
    6.960   17.9884
    6.975   18.1148
    6.990   18.2306
    7.005   17.0511
    7.020   16.5140
    7.035   16.2296
    7.050   15.3133
    7.065   14.2285
    7.080   14.3444
    7.095   13.1754
    7.110   12.4803
    7.125   11.9853
    7.140   11.6798
    7.155   11.6693
    7.170   11.0058
    7.185   11.3533
    7.200   11.2796
    7.215   10.9847
    7.230   11.4587
    7.245   11.5640
    7.260   11.7430
    7.275   11.7009
    7.290   12.7120
    7.305   12.7225
    7.320   13.1438
    7.335   13.2912
    7.350   14.1338
    7.365   14.6393
    7.380   15.5977
    7.395   18.4729
    7.410   19.6735
    7.425   19.7578
    7.440   21.1480
    7.455   21.9484
    7.470   21.2954
    7.485   19.4945
    7.500   15.4186
    7.515   12.4908
    7.530   10.1632
    7.545   10.1843
    7.560   10.2896
    7.575   10.5951
    7.590   10.7004
    7.605   10.6793
    7.620   11.0585
    7.635   11.5534
    7.650   12.0274
    7.665   12.0063
    7.680   12.2801
    7.695   12.3960
    7.710   12.6382
    7.725   13.7546
    7.740   14.0179
    7.755   13.5440
    7.770   13.6072
    7.785   14.4076
    7.800   14.4918
    7.815   14.5866
    7.830   14.7025
    7.845   14.7025
    7.860   14.4708
    7.875   13.8599
    7.890   14.4602
    7.905   14.2285
    7.920   13.7862
    7.935   13.4281
    7.950   12.6382
    7.965   12.2486
    7.980   12.8699
    7.995   12.4171
    8.010   11.5008
    8.025   10.8162
    8.040   10.9321
    8.055   10.2580
    8.070   10.1527
    8.085   10.1211
    8.100    9.7841
    8.115    9.9737
    8.130    9.7314
    8.145    9.5208
    8.160    9.2575
    8.175    9.1627
    8.190    8.9731
    8.205    8.8889
    8.220    9.0995
    8.235    9.4155
    8.250    9.0469
    8.265    8.8994
    8.280    8.7309
    8.295    9.0153
    8.310    8.9731
    8.325    8.7204
    8.340    9.2470
    8.355    9.5103
    8.370    9.3734
    8.385    9.7736
    8.400   10.1632
    8.415   10.3949
    8.430   10.8899
    8.445   12.1854
    8.460   12.0906
    8.475   12.5329
    8.490   12.3117
    8.505   12.1011
    8.520   11.4797
    8.535    9.7736
    8.550    8.8678
    8.565    8.0674
    8.580    7.4144
    8.595    7.0985
    8.610    6.9616
    8.625    6.9194
    8.640    6.9510
    8.655    6.8141
    8.670    6.8141
    8.685    6.5613
    8.700    6.7299
    8.715    6.5403
    8.730    6.8562
    8.745    6.6877
    8.760    7.0353
    8.775    6.7193
    8.790    6.3823
    8.805    6.3612
    8.820    6.7930
    8.835    6.6877
    8.850    6.3402
    8.865    6.6667
    8.880    6.5087
    8.895    6.5929
    8.910    6.8773
    8.925    6.8457
    8.940    6.6983
    8.955    6.8246
    8.970    6.6351
    8.985    6.3823
    9.000    6.4666
    9.015    6.3402
    9.030    6.6351
    9.045    6.7404
    9.060    6.1295
    9.075    6.3086
    9.090    6.4666
    9.105    6.5403
    9.120    6.7930
    9.135    6.3296
    9.150    6.7825
    9.165    6.7193
    9.180    6.4350
    9.195    6.7299
    9.210    6.7720
    9.225    6.6983
    9.240    6.2981
    9.255    6.4139
    9.270    6.3296
    9.285    6.2875
    9.300    6.2243
    9.315    6.6035
    9.330    6.5298
    9.345    6.4666
    9.360    6.7088
    9.375    6.9616
    9.390    6.6351
    9.405    6.6456
    9.420    6.6877
    9.435    6.4666
    9.450    6.3612
    9.465    6.9300
    9.480    6.5403
    9.495    6.8878
    9.510    6.5403
    9.525    6.5508
    9.540    6.7193
    9.555    6.2665
    9.570    6.4982
    9.585    6.9300
    9.600    6.3191
    9.615    6.1717
    9.630    6.7404
    9.645    6.5824
    9.660    6.4771
    9.675    6.2349
    9.690    6.1717
    9.705    6.4034
    9.720    6.5719
    9.735    6.6772
    9.750    6.5824
    9.765    6.4139
    9.780    6.2349
    9.795    6.3402
    9.810    6.1717
    9.825    6.0874
    9.840    6.5403
    9.855    6.3086
    9.870    6.2559
    9.885    6.6983
    9.900    6.3296
    9.915    6.6351
    9.930    6.3507
    9.945    6.2138
    9.960    6.6351
    9.975    6.4560
    9.990    6.0769
   10.005    6.1717
   10.020    6.4982
   10.035    6.7088
   10.050    6.3718
   10.065    6.4455
   10.080    6.7720
   10.095    6.4034
   10.110    6.3718
   10.125    6.3402
   10.140    6.3296
   10.155    6.4982
   10.170    6.2559
   10.185    6.4455
   10.200    6.5298
   10.215    6.2981
   10.230    6.5403
   10.245    6.9721
   10.260    6.2559
   10.275    6.4666
   10.290    6.7509
   10.305    6.6983
   10.320    6.4455
   10.335    6.5824
   10.350    6.5298
   10.365    6.5613
   10.380    6.5824
   10.395    6.6456
   10.410    6.7615
   10.425    6.8562
   10.440    6.6140
   10.455    6.6561
   10.470    6.7825
   10.485    6.6140
   10.500    6.6561
   10.515    6.7825
   10.530    6.6245
   10.545    6.4455
   10.560    6.7193
   10.575    6.6456
   10.590    6.4771
   10.605    6.7615
   10.620    6.6983
   10.635    6.5929
   10.650    6.5824
   10.665    6.3296
   10.680    6.2454
   10.695    6.5613
   10.710    6.9300
   10.725    6.7088
   10.740    6.6667
   10.755    6.5298
   10.770    6.6667
   10.785    6.2138
   10.800    6.2981
   10.815    6.8352
   10.830    6.7299
   10.845    6.7193
   10.860    6.3296
   10.875    6.2981
   10.890    6.9826
   10.905    6.8457
   10.920    6.7509
   10.935    6.6983
   10.950    6.5087
   10.965    6.6035
   10.980    6.8668
   10.995    6.9932
   11.010    6.9932
   11.025    6.8036
   11.040    6.8984
   11.055    6.9510
   11.070    6.9616
   11.085    7.0458
   11.100    7.0353
   11.115    7.4355
   11.130    7.2775
   11.145    7.5619
   11.160    7.9937
   11.175    7.8989
   11.190    8.0569
   11.205    8.1727
   11.220    8.4255
   11.235    8.8678
   11.250    9.4365
   11.265   10.2791
   11.280   10.7846
   11.295   10.6688
   11.310   10.7530
   11.325   10.5213
   11.340   10.1106
   11.355    8.9942
   11.370    8.1727
   11.385    7.0142
   11.400    6.3507
   11.415    6.5929
   11.430    6.6561
   11.445    6.8773
   11.460    7.0669
   11.475    7.0985
   11.490    6.5192
   11.505    6.5508
   11.520    7.0985
   11.535    6.9721
   11.550    6.7720
   11.565    6.7193
   11.580    7.0142
   11.595    7.1301
   11.610    7.4776
   11.625    7.0879
   11.640    6.5929
   11.655    7.1406
   11.670    7.0248
   11.685    6.8984
   11.700    6.7825
   11.715    6.7299
   11.730    7.1933
   11.745    6.9089
   11.760    7.1722
   11.775    7.0458
   11.790    7.0669
   11.805    7.1511
   11.820    7.0985
   11.835    7.1090
   11.850    7.1617
   11.865    6.7825
   11.880    6.7720
   11.895    6.6140
   11.910    7.0563
   11.925    6.9300
   11.940    7.0879
   11.955    6.8773
   11.970    6.4244
   11.985    6.5192
   12.000    6.8984
   12.015    6.8668
   12.030    6.5298
   12.045    6.8562
   12.060    6.4666
   12.075    6.7299
   12.090    6.6035
   12.105    6.5403
   12.120    6.4771
   12.135    6.7193
   12.150    6.5403
   12.165    6.5824
   12.180    6.4560
   12.195    6.6561
   12.210    6.4666
   12.225    6.4982
   12.240    7.0037
   12.255    6.9616
   12.270    6.6772
   12.285    7.0563
   12.300    6.7404
   12.315    6.4455
   12.330    6.6035
   12.345    6.9826
   12.360    6.3928
   12.375    6.9089
   12.390    6.3086
   12.405    6.1190
   12.420    6.4982
   12.435    6.3507
   12.450    6.3086
   12.465    6.4666
   12.480    6.4771
   12.495    6.4455
   12.510    6.3086
   12.525    6.3191
   12.540    6.2243
   12.555    6.4350
   12.570    6.4244
   12.585    6.4244
   12.600    6.1927
   12.615    6.2243
   12.630    6.2559
   12.645    6.1506
   12.660    6.3718
   12.675    6.2770
   12.690    6.5824
   12.705    6.4876
   12.720    6.3296
   12.735    6.8141
   12.750    6.7509
   12.765    6.5403
   12.780    6.6351
   12.795    6.4139
   12.810    6.5719
   12.825    6.6140
   12.840    6.9616
   12.855    7.1195
   12.870    6.5613
   12.885    6.6772
   12.900    6.7193
   12.915    6.2033
   12.930    6.8246
   12.945    6.5087
   12.960    6.6772
   12.975    6.5613
   12.990    7.0353
   13.005    7.0037
   13.020    6.5929
   13.035    6.4982
   13.050    6.9721
   13.065    7.0142
   13.080    7.0037
   13.095    6.5824
   13.110    6.5929
   13.125    6.6351
   13.140    6.6667
   13.155    6.5824
   13.170    6.6877
   13.185    6.3296
   13.200    6.3507
   13.215    6.8036
   13.230    6.5824
   13.245    6.5613
   13.260    6.2243
   13.275    6.4350
   13.290    6.5613
   13.305    6.4350
   13.320    6.6351
   13.335    6.6456
   13.350    6.4560
   13.365    6.3928
   13.380    6.3402
   13.395    6.3612
   13.410    7.0353
   13.425    6.3507
   13.440    6.6351
   13.455    6.4666
   13.470    6.3191
   13.485    6.2981
   13.500    6.5403
   13.515    6.6667
   13.530    6.4666
   13.545    6.8773
   13.560    6.5403
   13.575    6.9194
   13.590    6.3718
   13.605    6.5613
   13.620    6.6772
   13.635    6.7615
   13.650    6.3718
   13.665    6.6351
   13.680    6.4666
   13.695    6.1927
   13.710    5.9926
   13.725    6.2665
   13.740    6.4455
   13.755    6.4455
   13.770    6.4139
   13.785    6.4139
   13.800    6.3086
   13.815    6.0242
   13.830    6.1822
   13.845    6.4666
   13.860    6.2559
   13.875    6.1506
   13.890    6.3191
   13.905    6.4034
   13.920    6.3928
   13.935    6.2243
   13.950    6.0769
   13.965    6.2665
   13.980    6.2243
   13.995    6.0664
   14.010    6.3191
   14.025    7.0669
   14.040    6.6140
   14.055    6.1295
   14.070    6.2770
   14.085    6.3823
   14.100    6.2875
   14.115    6.6456
   14.130    6.6245
   14.145    6.2875
   14.160    6.6140
   14.175    6.6456
   14.190    6.6983
   14.205    6.4034
   14.220    6.1506
   14.235    6.1611
   14.250    6.1822
   14.265    6.3402
   14.280    6.5824
   14.295    6.1717
   14.310    6.2033
   14.325    6.1506
   14.340    6.4560
   14.355    6.4244
   14.370    6.4139
   14.385    6.3928
   14.400    6.0348
   14.415    6.4666
   14.430    6.0979
   14.445    6.6983
   14.460    6.1927
   14.475    6.2665
   14.490    6.5613
   14.505    6.3296
   14.520    6.3928
   14.535    6.1822
   14.550    6.2981
   14.565    6.0558
   14.580    6.4034
   14.595    6.6667
   14.610    6.6140
   14.625    6.4982
   14.640    6.5192
   14.655    6.3296
   14.670    6.2875
   14.685    6.4139
   14.700    6.3086
   14.715    7.0458
   14.730    6.6456
   14.745    6.5087
   14.760    6.3191
   14.775    6.3296
   14.790    6.1401
   14.805    6.3296
   14.820    6.6983
   14.835    6.6561
   14.850    6.6351
   14.865    6.5508
   14.880    6.4244
   14.895    6.2981
   14.910    6.7930
   14.925    6.8352
   14.940    6.4350
   14.955    6.4771
   14.970    6.6456
   14.985    6.5087
   15.000    6.5298
   15.015    6.5298
   15.030    6.6351
   15.045    6.6140
   15.060    6.0137
   15.075    6.1295
   15.090    6.4560
   15.105    6.5719
   15.120    6.3612
   15.135    6.4666
   15.150    6.2981
   15.165    6.1822
   15.180    6.5824
   15.195    5.8873
   15.210    6.4666
   15.225    6.4666
   15.240    6.8141
   15.255    6.4034
   15.270    6.4666
   15.285    6.2349
   15.300    6.2454
   15.315    6.3086
   15.330    6.4350
   15.345    6.4560
   15.360    6.8246
   15.375    6.5403
   15.390    6.8984
   15.405    6.9194
   15.420    6.3402
   15.435    6.6035
   15.450    6.8352
   15.465    6.9300
   15.480    7.3196
   15.495    7.0879
   15.510    7.3196
   15.525    6.5824
   15.540    6.8668
   15.555    7.0985
   15.570    6.7615
   15.585    6.3612
   15.600    6.3928
   15.615    6.3402
   15.630    6.5403
   15.645    6.6456
   15.660    6.4139
   15.675    6.3296
   15.690    6.6245
   15.705    6.7193
   15.720    6.4244
   15.735    6.5613
   15.750    6.4982
   15.765    6.4350
   15.780    6.7615
   15.795    6.5613
   15.810    6.3928
   15.825    6.3612
   15.840    6.4139
   15.855    6.6140
   15.870    6.4455
   15.885    6.2875
   15.900    6.6035
   15.915    6.4350
   15.930    6.8036
   15.945    6.7825
   15.960    6.4666
   15.975    6.6456
   15.990    6.2981
   16.005    6.3402
   16.020    6.2875
   16.035    6.2665
   16.050    6.4034
   16.065    6.3507
   16.080    6.6140
   16.095    6.3086
   16.110    6.3718
   16.125    6.2559
   16.140    6.4876
   16.155    6.2770
   16.170    5.9505
   16.185    6.2454
   16.200    6.4666
   16.215    6.2454
   16.230    6.5087
   16.245    6.3612
   16.260    6.6561
   16.275    6.3928
   16.290    6.1506
   16.305    6.5613
   16.320    6.1506
   16.335    6.2454
   16.350    6.2770
   16.365    6.0664
   16.380    6.1190
   16.395    6.2454
   16.410    6.4350
   16.425    6.3086
   16.440    5.9610
   16.455    6.1506
   16.470    6.3718
   16.485    6.4666
   16.500    6.4350
   16.515    6.3612
   16.530    6.2138
   16.545    6.7404
   16.560    6.6351
   16.575    6.4034
   16.590    6.1401
   16.605    6.5403
   16.620    6.4982
   16.635    6.2349
   16.650    6.4666
   16.665    6.6351
   16.680    6.6772
   16.695    6.9300
   16.710    6.3612
   16.725    6.3823
   16.740    6.6035
   16.755    6.7193
   16.770    6.6667
   16.785    6.6245
   16.800    6.4350
   16.815    6.4350
   16.830    7.0458
   16.845    6.6140
   16.860    6.2665
   16.875    6.2875
   16.890    6.1295
   16.905    6.4139
   16.920    6.2770
   16.935    6.3191
   16.950    6.6245
   16.965    6.4034
   16.980    6.4666
   16.995    6.6667
   17.010    6.5613
   17.025    6.7615
   17.040    6.5508
   17.055    6.7509
   17.070    6.5087
   17.085    6.5087
   17.100    6.3191
   17.115    6.2033
   17.130    6.2243
   17.145    6.7193
   17.160    6.6561
   17.175    6.6245
   17.190    6.3507
   17.205    6.2875
   17.220    6.3928
   17.235    6.4034
   17.250    6.4560
   17.265    6.4982
   17.280    6.2770
   17.295    6.0769
   17.310    6.1401
   17.325    6.5192
   17.340    6.1190
   17.355    6.4034
   17.370    6.5929
   17.385    6.3507
   17.400    6.4560
   17.415    6.4034
   17.430    6.5192
   17.445    6.2349
   17.460    6.3402
   17.475    6.2981
   17.490    6.4876
   17.505    6.4982
   17.520    6.7193
   17.535    6.3402
   17.550    6.7299
   17.565    6.6561
   17.580    6.5719
   17.595    6.6245
   17.610    6.9300
   17.625    6.7720
   17.640    6.2454
   17.655    6.9721
   17.670    6.9405
   17.685    6.2981
   17.700    6.6561
   17.715    6.5508
   17.730    6.7509
   17.745    6.1506
   17.760    6.3612
   17.775    6.2875
   17.790    6.3086
   17.805    6.2981
   17.820    5.9716
   17.835    6.1927
   17.850    6.4350
   17.865    6.4034
   17.880    6.2665
   17.895    6.8668
   17.910    6.5403
   17.925    6.1822
   17.940    6.7930
   17.955    6.9089
   17.970    6.4244
   17.985    6.4455
   18.000    6.4244
   18.015    6.8246
   18.030    6.8457
   18.045    6.7930
   18.060    6.1717
   18.075    6.7930
   18.090    6.6561
   18.105    6.2559
   18.120    6.2665
   18.135    6.9194
   18.150    6.4982
   18.165    6.3612
   18.180    6.3296
   18.195    6.3402
   18.210    6.4139
   18.225    6.3928
   18.240    6.7720
   18.255    6.4350
   18.270    6.3086
   18.285    6.5192
   18.300    6.4139
   18.315    6.0137
   18.330    6.1401
   18.345    6.5824
   18.360    6.6456
   18.375    6.6877
   18.390    6.1822
   18.405    6.3612
   18.420    6.4876
   18.435    6.9194
   18.450    6.4244
   18.465    6.5403
   18.480    6.7193
   18.495    6.5719
   18.510    6.1401
   18.525    6.8352
   18.540    6.2559
   18.555    6.5403
   18.570    6.6983
   18.585    6.6140
   18.600    6.4560
   18.615    6.7825
   18.630    6.6351
   18.645    6.8457
   18.660    6.3402
   18.675    6.4350
   18.690    6.8457
   18.705    6.5824
   18.720    6.6877
   18.735    6.4034
   18.750    6.5719
   18.765    6.5613
   18.780    6.5403
   18.795    6.8668
   18.810    7.0669
   18.825    6.5824
   18.840    6.3718
   18.855    6.6772
   18.870    6.4139
   18.885    6.2981
   18.900    6.4034
   18.915    6.3928
   18.930    6.4666
   18.945    6.0664
   18.960    6.0242
   18.975    6.2243
   18.990    6.6877
   19.005    6.9089
   19.020    6.8457
   19.035    7.0037
   19.050    6.3612
   19.065    6.5508
   19.080    6.8562
   19.095    6.4034
   19.110    6.3718
   19.125    6.5929
   19.140    6.8457
   19.155    6.9194
   19.170    6.5508
   19.185    6.6983
   19.200    6.5087
   19.215    6.6667
   19.230    6.3507
   19.245    6.5824
   19.260    6.2770
   19.275    6.3402
   19.290    6.8246
   19.305    6.6877
   19.320    6.8773
   19.335    6.9089
   19.350    6.4455
   19.365    6.4771
   19.380    6.4560
   19.395    6.5613
   19.410    6.9300
   19.425    7.0774
   19.440    6.6351
   19.455    6.5298
   19.470    6.7299
   19.485    6.9616
   19.500    6.8352
   19.515    6.4350
   19.530    6.5192
   19.545    6.7404
   19.560    6.5298
   19.575    6.5824
   19.590    6.4560
   19.605    6.8352
   19.620    6.6140
   19.635    6.5929
   19.650    6.3823
   19.665    6.5929
   19.680    6.5403
   19.695    7.0248
   19.710    7.0563
   19.725    6.6667
   19.740    6.6245
   19.755    7.1406
   19.770    6.4350
   19.785    6.6667
   19.800    6.8773
   19.815    6.6983
   19.830    6.6140
   19.845    6.8668
   19.860    6.7404
   19.875    6.8773
   19.890    6.8773
   19.905    6.8352
   19.920    6.9405
   19.935    6.8984
   19.950    6.4771
   19.965    7.0774
   19.980    6.7615
   19.995    7.2670
   20.010    7.1511
   20.025    6.8562
   20.040    6.9510
   20.055    6.7615
   20.070    7.4355
   20.085    7.0142
   20.100    7.1511
   20.115    7.2670
   20.130    7.2143
   20.145    7.1406
   20.160    7.0142
   20.175    6.9510
   20.190    6.9510
   20.205    7.2459
   20.220    7.1827
   20.235    7.0669
   20.250    7.2459
   20.265    7.2249
   20.280    7.1722
   20.295    6.9510
   20.310    7.3828
   20.325    7.1617
   20.340    7.2565
   20.355    6.8141
   20.370    6.8246
   20.385    7.0142
   20.400    6.8036
   20.415    6.9089
   20.430    6.6983
   20.445    6.9510
   20.460    7.1722
   20.475    6.9089
   20.490    6.8246
   20.505    7.1617
   20.520    7.3723
   20.535    7.4039
   20.550    6.9510
   20.565    7.2038
   20.580    6.8246
   20.595    7.0458
   20.610    7.2670
   20.625    7.0353
   20.640    6.4560
   20.655    6.4876
   20.670    6.7404
   20.685    6.6667
   20.700    6.5719
   20.715    6.8352
   20.730    6.9932
   20.745    6.8036
   20.760    6.7299
   20.775    6.4560
   20.790    6.8141
   20.805    7.0037
   20.820    6.7299
   20.835    7.0142
   20.850    7.0985
   20.865    7.2354
   20.880    7.1195
   20.895    6.8141
   20.910    7.4250
   20.925    7.3618
   20.940    7.0563
   20.955    6.9405
   20.970    6.9721
   20.985    6.9510
   21.000    6.8352
   21.015    6.9194
   21.030    7.2038
   21.045    7.0458
   21.060    7.0353
   21.075    7.4566
   21.090    7.2459
   21.105    6.7299
   21.120    6.8141
   21.135    6.8036
   21.150    7.0142
   21.165    6.9194
   21.180    6.7720
   21.195    7.3302
   21.210    7.0669
   21.225    6.9300
   21.240    7.1406
   21.255    6.7193
   21.270    7.2459
   21.285    7.1195
   21.300    7.2038
   21.315    7.2354
   21.330    6.9826
   21.345    6.9405
   21.360    7.0563
   21.375    7.1090
   21.390    7.1195
   21.405    6.9721
   21.420    7.1301
   21.435    7.6672
   21.450    7.3091
   21.465    6.8878
   21.480    7.0774
   21.495    7.1301
   21.510    7.1195
   21.525    6.7088
   21.540    7.1301
   21.555    7.4987
   21.570    7.3512
   21.585    7.3091
   21.600    6.9932
   21.615    6.7720
   21.630    7.0669
   21.645    6.7299
   21.660    7.0669
   21.675    7.0774
   21.690    6.7193
   21.705    7.0142
   21.720    7.2459
   21.735    7.0985
   21.750    7.2459
   21.765    7.3934
   21.780    7.0985
   21.795    6.7825
   21.810    6.9300
   21.825    7.2249
   21.840    7.3512
   21.855    7.2459
   21.870    6.7509
   21.885    6.8352
   21.900    6.5613
   21.915    6.7930
   21.930    6.9826
   21.945    7.0353
   21.960    7.4355
   21.975    7.2986
   21.990    7.2143
   22.005    7.1406
   22.020    6.7299
   22.035    6.4666
   22.050    7.1722
   22.065    7.0985
   22.080    6.8773
   22.095    7.1933
   22.110    6.9089
   22.125    6.6140
   22.140    7.1617
   22.155    6.9932
   22.170    7.2459
   22.185    7.6145
   22.200    7.2249
   22.215    7.1722
   22.230    6.8984
   22.245    6.9089
   22.260    7.2986
   22.275    6.9616
   22.290    7.2038
   22.305    7.3934
   22.320    7.2249
   22.335    7.1195
   22.350    7.2986
   22.365    7.4671
   22.380    7.1617
   22.395    6.9932
   22.410    6.9616
   22.425    7.1090
   22.440    6.7825
   22.455    7.4460
   22.470    7.2459
   22.485    7.2143
   22.500    7.0669
   22.515    7.2038
   22.530    7.3828
   22.545    6.9616
   22.560    7.0669
   22.575    7.3091
   22.590    7.3618
   22.605    7.4882
   22.620    7.2459
   22.635    7.8568
   22.650    7.3091
   22.665    7.2249
   22.680    7.1195
   22.695    7.1827
   22.710    7.3302
   22.725    7.8462
   22.740    7.6777
   22.755    7.2670
   22.770    7.0142
   22.785    7.4566
   22.800    7.1301
   22.815    7.1722
   22.830    7.3302
   22.845    6.8773
   22.860    7.1406
   22.875    6.8246
   22.890    7.2459
   22.905    7.2565
   22.920    7.0037
   22.935    6.8141
   22.950    7.4039
   22.965    7.0669
   22.980    7.4882
   22.995    7.2354
   23.010    7.4250
   23.025    7.3196
   23.040    6.8773
   23.055    6.3191
   23.070    6.9616
   23.085    7.2986
   23.100    6.9616
   23.115    6.9616
   23.130    7.2038
   23.145    6.3718
   23.160    6.7088
   23.175    7.0669
   23.190    7.3196
   23.205    6.9616
   23.220    6.9405
   23.235    7.1301
   23.250    6.6772
   23.265    7.1511
   23.280    6.8773
   23.295    6.7088
   23.310    6.6456
   23.325    6.4244
   23.340    6.9089
   23.355    7.1090
   23.370    7.1933
   23.385    6.8246
   23.400    6.8668
   23.415    6.4982
   23.430    6.8562
   23.445    6.7720
   23.460    6.6245
   23.475    6.6140
   23.490    6.6561
   23.505    6.9721
   23.520    7.0037
   23.535    6.7193
   23.550    6.5824
   23.565    6.7088
   23.580    7.0669
   23.595    6.6667
   23.610    6.7404
   23.625    6.8036
   23.640    6.7193
   23.655    6.6772
   23.670    6.6983
   23.685    6.7193
   23.700    6.8141
   23.715    6.6772
   23.730    7.0563
   23.745    7.0985
   23.760    6.9194
   23.775    6.7509
   23.790    6.7088
   23.805    6.4982
   23.820    6.5824
   23.835    6.4455
   23.850    6.5824
   23.865    6.3718
   23.880    6.4666
   23.895    6.9089
   23.910    6.8984
   23.925    7.1406
   23.940    7.1195
   23.955    6.8562
   23.970    6.9089
   23.985    6.5087
   24.000    6.7509
   24.015    6.6983
   24.030    7.0353
   24.045    7.4882
   24.060    7.0669
   24.075    6.9826
   24.090    6.6667
   24.105    6.8668
   24.120    6.8562
   24.135    6.9089
   24.150    6.9616
   24.165    7.0248
   24.180    6.7509
   24.195    6.3718
   24.210    6.7720
   24.225    7.1301
   24.240    6.8457
   24.255    6.3402
   24.270    6.7299
   24.285    6.8457
   24.300    6.4666
   24.315    6.4771
   24.330    6.7825
   24.345    6.5403
   24.360    6.9300
   24.375    6.8457
   24.390    7.0458
   24.405    6.9826
   24.420    6.9826
   24.435    7.4250
   24.450    7.3196
   24.465    7.6672
   24.480    7.7620
   24.495    7.6567
   24.510    7.9200
   24.525    7.5197
   24.540    7.4566
   24.555    7.4987
   24.570    7.7199
   24.585    7.4776
   24.600    7.5303
   24.615    7.4671
   24.630    6.8878
   24.645    7.0248
   24.660    7.0248
   24.675    6.8036
   24.690    7.0353
   24.705    6.4771
   24.720    6.6561
   24.735    6.9194
   24.750    6.7299
   24.765    6.8878
   24.780    6.7509
   24.795    6.7615
   24.810    6.7615
   24.825    6.7193
   24.840    6.5087
   24.855    6.8457
   24.870    6.5824
   24.885    6.8352
   24.900    6.5508
   24.915    6.5403
   24.930    6.8878
   24.945    6.7193
   24.960    6.9194
   24.975    6.7825
   24.990    6.8457
   25.005    6.5613
   25.020    6.7615
   25.035    6.5719
   25.050    6.4771
   25.065    6.6983
   25.080    6.4666
   25.095    6.4034
   25.110    6.3507
   25.125    6.2349
   25.140    6.3191
   25.155    6.3928
   25.170    6.3402
   25.185    6.3191
   25.200    6.3718
   25.215    6.4771
   25.230    6.3086
   25.245    6.3612
   25.260    6.8668
   25.275    6.8773
   25.290    6.5508
   25.305    6.5824
   25.320    6.7720
   25.335    6.5298
   25.350    6.8773
   25.365    6.8352
   25.380    6.7509
   25.395    6.5087
   25.410    6.4771
   25.425    6.3086
   25.440    6.4139
   25.455    6.3718
   25.470    6.6140
   25.485    6.4139
   25.500    6.5298
   25.515    6.2665
   25.530    6.2981
   25.545    6.3928
   25.560    6.3086
   25.575    6.4982
   25.590    6.5508
   25.605    6.4982
   25.620    6.2454
   25.635    6.4244
   25.650    6.5403
   25.665    6.4876
   25.680    6.5613
   25.695    6.3718
   25.710    6.6035
   25.725    6.5613
   25.740    6.4455
   25.755    6.2559
   25.770    6.2559
   25.785    6.5192
   25.800    6.6561
   25.815    6.2875
   25.830    6.1927
   25.845    6.3823
   25.860    6.0348
   25.875    6.2875
   25.890    6.3296
   25.905    6.5298
   25.920    5.7715
   25.935    6.4350
   25.950    6.4034
   25.965    6.4139
   25.980    6.4560
   25.995    6.2665
   26.010    6.4560
   26.025    6.3718
   26.040    6.4139
   26.055    6.3823
   26.070    5.8031
   26.085    6.1506
   26.100    6.2770
   26.115    6.2033
   26.130    6.2770
   26.145    6.0348
   26.160    6.0769
   26.175    6.0348
   26.190    6.1190
   26.205    6.4139
   26.220    6.2033
   26.235    6.0558
   26.250    6.4350
   26.265    6.3612
   26.280    6.5719
   26.295    6.5613
   26.310    6.6561
   26.325    6.4455
   26.340    6.6667
   26.355    6.8036
   26.370    6.8878
   26.385    6.6772
   26.400    6.6140
   26.415    6.3402
   26.430    6.3612
   26.445    6.0979
   26.460    6.3507
   26.475    6.1506
   26.490    6.1611
   26.505    6.2559
   26.520    6.3823
   26.535    6.1506
   26.550    6.1506
   26.565    6.4034
   26.580    6.3507
   26.595    5.7609
   26.610    6.2454
   26.625    6.3402
   26.640    6.4876
   26.655    6.2665
   26.670    6.6351
   26.685    6.9300
   26.700    6.6772
   26.715    6.6456
   26.730    6.4771
   26.745    6.5403
   26.760    6.3612
   26.775    6.4982
   26.790    6.2138
   26.805    6.9510
   26.820    6.5298
   26.835    6.3507
   26.850    6.4139
   26.865    6.1717
   26.880    6.2665
   26.895    6.7509
   26.910    6.5298
   26.925    6.3191
   26.940    6.2243
   26.955    6.3296
   26.970    6.0348
   26.985    6.3507
   27.000    6.0558
   27.015    6.2559
   27.030    6.2454
   27.045    6.2981
   27.060    6.4771
   27.075    6.0137
   27.090    6.2875
   27.105    6.3296
   27.120    6.2770
   27.135    6.4139
   27.150    6.5298
   27.165    6.3928
   27.180    6.1611
   27.195    6.4034
   27.210    6.2875
   27.225    5.7925
   27.240    5.9716
   27.255    6.1927
   27.270    6.4034
   27.285    6.6772
   27.300    6.4876
   27.315    6.3928
   27.330    5.9084
   27.345    6.1401
   27.360    6.3823
   27.375    6.4455
   27.390    6.2875
   27.405    6.2454
   27.420    6.1927
   27.435    6.1717
   27.450    6.2349
   27.465    6.5613
   27.480    6.0348
   27.495    5.9084
   27.510    6.3296
   27.525    6.3296
   27.540    6.2559
   27.555    6.4560
   27.570    6.0453
   27.585    6.0348
   27.600    6.0558
   27.615    6.0453
   27.630    6.0032
   27.645    6.1717
   27.660    6.0979
   27.675    6.3191
   27.690    6.2875
   27.705    6.0348
   27.720    6.4560
   27.735    6.5719
   27.750    5.8873
   27.765    6.1927
   27.780    6.6245
   27.795    6.1190
   27.810    6.6035
   27.825    6.3507
   27.840    6.4244
   27.855    6.7088
   27.870    6.8141
   27.885    6.1611
   27.900    6.4560
   27.915    6.1717
   27.930    6.1190
   27.945    5.6977
   27.960    6.0137
   27.975    6.3612
   27.990    6.8141
   28.005    6.0664
   28.020    6.3191
   28.035    6.0558
   28.050    6.1927
   28.065    6.4982
   28.080    6.2875
   28.095    6.1506
   28.110    5.9821
   28.125    6.0137
   28.140    6.2349
   28.155    6.2349
   28.170    6.2454
   28.185    6.0453
   28.200    6.0137
   28.215    5.7715
   28.230    6.6772
   28.245    6.5403
   28.260    6.2875
   28.275    6.1611
   28.290    5.9821
   28.305    6.3086
   28.320    6.2770
   28.335    6.0979
   28.350    6.0242
   28.365    5.8557
   28.380    6.0348
   28.395    6.3191
   28.410    6.3402
   28.425    6.2875
   28.440    6.4982
   28.455    6.0558
   28.470    6.2243
   28.485    6.2454
   28.500    5.8241
   28.515    6.0769
   28.530    6.2770
   28.545    5.8452
   28.560    5.9294
   28.575    5.9294
   28.590    6.0242
   28.605    6.2981
   28.620    5.8241
   28.635    6.1085
   28.650    6.2559
   28.665    6.1927
   28.680    6.4560
   28.695    6.4771
   28.710    5.9926
   28.725    5.5924
   28.740    5.8557
   28.755    6.1611
   28.770    6.0874
   28.785    5.8978
   28.800    5.8662
   28.815    5.5398
   28.830    5.8662
   28.845    5.8136
   28.860    6.1085
   28.875    6.2349
   28.890    6.0242
   28.905    5.7504
   28.920    5.6345
   28.935    6.1717
   28.950    5.9821
   28.965    6.1085
   28.980    6.0242
   28.995    5.8031
   29.010    6.0979
   29.025    6.3507
   29.040    5.7925
   29.055    5.6135
   29.070    5.8136
   29.085    6.0242
   29.100    6.2138
   29.115    6.2138
   29.130    5.7504
   29.145    6.1927
   29.160    6.1506
   29.175    6.1401
   29.190    5.8557
   29.205    6.0242
   29.220    5.8557
   29.235    6.1085
   29.250    5.7083
   29.265    6.2243
   29.280    6.1717
   29.295    5.5503
   29.310    5.9400
   29.325    5.9084
   29.340    5.8031
   29.355    6.0453
   29.370    5.9400
   29.385    6.3612
   29.400    6.3191
   29.415    5.8662
   29.430    6.1822
   29.445    6.2033
   29.460    5.8136
   29.475    5.5924
   29.490    6.0664
   29.505    6.2559
   29.520    5.9610
   29.535    5.7504
   29.550    6.0348
   29.565    5.9926
   29.580    5.8873
   29.595    5.9505
   29.610    5.6556
   29.625    5.9400
   29.640    5.8873
   29.655    5.7715
   29.670    5.6556
   29.685    5.6135
   29.700    5.8978
   29.715    6.0242
   29.730    5.8557
   29.745    6.2559
   29.760    6.1506
   29.775    5.9821
   29.790    6.2454
   29.805    6.3191
   29.820    6.3086
   29.835    6.1822
   29.850    5.8557
   29.865    6.0242
   29.880    6.1401
   29.895    5.8662
   29.910    6.2033
   29.925    6.3296
   29.940    6.0137
   29.955    5.8557
   29.970    5.7188
   29.985    5.7083
   30.000    5.7504
   30.015    5.7715
   30.030    5.7188
   30.045    5.8136
   30.060    5.8557
   30.075    5.6977
   30.090    5.8557
   30.105    5.9716
   30.120    5.8768
   30.135    5.8662
   30.150    5.9716
   30.165    6.1927
   30.180    6.1927
   30.195    5.7293
   30.210    5.7504
   30.225    5.6451
   30.240    5.9400
   30.255    6.4455
   30.270    5.4976
   30.285    5.8136
   30.300    6.0558
   30.315    5.7504
   30.330    6.1927
   30.345    6.2665
   30.360    6.4034
   30.375    6.1506
   30.390    5.8031
   30.405    5.7504
   30.420    6.0664
   30.435    5.5924
   30.450    5.9610
   30.465    5.7504
   30.480    5.7188
   30.495    5.9610
   30.510    5.8873
   30.525    6.0032
   30.540    6.3402
   30.555    5.9189
   30.570    5.8557
   30.585    5.9610
   30.600    5.7715
   30.615    6.3402
   30.630    5.7504
   30.645    5.8873
   30.660    5.7609
   30.675    5.8557
   30.690    5.9716
   30.705    5.6767
   30.720    5.6767
   30.735    5.6977
   30.750    5.8347
   30.765    5.9610
   30.780    6.2138
   30.795    5.7925
   30.810    5.7083
   30.825    5.5082
   30.840    5.8452
   30.855    5.8978
   30.870    5.9084
   30.885    6.3718
   30.900    6.4350
   30.915    5.9505
   30.930    5.7399
   30.945    5.7399
   30.960    5.6029
   30.975    5.8557
   30.990    5.8557
   31.005    5.8452
   31.020    5.8452
   31.035    5.5292
   31.050    5.7188
   31.065    5.3923
   31.080    5.7715
   31.095    5.9294
   31.110    5.9821
   31.125    5.8031
   31.140    5.8031
   31.155    5.7820
   31.170    5.5398
   31.185    5.8031
   31.200    5.6451
   31.215    5.9084
   31.230    5.4344
   31.245    5.7293
   31.260    5.5924
   31.275    6.0453
   31.290    5.7925
   31.305    5.8768
   31.320    6.0979
   31.335    6.0874
   31.350    6.0769
   31.365    5.4450
   31.380    5.4976
   31.395    5.8768
   31.410    5.9926
   31.425    5.9821
   31.440    5.5924
   31.455    5.4660
   31.470    6.0664
   31.485    5.5714
   31.500    5.9716
   31.515    6.0558
   31.530    5.7715
   31.545    5.7399
   31.560    5.6451
   31.575    6.0453
   31.590    5.7820
   31.605    5.8557
   31.620    5.7504
   31.635    5.9505
   31.650    5.6767
   31.665    5.5398
   31.680    5.4450
   31.695    5.9294
   31.710    5.7083
   31.725    5.8452
   31.740    5.7925
   31.755    5.6451
   31.770    5.6977
   31.785    5.6977
   31.800    5.8347
   31.815    5.8136
   31.830    6.2243
   31.845    5.9400
   31.860    5.9505
   31.875    5.7399
   31.890    5.5714
   31.905    5.7188
   31.920    6.2243
   31.935    5.8241
   31.950    5.8136
   31.965    5.9926
   31.980    5.4871
   31.995    5.2238
   32.010    5.2343
   32.025    5.4555
   32.040    5.1922
   32.055    5.6029
   32.070    5.7820
   32.085    5.6240
   32.100    5.4555
   32.115    5.9084
   32.130    5.8452
   32.145    5.7820
   32.160    5.2343
   32.175    5.7083
   32.190    5.2870
   32.205    5.7083
   32.220    5.4871
   32.235    5.5819
   32.250    5.2449
   32.265    5.3291
   32.280    5.2449
   32.295    5.4871
   32.310    5.4450
   32.325    5.4555
   32.340    5.5503
   32.355    5.5082
   32.370    6.0769
   32.385    6.0032
   32.400    5.5187
   32.415    5.4976
   32.430    5.5187
   32.445    5.2238
   32.460    5.2765
   32.475    5.4976
   32.490    5.6872
   32.505    5.9400
   32.520    5.2870
   32.535    5.7083
   32.550    5.8662
   32.565    5.3186
   32.580    5.5503
   32.595    5.7188
   32.610    5.5292
   32.625    5.2765
   32.640    5.7925
   32.655    5.7504
   32.670    5.6135
   32.685    5.6029
   32.700    5.5292
   32.715    5.4871
   32.730    5.2870
   32.745    5.0553
   32.760    5.3397
   32.775    5.4871
   32.790    5.5924
   32.805    5.3712
   32.820    5.3397
   32.835    5.2027
   32.850    5.4134
   32.865    5.3397
   32.880    5.4766
   32.895    5.4028
   32.910    5.2238
   32.925    5.4239
   32.940    5.4450
   32.955    5.5082
   32.970    5.3607
   32.985    5.1711
   33.000    5.2343
   33.015    5.3818
   33.030    5.2027
   33.045    4.9710
   33.060    5.1395
   33.075    5.5924
   33.090    5.3081
   33.105    5.3502
   33.120    5.2027
   33.135    5.5398
   33.150    5.7293
   33.165    5.4660
   33.180    5.3818
   33.195    5.4766
   33.210    5.6767
   33.225    5.4450
   33.240    5.1501
   33.255    5.4871
   33.270    5.7820
   33.285    5.3186
   33.300    5.3607
   33.315    5.1606
   33.330    5.4660
   33.345    5.0026
   33.360    5.3081
   33.375    5.2449
   33.390    5.5398
   33.405    5.3607
   33.420    5.3397
   33.435    5.3397
   33.450    5.4239
   33.465    5.7293
   33.480    5.6977
   33.495    5.7504
   33.510    5.7609
   33.525    5.4871
   33.540    5.3186
   33.555    5.4766
   33.570    5.7715
   33.585    5.2765
   33.600    5.4660
   33.615    5.6451
   33.630    5.5819
   33.645    5.2554
   33.660    5.4028
   33.675    5.2870
   33.690    5.3607
   33.705    5.0448
   33.720    5.2975
   33.735    5.0237
   33.750    5.1185
   33.765    5.2975
   33.780    5.1711
   33.795    5.3818
   33.810    5.0869
   33.825    5.2238
   33.840    5.0658
   33.855    5.3291
   33.870    5.4239
   33.885    5.1606
   33.900    5.4239
   33.915    5.5398
   33.930    5.6240
   33.945    5.3607
   33.960    5.2765
   33.975    5.3186
   33.990    5.1290
   34.005    5.1606
   34.020    5.3186
   34.035    5.2554
   34.050    5.0764
   34.065    5.3186
   34.080    5.6556
   34.095    5.3818
   34.110    5.2554
   34.125    5.0764
   34.140    5.2765
   34.155    4.9710
   34.170    5.1290
   34.185    5.1501
   34.200    5.1395
   34.215    5.0132
   34.230    5.4766
   34.245    5.5819
   34.260    4.8973
   34.275    5.1922
   34.290    5.4239
   34.305    5.6451
   34.320    5.3607
   34.335    5.3607
   34.350    5.1711
   34.365    5.1290
   34.380    5.1185
   34.395    4.8868
   34.410    5.3291
   34.425    5.2765
   34.440    5.2870
   34.455    5.1185
   34.470    5.3923
   34.485    5.3186
   34.500    5.4660
   34.515    5.2765
   34.530    5.3712
   34.545    5.1606
   34.560    4.9500
   34.575    5.1817
   34.590    5.1290
   34.605    5.1606
   34.620    5.3291
   34.635    5.2765
   34.650    4.9394
   34.665    4.9921
   34.680    5.2027
   34.695    4.9816
   34.710    5.0869
   34.725    5.3607
   34.740    5.0658
   34.755    4.7815
   34.770    4.9816
   34.785    5.2449
   34.800    5.4871
   34.815    5.2659
   34.830    5.2343
   34.845    5.2659
   34.860    5.4134
   34.875    5.0132
   34.890    5.1606
   34.905    5.4028
   34.920    5.6029
   34.935    5.4344
   34.950    5.3712
   34.965    5.2027
   34.980    5.3291
   34.995    5.4871
   35.010    5.1711
   35.025    5.0342
   35.040    5.0658
   35.055    5.4239
   35.070    5.2870
   35.085    5.3607
   35.100    4.8657
   35.115    4.7920
   35.130    4.8447
   35.145    5.2238
   35.160    5.1185
   35.175    5.2238
   35.190    4.9605
   35.205    5.3502
   35.220    4.8236
   35.235    5.2975
   35.250    4.8447
   35.265    5.0764
   35.280    4.7815
   35.295    5.1711
   35.310    4.9184
   35.325    5.3081
   35.340    5.0974
   35.355    4.7604
   35.370    4.8763
   35.385    5.3291
   35.400    5.4028
   35.415    5.0974
   35.430    4.8552
   35.445    5.0237
   35.460    4.9921
   35.475    5.0764
   35.490    5.1080
   35.505    5.3291
   35.520    5.0342
   35.535    4.8236
   35.550    5.1080
   35.565    5.1080
   35.580    5.4766
   35.595    5.3186
   35.610    4.8657
   35.625    5.3186
   35.640    5.2449
   35.655    5.4450
   35.670    5.3291
   35.685    5.2449
   35.700    5.2449
   35.715    5.3081
   35.730    5.3081
   35.745    5.2659
   35.760    5.2765
   35.775    5.2449
   35.790    5.0869
   35.805    4.8868
   35.820    5.1817
   35.835    5.6767
   35.850    5.3712
   35.865    5.2870
   35.880    5.1395
   35.895    4.8447
   35.910    4.5708
   35.925    4.5814
   35.940    4.8552
   35.955    5.1290
   35.970    5.1501
   35.985    4.9921
   36.000    4.8447
   36.015    4.6972
   36.030    5.0342
   36.045    5.0237
   36.060    5.0869
   36.075    5.2449
   36.090    4.9816
   36.105    4.9710
   36.120    4.7815
   36.135    5.1185
   36.150    4.8868
   36.165    4.9816
   36.180    4.8341
   36.195    4.7499
   36.210    4.7709
   36.225    5.1606
   36.240    4.9078
   36.255    4.7709
   36.270    4.9605
   36.285    4.8447
   36.300    4.8657
   36.315    4.8552
   36.330    4.6130
   36.345    4.9078
   36.360    4.6656
   36.375    4.6130
   36.390    4.9078
   36.405    5.0658
   36.420    5.0448
   36.435    5.0132
   36.450    4.9500
   36.465    4.8341
   36.480    4.7393
   36.495    4.8447
   36.510    5.0237
   36.525    4.6235
   36.540    4.9500
   36.555    5.0026
   36.570    5.0448
   36.585    4.6656
   36.600    4.7709
   36.615    4.8236
   36.630    4.7288
   36.645    4.8657
   36.660    4.6235
   36.675    4.6867
   36.690    4.9605
   36.705    4.9500
   36.720    4.8447
   36.735    4.8657
   36.750    5.0869
   36.765    4.9184
   36.780    4.9289
   36.795    4.8973
   36.810    4.8763
   36.825    4.6972
   36.840    4.6130
   36.855    4.9605
   36.870    4.7393
   36.885    4.5603
   36.900    4.7920
   36.915    4.8341
   36.930    5.0764
   36.945    5.4239
   36.960    4.8236
   36.975    4.8657
   36.990    4.9500
   37.005    5.1606
   37.020    4.6024
   37.035    4.4866
   37.050    4.7815
   37.065    4.6761
   37.080    4.8447
   37.095    5.1395
   37.110    5.1922
   37.125    4.8763
   37.140    4.6130
   37.155    5.0342
   37.170    5.1817
   37.185    5.2765
   37.200    4.9289
   37.215    4.8973
   37.230    4.4339
   37.245    4.7077
   37.260    4.8657
   37.275    5.0869
   37.290    4.8025
   37.305    4.9605
   37.320    5.2027
   37.335    4.7920
   37.350    4.4128
   37.365    4.6761
   37.380    4.9184
   37.395    4.3707
   37.410    4.7709
   37.425    5.1080
   37.440    4.7393
   37.455    4.7709
   37.470    4.8131
   37.485    4.8236
   37.500    5.1290
   37.515    4.9605
   37.530    5.3291
   37.545    4.7920
   37.560    4.7288
   37.575    4.8341
   37.590    5.2238
   37.605    5.2554
   37.620    5.0342
   37.635    4.9710
   37.650    5.0764
   37.665    4.7920
   37.680    4.8341
   37.695    4.9078
   37.710    5.1606
   37.725    4.7499
   37.740    5.0974
   37.755    5.1817
   37.770    5.0132
   37.785    5.1711
   37.800    4.8552
   37.815    4.8025
   37.830    4.8341
   37.845    4.5814
   37.860    4.8552
   37.875    4.8657
   37.890    4.7815
   37.905    4.7393
   37.920    4.9289
   37.935    4.7920
   37.950    4.7920
   37.965    4.9921
   37.980    4.6972
   37.995    4.5919
   38.010    4.7604
   38.025    4.9816
   38.040    4.6340
   38.055    4.3181
   38.070    4.6656
   38.085    4.7288
   38.100    4.7393
   38.115    4.5076
   38.130    5.0974
   38.145    5.1290
   38.160    4.8341
   38.175    4.9078
   38.190    4.9078
   38.205    4.7920
   38.220    4.8236
   38.235    4.8763
   38.250    4.8657
   38.265    4.6445
   38.280    4.6761
   38.295    4.6656
   38.310    4.6235
   38.325    4.4760
   38.340    4.8236
   38.355    4.8236
   38.370    4.5708
   38.385    4.6867
   38.400    4.8447
   38.415    4.7393
   38.430    4.7183
   38.445    4.8552
   38.460    4.5182
   38.475    4.7920
   38.490    4.8763
   38.505    4.8447
   38.520    5.0764
   38.535    4.9921
   38.550    5.3712
   38.565    4.9078
   38.580    4.9605
   38.595    5.1606
   38.610    5.0342
   38.625    5.0026
   38.640    4.7393
   38.655    4.8447
   38.670    4.7815
   38.685    4.6445
   38.700    4.6445
   38.715    4.4023
   38.730    4.7393
   38.745    4.7499
   38.760    4.8868
   38.775    4.8131
   38.790    4.8868
   38.805    4.8552
   38.820    4.6551
   38.835    4.8131
   38.850    4.7604
   38.865    4.8973
   38.880    4.9078
   38.895    4.7288
   38.910    4.7077
   38.925    4.8025
   38.940    4.6656
   38.955    4.6551
   38.970    4.7393
   38.985    4.7288
   39.000    4.6761
   39.015    4.9500
   39.030    4.9710
   39.045    4.9605
   39.060    5.0974
   39.075    4.9921
   39.090    4.7920
   39.105    4.6656
   39.120    4.9184
   39.135    5.2027
   39.150    4.7499
   39.165    4.8447
   39.180    4.9078
   39.195    4.8447
   39.210    4.9184
   39.225    4.8868
   39.240    4.9184
   39.255    4.9816
   39.270    4.9500
   39.285    5.2027
   39.300    5.2870
   39.315    5.3291
   39.330    5.0658
   39.345    5.0237
   39.360    4.9078
   39.375    5.0342
   39.390    4.6972
   39.405    4.7393
   39.420    5.1185
   39.435    4.8552
   39.450    4.4234
   39.465    4.3602
   39.480    4.4234
   39.495    4.4971
   39.510    4.8657
   39.525    4.3918
   39.540    4.3075
   39.555    4.5603
   39.570    4.5076
   39.585    4.6761
   39.600    4.3391
   39.615    4.6130
   39.630    4.6340
   39.645    4.6761
   39.660    4.5182
   39.675    4.6867
   39.690    4.7604
   39.705    4.7077
   39.720    4.3602
   39.735    4.6445
   39.750    4.6867
   39.765    4.7920
   39.780    4.5919
   39.795    4.6551
   39.810    4.5182
   39.825    4.3918
   39.840    4.9394
   39.855    4.8236
   39.870    4.6551
   39.885    4.3602
   39.900    4.7183
   39.915    4.8341
   39.930    4.4971
   39.945    4.6761
   39.960    4.4234
   39.975    4.8341
   39.990    5.0869
