    1.500   12.0906
    1.515   12.2696
    1.530   11.9115
    1.545   12.1959
    1.560   12.5434
    1.575   12.3012
    1.590   11.9747
    1.605   11.9537
    1.620   12.5750
    1.635   11.8483
    1.650   11.7114
    1.665   11.5324
    1.680   11.9326
    1.695   12.1116
    1.710   12.1748
    1.725   11.7430
    1.740   11.7957
    1.755   11.6061
    1.770   12.0063
    1.785   11.9642
    1.800   11.7641
    1.815   12.0274
    1.830   12.0063
    1.845   12.1327
    1.860   12.2696
    1.875   12.1432
    1.890   11.6588
    1.905   11.8905
    1.920   12.5118
    1.935   12.2275
    1.950   11.8483
    1.965   12.6172
    1.980   12.2591
    1.995   12.4592
    2.010   13.1754
    2.025   13.2807
    2.040   13.0068
    2.055   13.3123
    2.070   13.0384
    2.085   13.0700
    2.100   13.5229
    2.115   13.2596
    2.130   13.7757
    2.145   14.3233
    2.160   13.8178
    2.175   14.2180
    2.190   14.6498
    2.205   15.1764
    2.220   15.1237
    2.235   15.2185
    2.250   15.3555
    2.265   15.5556
    2.280   16.4718
    2.295   16.8615
    2.310   16.7562
    2.325   16.4929
    2.340   17.2617
    2.355   17.7357
    2.370   18.2201
    2.385   18.3149
    2.400   19.0311
    2.415   20.1264
    2.430   21.0321
    2.445   20.9689
    2.460   21.3375
    2.475   22.4645
    2.490   23.1280
    2.505   24.0548
    2.520   24.9816
    2.535   26.0874
    2.550   27.0669
    2.565   27.9937
    2.580   29.5103
    2.595   30.0369
    2.610   31.6272
    2.625   33.1859
    2.640   35.0500
    2.655   36.5561
    2.670   38.2517
    2.685   40.0737
    2.700   43.4860
    2.715   46.2138
    2.730   49.8684
    2.745   53.2491
    2.760   55.1448
    2.775   55.7241
    2.790   54.0811
    2.805   50.5003
    2.820   45.1711
    2.835   41.6324
    2.850   37.1143
    2.865   33.6598
    2.880   31.4903
    2.895   28.3412
    2.910   25.9716
    2.925   23.6019
    2.940   21.1901
    2.955   19.0837
    2.970   17.4934
    2.985   16.2296
    3.000   14.5761
    3.015   13.7019
    3.030   12.9121
    3.045   11.7325
    3.060   10.9953
    3.075   10.6372
    3.090    9.6261
    3.105    8.7941
    3.120    9.3944
    3.135    9.0679
    3.150    8.2359
    3.165    8.0990
    3.180    7.8041
    3.195    7.3091
    3.210    7.1827
    3.225    7.0353
    3.240    6.5719
    3.255    6.4139
    3.270    6.2770
    3.285    6.3191
    3.300    6.3296
    3.315    6.2981
    3.330    6.3928
    3.345    5.8768
    3.360    5.7609
    3.375    5.6029
    3.390    5.4766
    3.405    5.2765
    3.420    5.1501
    3.435    4.9921
    3.450    4.9710
    3.465    5.1711
    3.480    4.6551
    3.495    4.6024
    3.510    4.6551
    3.525    4.8341
    3.540    4.4971
    3.555    4.6867
    3.570    4.5287
    3.585    4.1917
    3.600    4.4760
    3.615    4.1811
    3.630    3.9284
    3.645    4.3602
    3.660    4.3075
    3.675    4.1601
    3.690    4.0864
    3.705    3.9284
    3.720    4.0232
    3.735    4.0126
    3.750    3.7283
    3.765    4.0021
    3.780    3.9705
    3.795    3.8547
    3.810    3.8020
    3.825    3.5703
    3.840    3.7493
    3.855    3.7704
    3.870    3.7599
    3.885    3.3807
    3.900    3.4755
    3.915    3.5387
    3.930    3.6546
    3.945    3.5071
    3.960    3.5703
    3.975    3.6546
    3.990    3.4755
    4.005    3.3386
    4.020    3.6756
    4.035    3.4229
    4.050    3.3702
    4.065    3.1806
    4.080    3.1701
    4.095    3.3702
    4.110    3.2649
    4.125    3.6124
    4.140    3.2122
    4.155    3.4334
    4.170    3.6651
    4.185    3.1490
    4.200    3.0753
    4.215    3.2859
    4.230    3.4123
    4.245    3.1069
    4.260    3.2438
    4.275    3.0648
    4.290    3.3070
    4.305    3.4229
    4.320    3.3702
    4.335    3.1069
    4.350    3.0753
    4.365    3.3702
    4.380    3.3070
    4.395    3.4966
    4.410    3.3597
    4.425    3.2122
    4.440    3.1912
    4.455    3.3807
    4.470    3.6019
    4.485    3.0437
    4.500    3.3702
    4.515    3.7493
    4.530    3.7599
    4.545    3.5492
    4.560    3.6440
    4.575    3.9494
    4.590    3.7177
    4.605    3.9179
    4.620    4.4760
    4.635    4.2865
    4.650    4.4550
    4.665    4.7815
    4.680    5.1606
    4.695    5.3291
    4.710    5.7188
    4.725    5.7609
    4.740    6.0137
    4.755    6.1822
    4.770    6.1295
    4.785    6.4876
    4.800    6.0032
    4.815    5.8768
    4.830    6.1611
    4.845    6.2454
    4.860    6.1401
    4.875    5.9716
    4.890    6.0453
    4.905    5.8873
    4.920    6.3507
    4.935    6.0979
    4.950    5.7715
    4.965    5.5503
    4.980    5.4976
    4.995    5.6029
    5.010    5.4344
    5.025    4.5076
    5.040    4.2865
    5.055    4.0758
    5.070    3.8547
    5.085    3.8757
    5.100    3.5176
    5.115    3.3175
    5.130    3.2543
    5.145    3.0437
    5.160    2.8541
    5.175    2.9595
    5.190    2.8647
    5.205    2.8752
    5.220    2.7278
    5.235    2.7488
    5.250    2.7278
    5.265    2.5592
    5.280    2.6224
    5.295    2.7278
    5.310    2.8541
    5.325    2.7172
    5.340    2.8225
    5.355    2.8857
    5.370    2.7909
    5.385    2.8331
    5.400    3.1912
    5.415    2.9384
    5.430    3.1806
    5.445    2.8963
    5.460    3.1806
    5.475    3.4439
    5.490    3.5703
    5.505    3.7599
    5.520    3.9810
    5.535    3.9494
    5.550    4.3286
    5.565    4.0864
    5.580    4.1496
    5.595    4.3602
    5.610    4.3602
    5.625    3.9284
    5.640    3.6124
    5.655    3.6440
    5.670    3.3702
    5.685    3.1806
    5.700    3.1385
    5.715    2.9068
    5.730    3.2122
    5.745    3.2333
    5.760    2.8647
    5.775    2.6751
    5.790    2.7172
    5.805    2.7172
    5.820    2.6962
    5.835    2.7067
    5.850    2.3907
    5.865    2.5382
    5.880    2.5908
    5.895    2.3065
    5.910    2.2012
    5.925    2.2538
    5.940    2.1590
    5.955    2.2012
    5.970    2.1485
    5.985    2.1169
    6.000    2.0116
    6.015    2.2328
    6.030    1.9589
    6.045    2.0432
    6.060    2.0011
    6.075    1.8852
    6.090    1.7062
    6.105    1.9063
    6.120    1.9589
    6.135    1.8009
    6.150    1.8747
    6.165    1.7272
    6.180    1.8641
    6.195    2.0011
    6.210    1.6535
    6.225    1.6008
    6.240    1.7483
    6.255    1.8957
    6.270    1.8431
    6.285    1.8431
    6.300    1.9905
    6.315    1.7167
    6.330    1.7694
    6.345    1.9379
    6.360    1.7378
    6.375    1.6324
    6.390    1.6746
    6.405    1.8325
    6.420    1.6114
    6.435    1.8009
    6.450    1.7167
    6.465    1.8641
    6.480    1.7378
    6.495    1.8747
    6.510    1.9379
    6.525    2.0221
    6.540    1.8641
    6.555    1.6746
    6.570    1.8852
    6.585    1.7694
    6.600    1.9589
    6.615    1.9063
    6.630    1.8747
    6.645    1.8852
    6.660    1.9168
    6.675    1.6430
    6.690    1.7799
    6.705    1.8220
    6.720    1.5903
    6.735    1.6535
    6.750    1.6535
    6.765    1.6640
    6.780    1.8852
    6.795    1.7799
    6.810    1.6324
    6.825    1.8747
    6.840    1.9484
    6.855    1.7799
    6.870    1.6851
    6.885    1.7378
    6.900    1.8431
    6.915    1.8957
    6.930    1.8957
    6.945    1.8957
    6.960    1.8009
    6.975    1.8641
    6.990    1.8852
    7.005    1.8957
    7.020    2.1274
    7.035    1.8115
    7.050    1.8957
    7.065    1.8220
    7.080    1.9484
    7.095    1.8220
    7.110    1.8115
    7.125    1.8220
    7.140    2.0537
    7.155    1.9379
    7.170    2.1801
    7.185    2.1906
    7.200    2.1169
    7.215    2.3275
    7.230    2.3591
    7.245    2.2959
    7.260    2.3486
    7.275    2.5592
    7.290    2.4329
    7.305    2.6856
    7.320    2.7593
    7.335    2.6751
    7.350    2.9279
    7.365    2.8857
    7.380    2.6435
    7.395    2.8225
    7.410    2.7383
    7.425    2.7488
    7.440    2.7593
    7.455    2.6330
    7.470    2.7699
    7.485    2.8752
    7.500    2.6224
    7.515    2.8331
    7.530    2.7909
    7.545    2.9068
    7.560    2.8541
    7.575    2.7172
    7.590    2.5592
    7.605    2.8436
    7.620    2.8225
    7.635    2.5382
    7.650    2.4118
    7.665    2.3697
    7.680    2.7172
    7.695    2.3907
    7.710    2.3486
    7.725    2.3486
    7.740    2.1380
    7.755    2.3275
    7.770    2.1485
    7.785    2.2538
    7.800    2.1590
    7.815    1.8220
    7.830    1.7904
    7.845    1.9695
    7.860    1.7483
    7.875    1.7378
    7.890    1.6746
    7.905    1.9800
    7.920    1.9695
    7.935    1.9695
    7.950    1.8220
    7.965    1.6640
    7.980    1.8852
    7.995    1.9063
    8.010    1.6114
    8.025    1.3691
    8.040    1.6008
    8.055    1.7167
    8.070    1.6008
    8.085    1.5377
    8.100    1.6746
    8.115    1.6114
    8.130    1.6535
    8.145    1.4955
    8.160    1.8115
    8.175    1.5377
    8.190    1.5166
    8.205    1.5271
    8.220    1.3902
    8.235    1.5377
    8.250    1.9168
    8.265    1.5166
    8.280    1.6640
    8.295    1.7378
    8.310    1.7167
    8.325    1.6535
    8.340    1.8747
    8.355    1.8325
    8.370    1.6219
    8.385    1.8115
    8.400    1.6956
    8.415    1.6746
    8.430    1.5166
    8.445    1.4429
    8.460    1.6851
    8.475    1.7588
    8.490    1.6851
    8.505    1.6956
    8.520    1.6746
    8.535    1.4007
    8.550    1.4850
    8.565    1.6430
    8.580    1.7272
    8.595    1.6956
    8.610    1.5377
    8.625    1.8009
    8.640    1.5692
    8.655    1.6956
    8.670    1.7588
    8.685    1.5587
    8.700    1.5482
    8.715    1.5271
    8.730    1.5482
    8.745    1.6324
    8.760    1.5166
    8.775    1.5166
    8.790    1.6114
    8.805    1.6008
    8.820    1.4639
    8.835    1.4323
    8.850    1.6746
    8.865    1.6114
    8.880    1.5587
    8.895    1.4639
    8.910    1.6219
    8.925    1.3165
    8.940    1.4955
    8.955    1.4218
    8.970    1.3586
    8.985    1.4955
    9.000    1.5798
    9.015    1.4113
    9.030    1.5166
    9.045    1.4007
    9.060    1.4534
    9.075    1.6008
    9.090    1.4955
    9.105    1.4850
    9.120    1.6430
    9.135    1.5587
    9.150    1.5903
    9.165    1.4955
    9.180    1.5166
    9.195    1.6956
    9.210    1.6535
    9.225    1.4218
    9.240    1.4323
    9.255    1.5271
    9.270    1.6008
    9.285    1.5271
    9.300    1.6008
    9.315    1.4113
    9.330    1.6430
    9.345    1.7904
    9.360    1.5166
    9.375    1.4955
    9.390    1.7378
    9.405    1.4955
    9.420    1.4850
    9.435    1.4429
    9.450    1.6008
    9.465    1.5166
    9.480    1.5482
    9.495    1.6430
    9.510    1.7694
    9.525    1.6324
    9.540    1.6324
    9.555    1.7272
    9.570    1.7167
    9.585    1.6324
    9.600    1.6114
    9.615    1.7799
    9.630    1.7378
    9.645    1.6324
    9.660    1.6430
    9.675    1.6535
    9.690    1.5482
    9.705    1.7588
    9.720    1.8325
    9.735    1.6535
    9.750    1.7272
    9.765    1.6324
    9.780    1.7272
    9.795    1.6535
    9.810    1.6114
    9.825    1.6851
    9.840    1.7062
    9.855    1.8641
    9.870    1.8431
    9.885    1.7167
    9.900    1.7588
    9.915    1.8536
    9.930    1.7588
    9.945    1.7904
    9.960    1.7272
    9.975    1.7378
    9.990    1.9063
   10.005    1.7062
   10.020    1.7694
   10.035    1.9168
   10.050    1.9168
   10.065    1.6956
   10.080    1.8115
   10.095    1.7272
   10.110    1.7272
   10.125    1.6535
   10.140    1.8641
   10.155    1.7062
   10.170    1.6640
   10.185    1.6535
   10.200    1.7062
   10.215    1.6430
   10.230    1.7694
   10.245    1.6851
   10.260    1.8431
   10.275    1.5798
   10.290    1.5377
   10.305    1.6535
   10.320    1.4745
   10.335    1.5798
   10.350    1.5377
   10.365    1.4429
   10.380    1.8009
   10.395    1.8325
   10.410    1.6851
   10.425    1.8536
   10.440    1.8431
   10.455    1.9589
   10.470    1.7799
   10.485    1.6535
   10.500    1.8115
   10.515    1.6640
   10.530    1.8431
   10.545    1.5061
   10.560    1.6535
   10.575    1.7483
   10.590    1.6114
   10.605    1.6535
   10.620    1.8325
   10.635    1.7378
   10.650    1.6851
   10.665    1.7062
   10.680    1.6640
   10.695    1.5692
   10.710    1.5587
   10.725    1.6324
   10.740    1.6956
   10.755    1.6640
   10.770    1.5692
   10.785    1.7062
   10.800    1.6640
   10.815    1.5798
   10.830    1.5798
   10.845    1.5903
   10.860    1.4850
   10.875    1.5482
   10.890    1.6219
   10.905    1.6114
   10.920    1.4429
   10.935    1.5587
   10.950    1.4955
   10.965    1.8220
   10.980    1.5061
   10.995    1.4955
   11.010    1.8220
   11.025    1.7167
   11.040    1.7062
   11.055    1.6851
   11.070    1.7378
   11.085    1.8325
   11.100    1.7378
   11.115    1.5903
   11.130    1.5271
   11.145    1.4113
   11.160    1.4113
   11.175    1.5798
   11.190    1.6324
   11.205    1.6008
   11.220    1.5377
   11.235    1.7694
   11.250    1.7272
   11.265    1.7694
   11.280    1.7378
   11.295    1.5798
   11.310    1.6746
   11.325    1.7904
   11.340    1.8009
   11.355    1.6114
   11.370    1.6008
   11.385    1.6324
   11.400    1.4955
   11.415    1.4639
   11.430    1.5903
   11.445    1.6324
   11.460    1.4534
   11.475    1.5692
   11.490    1.6324
   11.505    1.4955
   11.520    1.6008
   11.535    1.6746
   11.550    1.5377
   11.565    1.8325
   11.580    1.7694
   11.595    1.6640
   11.610    1.7483
   11.625    1.4955
   11.640    1.5482
   11.655    1.6640
   11.670    1.7483
   11.685    1.6219
   11.700    1.6535
   11.715    1.6008
   11.730    1.7588
   11.745    1.5798
   11.760    1.5903
   11.775    1.5061
   11.790    1.5903
   11.805    1.6008
   11.820    1.7483
   11.835    1.4745
   11.850    1.6008
   11.865    1.7167
   11.880    1.9168
   11.895    1.8957
   11.910    1.8220
   11.925    1.6430
   11.940    1.7167
   11.955    1.6008
   11.970    1.5271
   11.985    1.7799
   12.000    1.7167
   12.015    1.8431
   12.030    1.6746
   12.045    1.6746
   12.060    1.5377
   12.075    1.5377
   12.090    1.7167
   12.105    1.8747
   12.120    1.6956
   12.135    1.4639
   12.150    1.6956
   12.165    1.6535
   12.180    2.0642
   12.195    1.7167
   12.210    1.5798
   12.225    1.7167
   12.240    1.6535
   12.255    1.6746
   12.270    1.6640
   12.285    1.7588
   12.300    1.9379
   12.315    1.7694
   12.330    1.7799
   12.345    1.7799
   12.360    1.8536
   12.375    1.8220
   12.390    1.9063
   12.405    1.6746
   12.420    1.7062
   12.435    1.8431
   12.450    1.8536
   12.465    1.8325
   12.480    1.7694
   12.495    1.7904
   12.510    1.8431
   12.525    1.8431
   12.540    1.8641
   12.555    1.7588
   12.570    1.7904
   12.585    1.8325
   12.600    1.8431
   12.615    1.8747
   12.630    1.7904
   12.645    1.6324
   12.660    1.7799
   12.675    1.8641
   12.690    1.7272
   12.705    1.6851
   12.720    1.7483
   12.735    1.7062
   12.750    1.6746
   12.765    1.6956
   12.780    1.8536
   12.795    1.6851
   12.810    1.6324
   12.825    1.6640
   12.840    1.8115
   12.855    1.7378
   12.870    1.8431
   12.885    1.9168
   12.900    1.7799
   12.915    1.9063
   12.930    1.6535
   12.945    1.8009
   12.960    1.9695
   12.975    1.7904
   12.990    1.7694
   13.005    1.8115
   13.020    1.8536
   13.035    1.6956
   13.050    1.7378
   13.065    1.7588
   13.080    1.6746
   13.095    1.6324
   13.110    1.6640
   13.125    2.0537
   13.140    1.9695
   13.155    1.6219
   13.170    1.8220
   13.185    1.9484
   13.200    1.9484
   13.215    1.9905
   13.230    1.8325
   13.245    1.9800
   13.260    1.6851
   13.275    1.8957
   13.290    1.9905
   13.305    1.9379
   13.320    1.8115
   13.335    1.8536
   13.350    1.8536
   13.365    1.8431
   13.380    2.0116
   13.395    1.8009
   13.410    1.6956
   13.425    1.5482
   13.440    1.7588
   13.455    1.9905
   13.470    1.9273
   13.485    1.7904
   13.500    1.8852
   13.515    1.9484
   13.530    2.0011
   13.545    1.9484
   13.560    1.8536
   13.575    1.9379
   13.590    2.0011
   13.605    1.9379
   13.620    1.9063
   13.635    1.8641
   13.650    1.6851
   13.665    1.7378
   13.680    1.8852
   13.695    1.8220
   13.710    1.8852
   13.725    1.6746
   13.740    2.0958
   13.755    1.9484
   13.770    1.7588
   13.785    1.8325
   13.800    1.9695
   13.815    2.0432
   13.830    2.0537
   13.845    1.9484
   13.860    2.0011
   13.875    2.0011
   13.890    1.9063
   13.905    2.0326
   13.920    2.0642
   13.935    2.1064
   13.950    1.9695
   13.965    1.8115
   13.980    1.8115
   13.995    1.7694
   14.010    1.8957
   14.025    1.8852
   14.040    1.8641
   14.055    2.1380
   14.070    2.0432
   14.085    2.2012
   14.100    2.0642
   14.115    1.9168
   14.130    1.7483
   14.145    1.9379
   14.160    1.9484
   14.175    1.8431
   14.190    1.8641
   14.205    2.0432
   14.220    1.9379
   14.235    1.7799
   14.250    1.9168
   14.265    1.9484
   14.280    1.9168
   14.295    2.1274
   14.310    2.3275
   14.325    1.8536
   14.340    1.9589
   14.355    1.9905
   14.370    1.9168
   14.385    2.1906
   14.400    2.1590
   14.415    2.0748
   14.430    2.2012
   14.445    2.2854
   14.460    2.1906
   14.475    2.2643
   14.490    2.0116
   14.505    1.9063
   14.520    2.0011
   14.535    2.0221
   14.550    2.2012
   14.565    2.0116
   14.580    2.1696
   14.595    1.8852
   14.610    1.9589
   14.625    2.0221
   14.640    2.0537
   14.655    2.0642
   14.670    2.1485
   14.685    2.0537
   14.700    2.2117
   14.715    2.3275
   14.730    2.0958
   14.745    2.1590
   14.760    2.1801
   14.775    2.0116
   14.790    2.2117
   14.805    2.3486
   14.820    2.2433
   14.835    2.0642
   14.850    2.1064
   14.865    2.1274
   14.880    2.1801
   14.895    2.4118
   14.910    2.3381
   14.925    2.0853
   14.940    2.2433
   14.955    2.0958
   14.970    2.3381
   14.985    2.3697
   15.000    2.1590
   15.015    2.3907
   15.030    2.3381
   15.045    2.3802
   15.060    2.4013
   15.075    2.0853
   15.090    2.3170
   15.105    2.4645
   15.120    2.2538
   15.135    2.1906
   15.150    2.2012
   15.165    2.3170
   15.180    2.3065
   15.195    2.2749
   15.210    2.1169
   15.225    2.2222
   15.240    2.2854
   15.255    2.0011
   15.270    2.0958
   15.285    2.4434
   15.300    2.1485
   15.315    2.2854
   15.330    2.1274
   15.345    2.1485
   15.360    2.3697
   15.375    2.3697
   15.390    2.3802
   15.405    2.1274
   15.420    2.1064
   15.435    2.3591
   15.450    2.4961
   15.465    2.2749
   15.480    2.2328
   15.495    2.4013
   15.510    2.3907
   15.525    2.3486
   15.540    2.3065
   15.555    2.7699
   15.570    2.4223
   15.585    2.2854
   15.600    2.0432
   15.615    2.2328
   15.630    2.2117
   15.645    2.2959
   15.660    2.3591
   15.675    2.1485
   15.690    2.4750
   15.705    2.4539
   15.720    2.4961
   15.735    2.4434
   15.750    2.3591
   15.765    2.6014
   15.780    2.2222
   15.795    2.1169
   15.810    2.3591
   15.825    2.3065
   15.840    2.4118
   15.855    2.4223
   15.870    2.4645
   15.885    2.2117
   15.900    2.3697
   15.915    2.3907
   15.930    2.3591
   15.945    2.4223
   15.960    2.3381
   15.975    2.3381
   15.990    2.1590
   16.005    2.3697
   16.020    2.1064
   16.035    2.4223
   16.050    2.2328
   16.065    2.5276
   16.080    2.5487
   16.095    2.4118
   16.110    2.4434
   16.125    2.4118
   16.140    2.4645
   16.155    2.4645
   16.170    2.5698
   16.185    2.4750
   16.200    2.2854
   16.215    2.7172
   16.230    2.5698
   16.245    2.4223
   16.260    2.2328
   16.275    2.3697
   16.290    2.3381
   16.305    2.5276
   16.320    2.4855
   16.335    2.2012
   16.350    2.5171
   16.365    2.4961
   16.380    2.3697
   16.395    2.5487
   16.410    2.3591
   16.425    2.6224
   16.440    2.7593
   16.455    2.4013
   16.470    2.4961
   16.485    2.5066
   16.500    2.6540
   16.515    2.6540
   16.530    2.5171
   16.545    2.3381
   16.560    2.4539
   16.575    2.6751
   16.590    2.6014
   16.605    2.6540
   16.620    2.7067
   16.635    2.9384
   16.650    2.8120
   16.665    2.9489
   16.680    2.6962
   16.695    2.7172
   16.710    2.6119
   16.725    2.5276
   16.740    2.5382
   16.755    2.7488
   16.770    2.6540
   16.785    2.4223
   16.800    2.5171
   16.815    2.6119
   16.830    2.5698
   16.845    2.5592
   16.860    2.9384
   16.875    2.8331
   16.890    2.7593
   16.905    2.6646
   16.920    2.9595
   16.935    2.6856
   16.950    2.5171
   16.965    2.6014
   16.980    2.8647
   16.995    2.4329
   17.010    2.6014
   17.025    2.5803
   17.040    2.6119
   17.055    2.5276
   17.070    2.6540
   17.085    2.5908
   17.100    2.6751
   17.115    2.6540
   17.130    2.4855
   17.145    2.6330
   17.160    2.7699
   17.175    2.6962
   17.190    2.7067
   17.205    2.6856
   17.220    2.5803
   17.235    2.4961
   17.250    2.6751
   17.265    2.7172
   17.280    2.8225
   17.295    2.8541
   17.310    2.8120
   17.325    2.4855
   17.340    2.6435
   17.355    2.6646
   17.370    2.6014
   17.385    2.4855
   17.400    2.4750
   17.415    2.7699
   17.430    2.5908
   17.445    2.5171
   17.460    2.6856
   17.475    2.8963
   17.490    2.6646
   17.505    2.6856
   17.520    2.6962
   17.535    2.7699
   17.550    2.8015
   17.565    2.8225
   17.580    2.5803
   17.595    2.4223
   17.610    2.6540
   17.625    2.6330
   17.640    2.6119
   17.655    2.8857
   17.670    2.7593
   17.685    2.8857
   17.700    2.6330
   17.715    2.5908
   17.730    3.0753
   17.745    2.9173
   17.760    2.7172
   17.775    2.6224
   17.790    2.7699
   17.805    2.6014
   17.820    2.5487
   17.835    2.9489
   17.850    2.8225
   17.865    2.8857
   17.880    2.7593
   17.895    2.9068
   17.910    2.9595
   17.925    3.0858
   17.940    2.6646
   17.955    2.6646
   17.970    2.8647
   17.985    2.8225
   18.000    3.0226
   18.015    2.9068
   18.030    2.9489
   18.045    2.8225
   18.060    2.8436
   18.075    2.9068
   18.090    3.0437
   18.105    2.9910
   18.120    3.0753
   18.135    2.8015
   18.150    2.7488
   18.165    2.7488
   18.180    2.7067
   18.195    2.6330
   18.210    2.7172
   18.225    2.8331
   18.240    2.6540
   18.255    2.7593
   18.270    2.5066
   18.285    2.7699
   18.300    3.0016
   18.315    3.0648
   18.330    2.7699
   18.345    2.5592
   18.360    2.8857
   18.375    2.8647
   18.390    2.9173
   18.405    2.9068
   18.420    2.7278
   18.435    2.6962
   18.450    2.9805
   18.465    2.7383
   18.480    2.8752
   18.495    2.9805
   18.510    2.9384
   18.525    2.9279
   18.540    3.1701
   18.555    2.9068
   18.570    2.6962
   18.585    2.7278
   18.600    2.8963
   18.615    2.7383
   18.630    2.8541
   18.645    2.8331
   18.660    3.0121
   18.675    2.7278
   18.690    2.9384
   18.705    3.1806
   18.720    3.2017
   18.735    2.9173
   18.750    2.7383
   18.765    2.9700
   18.780    2.9489
   18.795    2.8857
   18.810    3.2438
   18.825    2.8120
   18.840    2.8752
   18.855    2.8331
   18.870    2.8120
   18.885    2.8857
   18.900    3.0964
   18.915    3.0964
   18.930    2.9384
   18.945    3.0964
   18.960    3.3597
   18.975    2.7804
   18.990    2.8752
   19.005    2.8331
   19.020    3.1174
   19.035    3.1069
   19.050    3.2122
   19.065    3.3070
   19.080    3.1490
   19.095    2.9910
   19.110    3.0226
   19.125    3.3175
   19.140    3.1806
   19.155    2.9700
   19.170    2.9595
   19.185    2.8436
   19.200    3.0753
   19.215    3.0016
   19.230    3.0964
   19.245    3.0858
   19.260    3.1912
   19.275    3.2122
   19.290    3.2122
   19.305    3.1912
   19.320    3.2649
   19.335    3.0753
   19.350    2.9805
   19.365    2.8331
   19.380    2.7804
   19.395    3.0016
   19.410    3.0437
   19.425    3.0016
   19.440    3.1280
   19.455    3.0858
   19.470    3.2333
   19.485    3.1174
   19.500    3.1280
   19.515    3.1912
   19.530    3.0858
   19.545    3.1912
   19.560    2.9700
   19.575    3.0858
   19.590    2.9910
   19.605    3.0858
   19.620    3.1701
   19.635    3.4334
   19.650    3.0858
   19.665    3.2333
   19.680    3.1385
   19.695    3.0437
   19.710    3.1280
   19.725    3.1806
   19.740    3.3175
   19.755    3.2227
   19.770    2.8436
   19.785    3.1069
   19.800    3.0753
   19.815    3.0121
   19.830    3.2017
   19.845    3.3597
   19.860    3.2965
   19.875    3.1912
   19.890    3.2649
   19.905    3.2017
   19.920    2.9805
   19.935    2.7804
   19.950    3.1806
   19.965    3.2859
   19.980    3.0753
   19.995    3.1280
   20.010    3.0121
   20.025    2.9068
   20.040    2.9384
   20.055    3.2965
   20.070    2.9700
   20.085    3.1174
   20.100    3.1912
   20.115    3.0226
   20.130    3.2754
   20.145    3.1069
   20.160    3.3913
   20.175    2.9173
   20.190    3.0542
   20.205    3.1069
   20.220    3.0121
   20.235    3.2438
   20.250    3.0121
   20.265    3.2859
   20.280    3.0858
   20.295    3.0332
   20.310    3.0542
   20.325    3.1912
   20.340    2.8857
   20.355    3.1806
   20.370    3.2333
   20.385    2.8225
   20.400    3.0121
   20.415    2.9279
   20.430    2.9173
   20.445    2.9068
   20.460    3.1596
   20.475    3.2543
   20.490    2.8963
   20.505    2.9595
   20.520    2.9068
   20.535    3.0016
   20.550    2.9910
   20.565    3.2122
   20.580    2.7593
   20.595    3.0964
   20.610    2.9805
   20.625    3.3175
   20.640    3.7493
   20.655    3.5703
   20.670    3.2754
   20.685    3.1385
   20.700    3.1912
   20.715    3.4334
   20.730    3.2017
   20.745    3.2965
   20.760    3.2227
   20.775    3.1069
   20.790    3.3491
   20.805    3.0858
   20.820    3.0542
   20.835    3.0858
   20.850    3.0121
   20.865    3.2754
   20.880    3.0542
   20.895    3.0753
   20.910    2.8963
   20.925    3.2754
   20.940    3.3491
   20.955    3.0121
   20.970    3.0542
   20.985    3.1912
   21.000    3.0332
   21.015    3.0437
   21.030    3.1385
   21.045    3.0542
   21.060    3.1069
   21.075    3.0226
   21.090    2.9173
   21.105    3.0226
   21.120    3.4966
   21.135    2.8857
   21.150    3.1912
   21.165    3.2754
   21.180    3.2122
   21.195    3.0648
   21.210    2.8436
   21.225    3.3281
   21.240    3.1701
   21.255    3.0332
   21.270    3.2122
   21.285    3.0964
   21.300    2.9910
   21.315    3.0753
   21.330    3.3597
   21.345    3.3281
   21.360    3.2754
   21.375    3.2543
   21.390    3.2122
   21.405    3.2333
   21.420    3.1280
   21.435    2.8647
   21.450    2.9700
   21.465    3.1490
   21.480    3.4018
   21.495    3.4229
   21.510    3.2965
   21.525    2.9910
   21.540    3.3386
   21.555    3.4439
   21.570    3.0753
   21.585    2.8331
   21.600    2.9384
   21.615    3.3281
   21.630    3.2649
   21.645    2.9805
   21.660    3.1280
   21.675    3.2017
   21.690    2.9805
   21.705    3.0016
   21.720    3.1596
   21.735    3.3281
   21.750    3.1280
   21.765    2.9910
   21.780    2.9910
   21.795    2.9489
   21.810    3.0332
   21.825    3.1385
   21.840    3.3913
   21.855    3.2754
   21.870    3.2122
   21.885    3.1490
   21.900    3.5282
   21.915    3.2649
   21.930    2.9700
   21.945    2.9173
   21.960    3.0648
   21.975    2.8436
   21.990    3.0016
   22.005    3.1596
   22.020    3.0332
   22.035    3.1385
   22.050    2.8752
   22.065    2.9384
   22.080    3.0332
   22.095    3.3807
   22.110    3.0648
   22.125    3.1596
   22.140    3.3281
   22.155    3.1490
   22.170    3.2017
   22.185    3.1701
   22.200    3.0753
   22.215    3.1806
   22.230    3.4650
   22.245    2.9068
   22.260    3.1806
   22.275    3.0964
   22.290    2.8436
   22.305    3.1280
   22.320    2.8120
   22.335    3.1596
   22.350    3.0016
   22.365    3.1385
   22.380    3.1490
   22.395    3.1912
   22.410    3.3175
   22.425    3.1912
   22.440    3.1806
   22.455    3.3702
   22.470    3.3386
   22.485    3.5808
   22.500    3.2754
   22.515    3.4755
   22.530    3.3913
   22.545    3.7599
   22.560    3.5176
   22.575    3.5598
   22.590    3.3491
   22.605    2.9910
   22.620    3.0964
   22.635    3.3807
   22.650    3.2438
   22.665    3.1490
   22.680    3.3386
   22.695    3.4650
   22.710    3.0753
   22.725    3.3281
   22.740    3.1069
   22.755    3.0648
   22.770    3.4650
   22.785    3.2438
   22.800    3.0437
   22.815    3.3807
   22.830    3.2333
   22.845    3.0437
   22.860    3.0648
   22.875    3.0226
   22.890    3.1806
   22.905    3.0964
   22.920    2.7909
   22.935    3.0226
   22.950    3.0648
   22.965    2.8331
   22.980    2.6751
   22.995    3.2754
   23.010    3.0226
   23.025    2.8752
   23.040    2.8331
   23.055    2.8963
   23.070    3.0753
   23.085    3.0121
   23.100    3.2859
   23.115    3.2227
   23.130    3.2333
   23.145    3.1174
   23.160    3.0648
   23.175    2.8963
   23.190    2.9068
   23.205    3.0437
   23.220    3.1806
   23.235    3.2754
   23.250    3.1490
   23.265    3.0016
   23.280    2.8857
   23.295    3.0542
   23.310    2.8857
   23.325    2.8225
   23.340    3.0016
   23.355    3.0016
   23.370    3.1701
   23.385    3.1385
   23.400    2.8541
   23.415    2.8541
   23.430    2.8963
   23.445    2.9068
   23.460    2.8436
   23.475    2.9384
   23.490    2.9279
   23.505    3.2333
   23.520    3.1701
   23.535    3.2017
   23.550    3.3491
   23.565    3.3491
   23.580    3.4229
   23.595    3.6862
   23.610    3.3175
   23.625    2.9595
   23.640    3.2859
   23.655    2.9805
   23.670    2.8436
   23.685    3.0753
   23.700    3.1806
   23.715    3.1806
   23.730    3.1806
   23.745    3.2227
   23.760    3.3175
   23.775    3.1174
   23.790    2.9384
   23.805    3.1596
   23.820    2.7699
   23.835    2.9384
   23.850    3.0121
   23.865    3.0016
   23.880    3.1701
   23.895    2.9068
   23.910    2.7278
   23.925    3.0016
   23.940    3.2754
   23.955    3.2965
   23.970    3.2017
   23.985    3.1280
   24.000    2.9173
   24.015    3.1912
   24.030    3.1701
   24.045    3.1806
   24.060    2.9595
   24.075    3.0332
   24.090    2.8752
   24.105    2.9805
   24.120    3.1912
   24.135    3.0332
   24.150    3.0226
   24.165    3.0648
   24.180    2.8541
   24.195    2.9068
   24.210    2.8541
   24.225    2.8541
   24.240    2.9910
   24.255    3.0121
   24.270    2.8225
   24.285    2.7067
   24.300    3.0753
   24.315    3.0648
   24.330    3.0964
   24.345    3.1174
   24.360    3.0858
   24.375    2.8331
   24.390    2.8015
   24.405    3.2227
   24.420    3.0226
   24.435    2.8331
   24.450    2.8225
   24.465    2.9700
   24.480    3.1385
   24.495    3.0648
   24.510    2.9910
   24.525    3.0121
   24.540    3.0648
   24.555    3.0753
   24.570    2.9068
   24.585    3.1490
   24.600    3.1280
   24.615    2.9068
   24.630    2.8225
   24.645    2.8857
   24.660    2.9805
   24.675    3.1069
   24.690    2.8331
   24.705    2.7172
   24.720    2.8015
   24.735    2.9910
   24.750    2.9595
   24.765    2.9595
   24.780    2.7909
   24.795    3.0121
   24.810    3.1596
   24.825    3.0016
   24.840    3.0016
   24.855    3.0226
   24.870    3.1596
   24.885    2.9910
   24.900    3.2227
   24.915    3.2649
   24.930    2.9489
   24.945    3.1174
   24.960    2.8752
   24.975    2.9384
   24.990    2.9384
   25.005    3.0332
   25.020    2.9384
   25.035    3.0753
   25.050    3.1385
   25.065    2.8541
   25.080    3.0121
   25.095    3.0753
   25.110    3.0226
   25.125    2.8752
   25.140    3.0542
   25.155    3.1069
   25.170    2.9595
   25.185    2.8541
   25.200    2.7593
   25.215    2.4750
   25.230    2.8015
   25.245    2.9805
   25.260    3.0226
   25.275    3.2122
   25.290    3.0332
   25.305    3.0016
   25.320    3.3175
   25.335    3.3175
   25.350    3.5387
   25.365    2.9805
   25.380    2.7278
   25.395    2.8331
   25.410    3.0226
   25.425    2.9910
   25.440    3.0226
   25.455    3.3807
   25.470    3.3281
   25.485    3.2122
   25.500    2.9700
   25.515    3.0542
   25.530    3.2859
   25.545    2.8225
   25.560    3.1385
   25.575    3.4650
   25.590    3.0964
   25.605    2.9805
   25.620    3.0226
   25.635    3.0858
   25.650    2.9068
   25.665    2.8963
   25.680    3.0332
   25.695    2.8120
   25.710    2.9595
   25.725    2.8541
   25.740    2.8647
   25.755    3.0121
   25.770    3.1596
   25.785    3.0753
   25.800    2.8857
   25.815    2.7909
   25.830    2.8120
   25.845    2.8857
   25.860    2.8541
   25.875    2.4329
   25.890    2.7699
   25.905    2.7488
   25.920    2.5066
   25.935    2.6330
   25.950    2.7278
   25.965    2.8015
   25.980    2.8963
   25.995    2.9910
   26.010    3.0542
   26.025    2.6330
   26.040    2.6330
   26.055    2.5487
   26.070    2.6856
   26.085    2.7488
   26.100    2.6119
   26.115    2.8436
   26.130    2.9279
   26.145    3.0016
   26.160    2.8541
   26.175    3.0964
   26.190    2.8857
   26.205    2.7593
   26.220    2.6435
   26.235    2.6646
   26.250    2.7172
   26.265    2.4645
   26.280    2.5592
   26.295    2.7488
   26.310    2.4329
   26.325    2.8541
   26.340    2.7067
   26.355    2.7172
   26.370    2.6119
   26.385    2.6751
   26.400    2.8647
   26.415    2.7909
   26.430    2.7067
   26.445    2.8436
   26.460    2.6119
   26.475    2.4223
   26.490    2.6224
   26.505    2.6856
   26.520    2.6540
   26.535    2.7593
   26.550    2.8541
   26.565    2.5698
   26.580    2.8436
   26.595    2.7383
   26.610    2.6014
   26.625    2.6856
   26.640    2.5698
   26.655    2.4645
   26.670    2.6646
   26.685    2.5908
   26.700    2.6330
   26.715    2.6119
   26.730    2.6330
   26.745    2.3486
   26.760    2.2854
   26.775    2.7699
   26.790    2.4329
   26.805    2.6119
   26.820    2.4855
   26.835    2.5276
   26.850    2.7699
   26.865    3.0332
   26.880    2.8752
   26.895    2.6751
   26.910    2.6435
   26.925    2.5382
   26.940    2.7172
   26.955    2.3381
   26.970    2.7278
   26.985    2.6540
   27.000    2.5698
   27.015    2.4855
   27.030    2.4013
   27.045    2.5803
   27.060    2.3065
   27.075    2.4645
   27.090    2.5066
   27.105    2.6330
   27.120    2.4961
   27.135    2.5066
   27.150    2.6435
   27.165    2.6330
   27.180    2.5487
   27.195    2.5592
   27.210    2.7383
   27.225    2.4539
   27.240    2.4223
   27.255    2.2749
   27.270    2.4855
   27.285    2.6014
   27.300    2.8015
   27.315    2.6119
   27.330    2.7488
   27.345    2.4118
   27.360    2.4750
   27.375    2.6856
   27.390    2.6962
   27.405    2.8015
   27.420    2.6014
   27.435    2.4750
   27.450    2.4645
   27.465    2.5382
   27.480    2.5171
   27.495    2.4434
   27.510    2.5592
   27.525    2.6330
   27.540    2.5803
   27.555    2.4329
   27.570    2.4750
   27.585    2.3907
   27.600    2.5487
   27.615    2.4539
   27.630    2.4645
   27.645    2.3802
   27.660    2.7593
   27.675    2.5066
   27.690    2.3275
   27.705    2.3381
   27.720    2.3697
   27.735    2.4855
   27.750    2.5171
   27.765    2.6540
   27.780    2.4329
   27.795    2.5592
   27.810    2.5276
   27.825    2.5908
   27.840    2.4539
   27.855    2.5592
   27.870    2.1696
   27.885    2.2328
   27.900    2.2959
   27.915    2.2959
   27.930    2.6014
   27.945    2.2328
   27.960    2.2643
   27.975    2.4223
   27.990    2.5276
   28.005    2.5803
   28.020    2.4539
   28.035    2.4118
   28.050    2.4329
   28.065    2.4223
   28.080    2.3802
   28.095    2.2222
   28.110    2.5276
   28.125    2.2854
   28.140    2.4961
   28.155    2.4329
   28.170    2.4118
   28.185    2.3170
   28.200    2.3170
   28.215    2.5382
   28.230    2.5487
   28.245    2.2959
   28.260    2.3065
   28.275    2.4434
   28.290    2.5382
   28.305    2.4223
   28.320    2.2328
   28.335    2.3697
   28.350    2.3065
   28.365    2.3591
   28.380    2.4645
   28.395    2.3486
   28.410    2.3381
   28.425    2.1696
   28.440    2.3802
   28.455    2.3802
   28.470    2.5698
   28.485    2.3275
   28.500    2.2012
   28.515    2.2222
   28.530    2.1801
   28.545    2.3275
   28.560    2.2749
   28.575    2.4118
   28.590    2.1696
   28.605    2.1906
   28.620    2.4539
   28.635    2.3802
   28.650    2.5908
   28.665    2.5171
   28.680    2.3697
   28.695    2.4013
   28.710    2.0432
   28.725    2.1169
   28.740    2.3065
   28.755    2.2854
   28.770    2.1696
   28.785    2.4013
   28.800    2.4013
   28.815    2.3065
   28.830    2.0221
   28.845    2.2012
   28.860    2.2538
   28.875    2.3697
   28.890    2.5276
   28.905    2.5487
   28.920    2.2222
   28.935    2.1801
   28.950    2.2643
   28.965    2.1380
   28.980    2.2643
   28.995    2.1801
   29.010    2.2222
   29.025    2.2749
   29.040    2.2643
   29.055    2.2854
   29.070    2.0958
   29.085    2.2538
   29.100    2.2854
   29.115    2.1906
   29.130    2.4013
   29.145    2.3907
   29.160    2.2328
   29.175    2.3802
   29.190    2.1064
   29.205    2.3381
   29.220    2.0011
   29.235    2.2749
   29.250    2.2117
   29.265    2.1906
   29.280    2.2643
   29.295    2.1590
   29.310    2.0748
   29.325    2.1485
   29.340    2.3697
   29.355    2.2117
   29.370    2.3275
   29.385    2.2222
   29.400    2.2117
   29.415    2.2854
   29.430    2.3697
   29.445    2.2117
   29.460    2.2959
   29.475    2.3802
   29.490    2.3802
   29.505    2.3381
   29.520    2.2854
   29.535    2.2643
   29.550    2.2749
   29.565    2.1169
   29.580    2.1485
   29.595    1.9905
   29.610    2.1064
   29.625    2.1696
   29.640    2.2117
   29.655    2.2222
   29.670    2.4013
   29.685    2.4434
   29.700    2.0537
   29.715    2.2222
   29.730    2.2433
   29.745    2.3486
   29.760    2.1169
   29.775    2.1274
   29.790    2.2959
   29.805    2.0748
   29.820    2.1169
   29.835    2.3170
   29.850    2.1696
   29.865    2.0326
   29.880    1.9695
   29.895    2.0853
   29.910    2.2012
   29.925    2.0326
   29.940    2.1485
   29.955    2.0748
   29.970    2.3697
   29.985    2.4434
   30.000    2.2538
   30.015    2.1696
   30.030    2.0958
   30.045    2.1485
   30.060    2.2117
   30.075    2.1274
   30.090    2.2643
   30.105    2.0537
   30.120    2.0642
   30.135    2.0221
   30.150    1.9063
   30.165    2.0011
   30.180    2.0958
   30.195    2.2538
   30.210    2.1274
   30.225    2.1801
   30.240    2.1064
   30.255    2.1906
   30.270    2.0958
   30.285    2.0326
   30.300    2.1590
   30.315    2.2222
   30.330    2.2012
   30.345    1.9168
   30.360    1.9168
   30.375    2.2643
   30.390    2.1064
   30.405    1.9800
   30.420    1.8536
   30.435    2.1169
   30.450    1.8957
   30.465    2.0011
   30.480    2.0853
   30.495    2.1590
   30.510    1.9063
   30.525    2.1801
   30.540    2.2012
   30.555    2.0221
   30.570    1.9800
   30.585    1.8431
   30.600    2.1274
   30.615    2.0011
   30.630    1.8957
   30.645    1.9800
   30.660    1.8852
   30.675    2.0958
   30.690    1.9905
   30.705    1.9800
   30.720    1.9905
   30.735    1.9379
   30.750    1.9800
   30.765    2.1274
   30.780    2.0116
   30.795    2.0326
   30.810    2.0432
   30.825    2.0326
   30.840    1.9905
   30.855    2.1064
   30.870    1.8536
   30.885    1.9589
   30.900    2.0748
   30.915    1.9379
   30.930    1.8957
   30.945    2.0432
   30.960    1.7272
   30.975    1.8325
   30.990    1.8641
   31.005    1.8431
   31.020    1.8747
   31.035    1.9273
   31.050    1.8957
   31.065    1.9273
   31.080    2.0011
   31.095    1.7694
   31.110    1.7904
   31.125    1.8957
   31.140    1.7799
   31.155    1.9589
   31.170    1.9168
   31.185    2.2643
   31.200    2.0326
   31.215    1.8536
   31.230    1.8325
   31.245    1.6324
   31.260    1.9905
   31.275    2.1169
   31.290    1.9589
   31.305    1.7904
   31.320    1.9273
   31.335    2.1169
   31.350    2.1064
   31.365    1.8325
   31.380    1.9800
   31.395    1.9063
   31.410    1.8641
   31.425    1.9589
   31.440    1.8536
   31.455    1.9063
   31.470    1.8641
   31.485    1.9168
   31.500    2.0011
   31.515    1.9379
   31.530    1.9063
   31.545    2.0011
   31.560    1.8431
   31.575    2.0011
   31.590    2.0748
   31.605    1.8009
   31.620    1.9063
   31.635    1.9168
   31.650    2.0432
   31.665    2.1064
   31.680    2.1064
   31.695    2.0116
   31.710    2.0116
   31.725    2.2959
   31.740    2.3802
   31.755    2.1274
   31.770    2.2328
   31.785    2.1485
   31.800    2.1169
   31.815    2.2643
   31.830    2.1590
   31.845    2.6540
   31.860    2.6962
   31.875    2.4961
   31.890    2.0853
   31.905    2.0221
   31.920    1.9484
   31.935    1.8747
   31.950    1.8009
   31.965    1.7799
   31.980    1.7378
   31.995    2.0432
   32.010    1.7799
   32.025    1.6746
   32.040    1.5798
   32.055    1.6430
   32.070    1.7588
   32.085    1.9695
   32.100    1.8220
   32.115    1.8852
   32.130    1.9484
   32.145    1.8641
   32.160    1.8115
   32.175    1.7904
   32.190    1.5587
   32.205    1.4955
   32.220    1.6114
   32.235    1.6851
   32.250    1.6219
   32.265    1.7272
   32.280    1.8325
   32.295    1.8325
   32.310    1.8431
   32.325    1.6114
   32.340    1.8009
   32.355    1.9063
   32.370    1.9063
   32.385    1.7588
   32.400    1.6640
   32.415    1.7904
   32.430    1.6746
   32.445    1.8641
   32.460    1.7588
   32.475    1.7588
   32.490    1.8220
   32.505    1.8536
   32.520    1.8852
   32.535    1.7799
   32.550    1.6640
   32.565    1.7167
   32.580    1.4534
   32.595    1.5903
   32.610    1.6219
   32.625    1.8325
   32.640    1.7799
   32.655    1.5271
   32.670    1.6956
   32.685    1.7799
   32.700    1.6430
   32.715    1.6324
   32.730    1.6956
   32.745    1.6324
   32.760    1.6324
   32.775    1.8115
   32.790    1.8431
   32.805    1.8220
   32.820    1.6324
   32.835    1.5692
   32.850    1.8115
   32.865    1.7167
   32.880    1.3797
   32.895    1.4218
   32.910    1.6956
   32.925    1.6956
   32.940    1.6535
   32.955    1.9063
   32.970    1.7272
   32.985    1.5692
   33.000    1.7799
   33.015    1.7062
   33.030    1.5271
   33.045    1.4534
   33.060    1.5692
   33.075    1.6008
   33.090    1.5271
   33.105    1.6746
   33.120    1.4955
   33.135    1.5798
   33.150    1.6114
   33.165    1.5587
   33.180    1.6324
   33.195    1.6114
   33.210    1.5482
   33.225    1.6008
   33.240    1.5798
   33.255    1.7167
   33.270    1.5061
   33.285    1.5692
   33.300    1.5482
   33.315    1.5166
   33.330    1.8220
   33.345    1.6219
   33.360    1.6430
   33.375    1.6324
   33.390    1.6219
   33.405    1.6851
   33.420    1.7483
   33.435    1.5166
   33.450    1.3586
   33.465    1.4955
   33.480    1.6008
   33.495    1.7694
   33.510    1.6956
   33.525    1.4534
   33.540    1.4007
   33.555    1.5798
   33.570    1.6324
   33.585    1.5587
   33.600    1.6114
   33.615    1.6956
   33.630    1.5271
   33.645    1.7483
   33.660    1.8325
   33.675    1.5903
   33.690    1.6324
   33.705    1.6430
   33.720    1.4955
   33.735    1.5271
   33.750    1.5166
   33.765    1.5271
   33.780    1.4113
   33.795    1.5692
   33.810    1.5061
   33.825    1.4639
   33.840    1.6851
   33.855    1.5903
   33.870    1.5166
   33.885    1.7378
   33.900    1.7167
   33.915    1.7272
   33.930    1.8852
   33.945    1.8747
   33.960    1.7272
   33.975    1.7588
   33.990    1.8009
   34.005    1.5166
   34.020    1.5166
   34.035    1.4745
   34.050    1.7167
   34.065    1.6324
   34.080    1.6008
   34.095    1.4955
   34.110    1.5903
   34.125    1.7483
   34.140    1.4745
   34.155    1.3902
   34.170    1.3797
   34.185    1.6430
   34.200    1.4218
   34.215    1.4955
   34.230    1.4218
   34.245    1.4639
   34.260    1.4323
   34.275    1.4639
   34.290    1.5061
   34.305    1.3586
   34.320    1.3797
   34.335    1.5587
   34.350    1.3797
   34.365    1.2954
   34.380    1.5271
   34.395    1.5271
   34.410    1.3902
   34.425    1.2954
   34.440    1.4218
   34.455    1.4850
   34.470    1.4218
   34.485    1.3586
   34.500    1.2217
   34.515    1.5166
   34.530    1.4745
   34.545    1.2533
   34.560    1.2533
   34.575    1.3691
   34.590    1.6008
   34.605    1.4850
   34.620    1.5903
   34.635    1.2744
   34.650    1.4007
   34.665    1.4323
   34.680    1.3902
   34.695    1.5903
   34.710    1.6324
   34.725    1.5061
   34.740    1.4745
   34.755    1.2638
   34.770    1.2849
   34.785    1.3797
   34.800    1.4955
   34.815    1.3902
   34.830    1.3375
   34.845    1.4639
   34.860    1.4323
   34.875    1.6430
   34.890    1.3270
   34.905    1.4429
   34.920    1.4113
   34.935    1.2638
   34.950    1.2849
   34.965    1.2217
   34.980    1.5377
   34.995    1.2849
   35.010    1.2849
   35.025    1.4113
   35.040    1.4007
   35.055    1.2954
   35.070    1.4534
   35.085    1.3586
   35.100    1.4323
   35.115    1.3165
   35.130    1.3375
   35.145    1.3165
   35.160    1.2112
   35.175    1.2744
   35.190    1.1585
   35.205    1.1480
   35.220    1.2428
   35.235    1.3586
   35.250    1.1796
   35.265    1.1796
   35.280    1.2638
   35.295    1.1796
   35.310    1.2744
   35.325    1.2428
   35.340    1.2954
   35.355    1.2744
   35.370    1.2322
   35.385    1.3691
   35.400    1.3797
   35.415    1.2217
   35.430    1.3586
   35.445    1.2849
   35.460    1.1901
   35.475    1.3902
   35.490    1.3060
   35.505    1.0953
   35.520    1.1901
   35.535    1.1901
   35.550    1.3797
   35.565    1.1585
   35.580    1.3270
   35.595    1.4218
   35.610    1.2533
   35.625    1.2744
   35.640    1.3481
   35.655    1.4007
   35.670    1.3481
   35.685    1.2744
   35.700    1.3586
   35.715    1.3375
   35.730    1.3481
   35.745    1.2638
   35.760    1.2744
   35.775    1.0848
   35.790    1.2533
   35.805    1.2322
   35.820    1.2217
   35.835    1.1269
   35.850    1.0637
   35.865    1.3060
   35.880    1.3902
   35.895    1.2112
   35.910    1.2006
   35.925    1.2112
   35.940    1.2849
   35.955    1.3902
   35.970    1.3165
   35.985    1.3165
   36.000    1.2638
   36.015    1.2638
   36.030    1.2322
   36.045    1.1480
   36.060    1.2217
   36.075    1.1058
   36.090    1.0637
   36.105    1.1374
   36.120    1.3586
   36.135    1.1480
   36.150    1.1796
   36.165    1.1374
   36.180    1.1796
   36.195    1.1164
   36.210    1.2112
   36.225    1.2322
   36.240    1.2638
   36.255    1.2217
   36.270    1.3270
   36.285    1.1690
   36.300    1.3375
   36.315    1.3270
   36.330    1.1480
   36.345    1.0111
   36.360    1.0321
   36.375    1.2112
   36.390    1.0742
   36.405    1.1480
   36.420    1.2006
   36.435    1.0216
   36.450    1.0111
   36.465    1.1585
   36.480    1.2006
   36.495    1.0848
   36.510    1.1269
   36.525    1.1164
   36.540    1.1690
   36.555    1.2112
   36.570    1.2744
   36.585    1.0848
   36.600    1.2006
   36.615    1.1585
   36.630    1.3270
   36.645    1.2112
   36.660    1.2849
   36.675    1.0848
   36.690    1.2006
   36.705    1.0637
   36.720    1.0848
   36.735    1.2428
   36.750    1.2533
   36.765    1.2849
   36.780    1.0848
   36.795    1.0321
   36.810    1.1796
   36.825    1.2112
   36.840    1.1058
   36.855    0.9689
   36.870    1.2217
   36.885    1.1058
   36.900    0.9268
   36.915    1.0216
   36.930    1.0848
   36.945    1.2954
   36.960    1.2112
   36.975    1.1269
   36.990    1.1058
   37.005    1.0005
   37.020    1.0953
   37.035    1.2322
   37.050    0.9373
   37.065    1.0216
   37.080    1.0637
   37.095    1.1269
   37.110    1.2006
   37.125    1.2112
   37.140    1.0005
   37.155    1.1164
   37.170    1.2217
   37.185    1.2954
   37.200    1.0953
   37.215    1.0953
   37.230    1.3060
   37.245    1.0953
   37.260    0.9689
   37.275    1.0532
   37.290    1.0532
   37.305    1.0532
   37.320    1.1269
   37.335    1.1269
   37.350    1.1585
   37.365    1.0532
   37.380    1.0532
   37.395    1.0427
   37.410    1.1901
   37.425    1.0742
   37.440    0.9373
   37.455    1.1901
   37.470    1.2744
   37.485    1.1901
   37.500    1.1690
   37.515    1.1164
   37.530    1.1796
   37.545    1.1901
   37.560    1.1374
   37.575    1.1269
   37.590    1.1164
   37.605    0.8636
   37.620    1.0111
   37.635    1.2006
   37.650    1.2322
   37.665    0.9479
   37.680    1.0111
   37.695    1.2954
   37.710    1.1585
   37.725    1.0005
   37.740    1.0427
   37.755    1.0216
   37.770    0.9373
   37.785    1.0953
   37.800    1.0532
   37.815    1.0321
   37.830    1.0848
   37.845    1.0427
   37.860    0.9900
   37.875    1.0532
   37.890    1.1164
   37.905    1.1269
   37.920    1.1480
   37.935    1.0953
   37.950    1.0321
   37.965    1.1585
   37.980    1.2428
   37.995    0.9584
   38.010    1.0005
   38.025    0.9795
   38.040    1.1058
   38.055    1.2322
   38.070    1.1690
   38.085    1.0321
   38.100    1.0111
   38.115    1.0532
   38.130    0.8531
   38.145    0.9268
   38.160    0.9268
   38.175    1.1164
   38.190    0.8425
   38.205    0.9900
   38.220    1.2428
   38.235    1.0953
   38.250    1.0111
   38.265    1.0111
   38.280    1.0953
   38.295    1.1901
   38.310    1.1058
   38.325    1.0742
   38.340    1.0637
   38.355    1.0321
   38.370    0.9900
   38.385    1.0532
   38.400    1.0005
   38.415    1.0427
   38.430    1.2112
   38.445    1.0111
   38.460    0.9795
   38.475    0.9689
   38.490    1.0216
   38.505    1.0848
   38.520    1.0848
   38.535    0.9900
   38.550    1.1058
   38.565    1.0321
   38.580    0.9268
   38.595    1.0427
   38.610    1.1164
   38.625    1.2428
   38.640    1.0427
   38.655    1.0637
   38.670    1.0953
   38.685    1.0848
   38.700    0.9373
   38.715    1.0848
   38.730    1.0005
   38.745    1.1690
   38.760    1.0742
   38.775    1.1269
   38.790    1.0216
   38.805    1.0427
   38.820    1.0216
   38.835    1.1796
   38.850    1.0005
   38.865    0.9479
   38.880    0.8531
   38.895    1.0427
   38.910    1.1058
   38.925    1.0742
   38.940    1.1269
   38.955    1.0742
   38.970    1.0637
   38.985    1.0953
   39.000    1.0637
   39.015    1.0005
   39.030    0.9268
   39.045    1.0532
   39.060    1.0742
   39.075    0.8425
   39.090    1.1796
   39.105    1.1901
   39.120    1.0637
   39.135    1.1480
   39.150    0.9795
   39.165    1.0953
   39.180    0.9373
   39.195    1.0532
   39.210    1.2533
   39.225    1.3270
   39.240    1.0848
   39.255    1.1690
   39.270    1.0532
   39.285    0.9163
   39.300    1.0427
   39.315    1.0848
   39.330    1.1269
   39.345    0.9689
   39.360    0.9689
   39.375    1.0532
   39.390    1.0216
   39.405    1.0742
   39.420    1.1374
   39.435    1.1164
   39.450    1.1269
   39.465    1.0321
   39.480    1.2217
   39.495    1.0848
   39.510    1.1164
   39.525    1.0321
   39.540    0.9795
   39.555    1.0111
   39.570    1.0005
   39.585    0.8741
   39.600    1.0321
   39.615    1.1164
   39.630    0.9373
   39.645    1.0216
   39.660    1.0111
   39.675    0.9584
   39.690    0.9584
   39.705    1.0637
   39.720    1.0005
   39.735    1.0953
   39.750    1.1374
   39.765    1.1058
   39.780    1.0532
   39.795    1.0111
   39.810    1.0111
   39.825    1.0321
   39.840    1.0005
   39.855    0.9900
   39.870    1.0216
   39.885    0.9689
   39.900    1.1480
   39.915    1.0321
   39.930    1.0953
   39.945    0.9479
   39.960    0.8847
   39.975    0.9163
   39.990    1.1480
