    1.500   21.4218
    1.515   21.5903
    1.530   21.2533
    1.545   20.5687
    1.560   19.3154
    1.575   19.3260
    1.590   18.5045
    1.605   17.5882
    1.620   18.0832
    1.635   17.9463
    1.650   16.9879
    1.665   16.7667
    1.680   16.7035
    1.695   16.2717
    1.710   15.8083
    1.725   15.1343
    1.740   15.5872
    1.755   15.0922
    1.770   14.7341
    1.785   14.1969
    1.800   13.8915
    1.815   14.1864
    1.830   13.7546
    1.845   12.9226
    1.860   12.9331
    1.875   12.7330
    1.890   12.0169
    1.905   11.8694
    1.920   12.2801
    1.935   12.4487
    1.950   11.7430
    1.965   12.0906
    1.980   12.1748
    1.995   11.4797
    2.010   11.2375
    2.025   11.2059
    2.040   11.0795
    2.055   11.3849
    2.070   10.9742
    2.085   10.4792
    2.100   10.3002
    2.115   10.2791
    2.130    9.9842
    2.145   10.2264
    2.160    9.5419
    2.175    9.8052
    2.190    9.7630
    2.205    9.3102
    2.220    9.7841
    2.235    9.3839
    2.250    9.2259
    2.265    9.0890
    2.280    9.0890
    2.295    8.8573
    2.310    8.8152
    2.325    8.6361
    2.340    8.4255
    2.355    8.5940
    2.370    8.6151
    2.385    8.5835
    2.400    8.3939
    2.415    8.1517
    2.430    8.7625
    2.445    8.3307
    2.460    7.8462
    2.475    8.0042
    2.490    8.0885
    2.505    8.1095
    2.520    7.8989
    2.535    7.8041
    2.550    7.9410
    2.565    7.8357
    2.580    7.5303
    2.595    7.2143
    2.610    7.5619
    2.625    7.4250
    2.640    7.4039
    2.655    7.3196
    2.670    7.2880
    2.685    7.0563
    2.700    7.0142
    2.715    7.4355
    2.730    7.4987
    2.745    7.3828
    2.760    7.0248
    2.775    7.4144
    2.790    7.2880
    2.805    7.1722
    2.820    6.7299
    2.835    6.8984
    2.850    7.0669
    2.865    6.8668
    2.880    6.6140
    2.895    6.6667
    2.910    6.3612
    2.925    6.8141
    2.940    6.7615
    2.955    6.3402
    2.970    6.5824
    2.985    6.4560
    3.000    6.0348
    3.015    6.3507
    3.030    6.3823
    3.045    6.1190
    3.060    6.1506
    3.075    6.2981
    3.090    6.2349
    3.105    6.3507
    3.120    6.3086
    3.135    6.4139
    3.150    6.2138
    3.165    5.8662
    3.180    5.8768
    3.195    6.2454
    3.210    6.1401
    3.225    6.3718
    3.240    6.0664
    3.255    6.1506
    3.270    5.8873
    3.285    6.0769
    3.300    6.1611
    3.315    5.9294
    3.330    6.2243
    3.345    6.0979
    3.360    6.0348
    3.375    6.0979
    3.390    5.8768
    3.405    5.9821
    3.420    5.8031
    3.435    6.0348
    3.450    6.3296
    3.465    5.9084
    3.480    5.4660
    3.495    5.7083
    3.510    5.5924
    3.525    5.8452
    3.540    5.6661
    3.555    5.7188
    3.570    6.0348
    3.585    6.2454
    3.600    5.9084
    3.615    5.9716
    3.630    5.5819
    3.645    5.5924
    3.660    5.3502
    3.675    5.5503
    3.690    5.8347
    3.705    5.7609
    3.720    5.9821
    3.735    5.7083
    3.750    5.5292
    3.765    6.1085
    3.780    5.9926
    3.795    5.6977
    3.810    5.6767
    3.825    5.6029
    3.840    5.4344
    3.855    5.8662
    3.870    5.6345
    3.885    5.8452
    3.900    5.7293
    3.915    6.0558
    3.930    5.6872
    3.945    5.4344
    3.960    5.5924
    3.975    5.7188
    3.990    5.8136
    4.005    5.3712
    4.020    5.7188
    4.035    5.6029
    4.050    5.6345
    4.065    5.8136
    4.080    6.1506
    4.095    5.5819
    4.110    5.6345
    4.125    5.6872
    4.140    6.0874
    4.155    5.8662
    4.170    5.6661
    4.185    5.7820
    4.200    5.8662
    4.215    5.4871
    4.230    5.6345
    4.245    5.4871
    4.260    5.4344
    4.275    5.4028
    4.290    5.5082
    4.305    5.4450
    4.320    5.7820
    4.335    6.3507
    4.350    5.9084
    4.365    5.6872
    4.380    5.4450
    4.395    5.9505
    4.410    5.7715
    4.425    5.7083
    4.440    5.3818
    4.455    5.9716
    4.470    5.6135
    4.485    5.7083
    4.500    5.8031
    4.515    5.7504
    4.530    5.9610
    4.545    5.5398
    4.560    6.0348
    4.575    5.5819
    4.590    5.6345
    4.605    6.0348
    4.620    5.7399
    4.635    5.8557
    4.650    5.5503
    4.665    5.7820
    4.680    5.9610
    4.695    5.7188
    4.710    5.7188
    4.725    5.3397
    4.740    5.8557
    4.755    5.8347
    4.770    5.4660
    4.785    5.7715
    4.800    5.6872
    4.815    5.9400
    4.830    5.8347
    4.845    5.8978
    4.860    6.0558
    4.875    6.2981
    4.890    6.0453
    4.905    6.1190
    4.920    6.1295
    4.935    6.1401
    4.950    6.2770
    4.965    6.2875
    4.980    6.1085
    4.995    6.2349
    5.010    5.9716
    5.025    6.3507
    5.040    6.3507
    5.055    6.6351
    5.070    6.2875
    5.085    6.4982
    5.100    6.3612
    5.115    6.5192
    5.130    6.8141
    5.145    6.4244
    5.160    6.5613
    5.175    7.0458
    5.190    6.6877
    5.205    6.4982
    5.220    6.7720
    5.235    6.9510
    5.250    6.8878
    5.265    7.1301
    5.280    6.9194
    5.295    7.0037
    5.310    7.0879
    5.325    7.5408
    5.340    7.0774
    5.355    7.3723
    5.370    7.4987
    5.385    7.5408
    5.400    7.2880
    5.415    7.6672
    5.430    7.9726
    5.445    7.5408
    5.460    7.6251
    5.475    7.8357
    5.490    7.2565
    5.505    7.5303
    5.520    7.6567
    5.535    7.4250
    5.550    7.6145
    5.565    7.2143
    5.580    7.1827
    5.595    7.9621
    5.610    7.8462
    5.625    7.5408
    5.640    7.2565
    5.655    7.3512
    5.670    7.8462
    5.685    7.5513
    5.700    7.4882
    5.715    7.0248
    5.730    7.2143
    5.745    7.1090
    5.760    6.9089
    5.775    6.9405
    5.790    7.2038
    5.805    7.2459
    5.820    6.7299
    5.835    6.6983
    5.850    6.8457
    5.865    6.5298
    5.880    6.4666
    5.895    6.3402
    5.910    5.9821
    5.925    6.1822
    5.940    6.5824
    5.955    6.6667
    5.970    6.0242
    5.985    6.0979
    6.000    6.1611
    6.015    5.7399
    6.030    5.8136
    6.045    6.0348
    6.060    5.6135
    6.075    6.1401
    6.090    5.6977
    6.105    5.7399
    6.120    5.7293
    6.135    5.9821
    6.150    6.0979
    6.165    5.8347
    6.180    5.6135
    6.195    5.2027
    6.210    5.5398
    6.225    5.6029
    6.240    5.6135
    6.255    5.7609
    6.270    5.3397
    6.285    5.4871
    6.300    5.5924
    6.315    5.5398
    6.330    5.3502
    6.345    4.9921
    6.360    5.3818
    6.375    5.4239
    6.390    5.5187
    6.405    5.1606
    6.420    4.9816
    6.435    5.1501
    6.450    5.2133
    6.465    5.0132
    6.480    5.1606
    6.495    5.3397
    6.510    5.1711
    6.525    5.1922
    6.540    5.1395
    6.555    5.2975
    6.570    5.0026
    6.585    5.0869
    6.600    4.9078
    6.615    4.9605
    6.630    5.1290
    6.645    5.0974
    6.660    5.2765
    6.675    4.9816
    6.690    4.6130
    6.705    4.6761
    6.720    5.0869
    6.735    5.2133
    6.750    4.7183
    6.765    4.9394
    6.780    5.0658
    6.795    5.1290
    6.810    4.8341
    6.825    4.8657
    6.840    5.1395
    6.855    4.9289
    6.870    4.8763
    6.885    5.0026
    6.900    4.8236
    6.915    4.8973
    6.930    4.6656
    6.945    4.8868
    6.960    4.6130
    6.975    4.8868
    6.990    4.6656
    7.005    4.8236
    7.020    4.4550
    7.035    4.4971
    7.050    4.5498
    7.065    4.5498
    7.080    4.7288
    7.095    4.5603
    7.110    4.5287
    7.125    4.5498
    7.140    4.2233
    7.155    4.4234
    7.170    4.3391
    7.185    4.4444
    7.200    4.4971
    7.215    4.4023
    7.230    4.2443
    7.245    4.1496
    7.260    4.3602
    7.275    4.3391
    7.290    4.5919
    7.305    4.5287
    7.320    4.4444
    7.335    4.3391
    7.350    4.1180
    7.365    4.3497
    7.380    4.1811
    7.395    4.0126
    7.410    4.1496
    7.425    4.2338
    7.440    4.3813
    7.455    4.3813
    7.470    4.0864
    7.485    4.0232
    7.500    4.3602
    7.515    4.6130
    7.530    4.3707
    7.545    4.1074
    7.560    4.0021
    7.575    4.0864
    7.590    4.2443
    7.605    4.2443
    7.620    4.0337
    7.635    4.0548
    7.650    4.0442
    7.665    4.3813
    7.680    4.3813
    7.695    3.8968
    7.710    4.0021
    7.725    3.7915
    7.740    4.0232
    7.755    3.9916
    7.770    3.9389
    7.785    3.7283
    7.800    3.8547
    7.815    3.7704
    7.830    3.7809
    7.845    3.8652
    7.860    4.0548
    7.875    3.8020
    7.890    3.8757
    7.905    4.0232
    7.920    3.8968
    7.935    4.1706
    7.950    4.0442
    7.965    3.6651
    7.980    3.5598
    7.995    3.6651
    8.010    3.6230
    8.025    3.9600
    8.040    3.6335
    8.055    3.6967
    8.070    3.7283
    8.085    3.9389
    8.100    3.8336
    8.115    3.7388
    8.130    3.6967
    8.145    3.6335
    8.160    3.5492
    8.175    3.8441
    8.190    3.8441
    8.205    3.4966
    8.220    3.7809
    8.235    4.0442
    8.250    3.9494
    8.265    3.7072
    8.280    3.3175
    8.295    3.4334
    8.310    3.5176
    8.325    3.5282
    8.340    3.6335
    8.355    3.4966
    8.370    3.6124
    8.385    3.5071
    8.400    3.6967
    8.415    3.6862
    8.430    3.4650
    8.445    3.4018
    8.460    3.4123
    8.475    3.4755
    8.490    3.6440
    8.505    3.6651
    8.520    3.4439
    8.535    3.4755
    8.550    3.3807
    8.565    3.6862
    8.580    3.6651
    8.595    3.5282
    8.610    3.6019
    8.625    3.4860
    8.640    3.3913
    8.655    3.5492
    8.670    3.6651
    8.685    3.4650
    8.700    3.5071
    8.715    3.3807
    8.730    3.1280
    8.745    3.5387
    8.760    3.5282
    8.775    3.2227
    8.790    3.4439
    8.805    3.4229
    8.820    3.4439
    8.835    3.5808
    8.850    3.5492
    8.865    3.5808
    8.880    3.5071
    8.895    3.4439
    8.910    3.3807
    8.925    3.5071
    8.940    3.3807
    8.955    3.4966
    8.970    3.1806
    8.985    3.2543
    9.000    3.2754
    9.015    3.5176
    9.030    3.2965
    9.045    3.3491
    9.060    3.2333
    9.075    3.5176
    9.090    3.4229
    9.105    3.2965
    9.120    3.4229
    9.135    3.2965
    9.150    3.3175
    9.165    3.3070
    9.180    3.2965
    9.195    3.1806
    9.210    3.1490
    9.225    3.3386
    9.240    3.4966
    9.255    3.3070
    9.270    3.3070
    9.285    3.4439
    9.300    3.1596
    9.315    3.2965
    9.330    3.4439
    9.345    3.2649
    9.360    3.1701
    9.375    3.3597
    9.390    3.3913
    9.405    3.0964
    9.420    3.2438
    9.435    3.2122
    9.450    3.2227
    9.465    3.1912
    9.480    3.0858
    9.495    3.2965
    9.510    3.3913
    9.525    3.5492
    9.540    2.9384
    9.555    2.9910
    9.570    3.0437
    9.585    3.1174
    9.600    3.3386
    9.615    3.1280
    9.630    3.2965
    9.645    3.0964
    9.660    3.2754
    9.675    3.2333
    9.690    3.2122
    9.705    3.3807
    9.720    3.3702
    9.735    3.2227
    9.750    3.2227
    9.765    3.3175
    9.780    3.2333
    9.795    3.2543
    9.810    3.2122
    9.825    3.1174
    9.840    3.0858
    9.855    3.3070
    9.870    3.2017
    9.885    3.2122
    9.900    3.4755
    9.915    3.3913
    9.930    3.2543
    9.945    3.2122
    9.960    3.1701
    9.975    3.2017
    9.990    3.3807
   10.005    3.2649
   10.020    3.3070
   10.035    3.2333
   10.050    3.2438
   10.065    3.2543
   10.080    3.3386
   10.095    3.6440
   10.110    3.3597
   10.125    3.1912
   10.140    3.2859
   10.155    3.3597
   10.170    3.4755
   10.185    3.2122
   10.200    3.1596
   10.215    3.5282
   10.230    3.2438
   10.245    3.4123
   10.260    3.2649
   10.275    3.5176
   10.290    3.5387
   10.305    3.0964
   10.320    3.3175
   10.335    3.4439
   10.350    3.3281
   10.365    3.4860
   10.380    3.5387
   10.395    3.0437
   10.410    3.1385
   10.425    3.2017
   10.440    3.3597
   10.455    3.4018
   10.470    3.3702
   10.485    3.4018
   10.500    3.2227
   10.515    3.3281
   10.530    3.3281
   10.545    3.4966
   10.560    3.3491
   10.575    3.5492
   10.590    3.4334
   10.605    3.5914
   10.620    3.3070
   10.635    3.6862
   10.650    3.5176
   10.665    3.3491
   10.680    3.4229
   10.695    3.2649
   10.710    3.3807
   10.725    3.3386
   10.740    3.2543
   10.755    3.5492
   10.770    3.5492
   10.785    3.4650
   10.800    3.2649
   10.815    3.7388
   10.830    3.4650
   10.845    3.8231
   10.860    3.8757
   10.875    3.5703
   10.890    3.5703
   10.905    3.5808
   10.920    3.6335
   10.935    3.4018
   10.950    3.5071
   10.965    3.3070
   10.980    3.6651
   10.995    3.6967
   11.010    3.6862
   11.025    3.6124
   11.040    3.5071
   11.055    3.5071
   11.070    3.6230
   11.085    3.6124
   11.100    3.6440
   11.115    3.5914
   11.130    3.6124
   11.145    3.6124
   11.160    3.5914
   11.175    3.4018
   11.190    3.6651
   11.205    3.8125
   11.220    3.4544
   11.235    3.4544
   11.250    3.5703
   11.265    3.5492
   11.280    3.4860
   11.295    3.3597
   11.310    3.5598
   11.325    3.4755
   11.340    3.6862
   11.355    3.5598
   11.370    3.3491
   11.385    3.4123
   11.400    3.5282
   11.415    3.2438
   11.430    3.2333
   11.445    3.6335
   11.460    3.3281
   11.475    3.2122
   11.490    3.4229
   11.505    3.4544
   11.520    3.3386
   11.535    3.3491
   11.550    3.7283
   11.565    3.4860
   11.580    3.7177
   11.595    3.4966
   11.610    3.4334
   11.625    3.5071
   11.640    3.4334
   11.655    3.1701
   11.670    3.4229
   11.685    3.7072
   11.700    3.6651
   11.715    3.3491
   11.730    3.3807
   11.745    3.3281
   11.760    3.3386
   11.775    3.4334
   11.790    3.4334
   11.805    3.2438
   11.820    3.4650
   11.835    3.2859
   11.850    3.3281
   11.865    3.2859
   11.880    3.2649
   11.895    3.3070
   11.910    3.2122
   11.925    3.0964
   11.940    3.4123
   11.955    3.4650
   11.970    3.4650
   11.985    3.2227
   12.000    3.4018
   12.015    3.5808
   12.030    3.7493
   12.045    3.5808
   12.060    3.4334
   12.075    3.4650
   12.090    3.4966
   12.105    3.4544
   12.120    3.4018
   12.135    3.2543
   12.150    3.4334
   12.165    3.3807
   12.180    3.3702
   12.195    3.4755
   12.210    3.7072
   12.225    3.2017
   12.240    3.6019
   12.255    3.6335
   12.270    3.4439
   12.285    3.5492
   12.300    3.5387
   12.315    3.2017
   12.330    3.6967
   12.345    3.7599
   12.360    3.2543
   12.375    3.5282
   12.390    3.3175
   12.405    3.6335
   12.420    3.1596
   12.435    3.3281
   12.450    3.3597
   12.465    3.4650
   12.480    3.5282
   12.495    3.4544
   12.510    3.2333
   12.525    3.2649
   12.540    3.4860
   12.555    3.3702
   12.570    3.2965
   12.585    3.4123
   12.600    3.3175
   12.615    3.5808
   12.630    3.5808
   12.645    3.2543
   12.660    3.7493
   12.675    3.4966
   12.690    3.2227
   12.705    3.3070
   12.720    3.5176
   12.735    3.3281
   12.750    3.3281
   12.765    3.2438
   12.780    3.4544
   12.795    3.5387
   12.810    3.3386
   12.825    3.6124
   12.840    3.5703
   12.855    3.2227
   12.870    3.1701
   12.885    3.2649
   12.900    3.4755
   12.915    3.2438
   12.930    3.0964
   12.945    3.2333
   12.960    3.2333
   12.975    3.2754
   12.990    3.5703
   13.005    3.2649
   13.020    3.1596
   13.035    3.4334
   13.050    3.3491
   13.065    3.2333
   13.080    3.3491
   13.095    3.3913
   13.110    3.3386
   13.125    3.3807
   13.140    3.3070
   13.155    3.0648
   13.170    3.2227
   13.185    3.4334
   13.200    3.2754
   13.215    2.9489
   13.230    3.3702
   13.245    3.4439
   13.260    3.2438
   13.275    3.1912
   13.290    3.3175
   13.305    3.2017
   13.320    3.2227
   13.335    3.3281
   13.350    3.2965
   13.365    3.3807
   13.380    3.1596
   13.395    3.4544
   13.410    3.4650
   13.425    3.5914
   13.440    3.5492
   13.455    3.2543
   13.470    3.5492
   13.485    3.1490
   13.500    3.3491
   13.515    3.4439
   13.530    3.5282
   13.545    3.4755
   13.560    3.2754
   13.575    3.3070
   13.590    3.4123
   13.605    3.4018
   13.620    3.4439
   13.635    3.3070
   13.650    3.6124
   13.665    3.4755
   13.680    3.6335
   13.695    3.3702
   13.710    3.3386
   13.725    3.4439
   13.740    3.6124
   13.755    3.6967
   13.770    3.3597
   13.785    3.3913
   13.800    3.3386
   13.815    3.3175
   13.830    3.6335
   13.845    3.5492
   13.860    3.5492
   13.875    3.5387
   13.890    3.6230
   13.905    3.4650
   13.920    3.3807
   13.935    3.5387
   13.950    3.3597
   13.965    3.1596
   13.980    3.5282
   13.995    3.6546
   14.010    3.4755
   14.025    3.7493
   14.040    3.6230
   14.055    3.8863
   14.070    4.0021
   14.085    3.7388
   14.100    3.7072
   14.115    3.4544
   14.130    3.6335
   14.145    3.7493
   14.160    3.8020
   14.175    3.9284
   14.190    4.0021
   14.205    3.7809
   14.220    3.9073
   14.235    3.7388
   14.250    3.6546
   14.265    3.7493
   14.280    3.6756
   14.295    3.6335
   14.310    3.7915
   14.325    3.8020
   14.340    3.7177
   14.355    3.5703
   14.370    3.7072
   14.385    3.7915
   14.400    3.8441
   14.415    3.8652
   14.430    4.0442
   14.445    3.7915
   14.460    3.6440
   14.475    3.9705
   14.490    4.0021
   14.505    4.2127
   14.520    4.0337
   14.535    3.6862
   14.550    4.0232
   14.565    3.7388
   14.580    3.7704
   14.595    3.8125
   14.610    3.8125
   14.625    3.6440
   14.640    3.8336
   14.655    3.6124
   14.670    4.0337
   14.685    4.0232
   14.700    3.9494
   14.715    3.8020
   14.730    3.7072
   14.745    3.4439
   14.760    3.6546
   14.775    3.9600
   14.790    3.6019
   14.805    3.7704
   14.820    3.6967
   14.835    3.5282
   14.850    3.6124
   14.865    3.6967
   14.880    3.7599
   14.895    3.6756
   14.910    3.4334
   14.925    3.6230
   14.940    3.4123
   14.955    3.5282
   14.970    3.9284
   14.985    3.8231
   15.000    3.4755
   15.015    3.6124
   15.030    3.7599
   15.045    3.6651
   15.060    3.5914
   15.075    3.5914
   15.090    3.7388
   15.105    3.2649
   15.120    3.5071
   15.135    3.4018
   15.150    3.5808
   15.165    3.4123
   15.180    3.6651
   15.195    3.8231
   15.210    3.4650
   15.225    3.5071
   15.240    3.5914
   15.255    3.7704
   15.270    3.5071
   15.285    3.2333
   15.300    3.4860
   15.315    3.7283
   15.330    3.6019
   15.345    3.4755
   15.360    3.3913
   15.375    3.3491
   15.390    3.5598
   15.405    3.5387
   15.420    3.7072
   15.435    3.3702
   15.450    3.3175
   15.465    3.5176
   15.480    3.5387
   15.495    3.4123
   15.510    3.5282
   15.525    3.6862
   15.540    3.5914
   15.555    3.4439
   15.570    3.5387
   15.585    3.7493
   15.600    3.5703
   15.615    3.4860
   15.630    3.5914
   15.645    3.6440
   15.660    3.7072
   15.675    3.7072
   15.690    3.5914
   15.705    3.4229
   15.720    3.3702
   15.735    3.4439
   15.750    3.6335
   15.765    3.7915
   15.780    3.6335
   15.795    3.2333
   15.810    3.3597
   15.825    3.6335
   15.840    3.7493
   15.855    3.5176
   15.870    3.8231
   15.885    3.6862
   15.900    3.6862
   15.915    3.7704
   15.930    3.7177
   15.945    3.7177
   15.960    3.3281
   15.975    3.4966
   15.990    3.5703
   16.005    3.6862
   16.020    3.7283
   16.035    3.6546
   16.050    3.8968
   16.065    3.6230
   16.080    3.6019
   16.095    3.6546
   16.110    3.6651
   16.125    3.4334
   16.140    3.4018
   16.155    3.5703
   16.170    3.6546
   16.185    3.6546
   16.200    3.5914
   16.215    3.8125
   16.230    3.4860
   16.245    3.8336
   16.260    3.9389
   16.275    3.6967
   16.290    3.5071
   16.305    3.6124
   16.320    3.8652
   16.335    3.7809
   16.350    3.3070
   16.365    3.5808
   16.380    3.4650
   16.395    3.5071
   16.410    3.4650
   16.425    3.3702
   16.440    3.7599
   16.455    3.5071
   16.470    3.6230
   16.485    3.5808
   16.500    3.5387
   16.515    3.5808
   16.530    3.8441
   16.545    3.7388
   16.560    3.7809
   16.575    3.3702
   16.590    3.6756
   16.605    3.6230
   16.620    3.4650
   16.635    3.3070
   16.650    3.6756
   16.665    3.3913
   16.680    3.4123
   16.695    3.6335
   16.710    3.6335
   16.725    3.4439
   16.740    3.7493
   16.755    3.4860
   16.770    3.2543
   16.785    3.6335
   16.800    3.6019
   16.815    3.5703
   16.830    3.4860
   16.845    3.5703
   16.860    3.7283
   16.875    3.4544
   16.890    3.6230
   16.905    3.7493
   16.920    3.5387
   16.935    3.7599
   16.950    3.4544
   16.965    3.4334
   16.980    3.4334
   16.995    3.5071
   17.010    3.4123
   17.025    3.4018
   17.040    3.9073
   17.055    3.6335
   17.070    3.7177
   17.085    3.6440
   17.100    3.2859
   17.115    3.5492
   17.130    3.2965
   17.145    3.5914
   17.160    3.4966
   17.175    3.3597
   17.190    3.5914
   17.205    3.6756
   17.220    3.5703
   17.235    3.5808
   17.250    3.6862
   17.265    3.8020
   17.280    3.8336
   17.295    3.6862
   17.310    3.5387
   17.325    3.4018
   17.340    3.7283
   17.355    3.5282
   17.370    3.4966
   17.385    3.6440
   17.400    3.7493
   17.415    3.5071
   17.430    3.6862
   17.445    3.8020
   17.460    3.5282
   17.475    3.6019
   17.490    3.7177
   17.505    3.4966
   17.520    3.5071
   17.535    3.3702
   17.550    3.2965
   17.565    3.3913
   17.580    3.4860
   17.595    3.5492
   17.610    3.8336
   17.625    3.6546
   17.640    3.4229
   17.655    3.6124
   17.670    3.7177
   17.685    3.3597
   17.700    3.4966
   17.715    3.3913
   17.730    3.5808
   17.745    3.4123
   17.760    3.6651
   17.775    3.5914
   17.790    3.7704
   17.805    3.7493
   17.820    3.5387
   17.835    3.2543
   17.850    3.6230
   17.865    3.5176
   17.880    3.4860
   17.895    3.4544
   17.910    3.5387
   17.925    3.6335
   17.940    3.6230
   17.955    3.6335
   17.970    3.5071
   17.985    3.6230
   18.000    3.5703
   18.015    3.5492
   18.030    3.7072
   18.045    3.4334
   18.060    3.4650
   18.075    3.4860
   18.090    3.6230
   18.105    3.4123
   18.120    3.6124
   18.135    3.6124
   18.150    3.5808
   18.165    3.6440
   18.180    3.6019
   18.195    3.3913
   18.210    3.8231
   18.225    3.4755
   18.240    3.4123
   18.255    3.8757
   18.270    3.5492
   18.285    3.5808
   18.300    3.4755
   18.315    3.4860
   18.330    3.7915
   18.345    3.6230
   18.360    3.4439
   18.375    3.4229
   18.390    3.5387
   18.405    3.5703
   18.420    3.3807
   18.435    3.4018
   18.450    3.7493
   18.465    3.6019
   18.480    3.5808
   18.495    3.7283
   18.510    3.8547
   18.525    3.5492
   18.540    3.5598
   18.555    3.5808
   18.570    3.5176
   18.585    3.9073
   18.600    4.0021
   18.615    3.5914
   18.630    3.5598
   18.645    3.7388
   18.660    3.6440
   18.675    4.0126
   18.690    3.7915
   18.705    3.8020
   18.720    3.7704
   18.735    3.5703
   18.750    3.7388
   18.765    3.7177
   18.780    3.7388
   18.795    3.6440
   18.810    3.4966
   18.825    3.5703
   18.840    3.7493
   18.855    3.5598
   18.870    3.5387
   18.885    3.5176
   18.900    3.6862
   18.915    3.4650
   18.930    3.4229
   18.945    3.3175
   18.960    3.4439
   18.975    3.5914
   18.990    3.5598
   19.005    3.5387
   19.020    3.5492
   19.035    3.4544
   19.050    3.3702
   19.065    3.5176
   19.080    3.5282
   19.095    3.6967
   19.110    3.4123
   19.125    3.3070
   19.140    3.7388
   19.155    3.7704
   19.170    3.6230
   19.185    3.7388
   19.200    3.8441
   19.215    3.4334
   19.230    3.6967
   19.245    3.6019
   19.260    3.4860
   19.275    3.4123
   19.290    3.4334
   19.305    3.3913
   19.320    3.6651
   19.335    3.4966
   19.350    3.8020
   19.365    4.0232
   19.380    3.8231
   19.395    3.4755
   19.410    3.1912
   19.425    3.4334
   19.440    3.8231
   19.455    3.3702
   19.470    3.4966
   19.485    3.4334
   19.500    3.4966
   19.515    3.4860
   19.530    3.3807
   19.545    3.6230
   19.560    3.7599
   19.575    3.6967
   19.590    3.8547
   19.605    3.6651
   19.620    3.5598
   19.635    3.5703
   19.650    3.4334
   19.665    3.6862
   19.680    3.3491
   19.695    3.3386
   19.710    3.2859
   19.725    3.7915
   19.740    3.7809
   19.755    3.4860
   19.770    3.4755
   19.785    3.6756
   19.800    3.6862
   19.815    3.2438
   19.830    3.3597
   19.845    3.4439
   19.860    3.5387
   19.875    3.2859
   19.890    3.4439
   19.905    3.3913
   19.920    3.4650
   19.935    3.3281
   19.950    3.4755
   19.965    3.3281
   19.980    3.5808
   19.995    3.6335
   20.010    3.5703
   20.025    3.3070
   20.040    3.3913
   20.055    3.3491
   20.070    3.3491
   20.085    3.2333
   20.100    3.4123
   20.115    3.4544
   20.130    3.7493
   20.145    3.5071
   20.160    3.3807
   20.175    3.3281
   20.190    3.4755
   20.205    3.6335
   20.220    3.5808
   20.235    3.5914
   20.250    3.3702
   20.265    3.3491
   20.280    3.4650
   20.295    3.4229
   20.310    3.4860
   20.325    3.6230
   20.340    3.3913
   20.355    3.3702
   20.370    3.5387
   20.385    3.4544
   20.400    3.5492
   20.415    3.2227
   20.430    3.1490
   20.445    3.3807
   20.460    3.3807
   20.475    3.2965
   20.490    3.3491
   20.505    3.3175
   20.520    3.4966
   20.535    3.6651
   20.550    3.4755
   20.565    3.4229
   20.580    3.6019
   20.595    3.4755
   20.610    3.3281
   20.625    3.2965
   20.640    3.2754
   20.655    3.1701
   20.670    3.3281
   20.685    3.4334
   20.700    3.3175
   20.715    2.9384
   20.730    3.3491
   20.745    3.3597
   20.760    3.2227
   20.775    3.0753
   20.790    3.3175
   20.805    3.5387
   20.820    3.3807
   20.835    3.2122
   20.850    3.4229
   20.865    3.1806
   20.880    3.5282
   20.895    3.3913
   20.910    3.4229
   20.925    3.3281
   20.940    3.1280
   20.955    3.5176
   20.970    3.2649
   20.985    3.1385
   21.000    3.1806
   21.015    2.7488
   21.030    3.3070
   21.045    3.3702
   21.060    3.4123
   21.075    3.4123
   21.090    3.4018
   21.105    3.1912
   21.120    3.1701
   21.135    3.3175
   21.150    3.3386
   21.165    3.4755
   21.180    3.3491
   21.195    3.1912
   21.210    3.2754
   21.225    3.0964
   21.240    3.3070
   21.255    3.2227
   21.270    3.2017
   21.285    3.3597
   21.300    3.6124
   21.315    3.4966
   21.330    3.1596
   21.345    3.1280
   21.360    3.3597
   21.375    3.1069
   21.390    3.2227
   21.405    3.3175
   21.420    3.3175
   21.435    3.1596
   21.450    3.4123
   21.465    3.1701
   21.480    3.2227
   21.495    3.2965
   21.510    3.1596
   21.525    3.0858
   21.540    3.4018
   21.555    3.4650
   21.570    3.3175
   21.585    3.0648
   21.600    3.3281
   21.615    3.3702
   21.630    3.4123
   21.645    3.2333
   21.660    3.2754
   21.675    3.4123
   21.690    3.1069
   21.705    3.2333
   21.720    3.2649
   21.735    3.2017
   21.750    3.3281
   21.765    3.5071
   21.780    3.3913
   21.795    3.4544
   21.810    3.0964
   21.825    3.0648
   21.840    3.1596
   21.855    3.1385
   21.870    3.2227
   21.885    3.2333
   21.900    3.2122
   21.915    3.0437
   21.930    3.3913
   21.945    3.1174
   21.960    3.0437
   21.975    3.1596
   21.990    3.2438
   22.005    3.0542
   22.020    3.2543
   22.035    2.9173
   22.050    3.2438
   22.065    3.1596
   22.080    3.2333
   22.095    3.0016
   22.110    2.9700
   22.125    3.0332
   22.140    3.0121
   22.155    3.1385
   22.170    3.1069
   22.185    3.2438
   22.200    3.1490
   22.215    3.0437
   22.230    2.9700
   22.245    3.0016
   22.260    3.1596
   22.275    3.1912
   22.290    2.8120
   22.305    2.9068
   22.320    2.9173
   22.335    3.0964
   22.350    2.7909
   22.365    2.9910
   22.380    2.8647
   22.395    3.0121
   22.410    3.1490
   22.425    3.1806
   22.440    3.2333
   22.455    3.0542
   22.470    2.9489
   22.485    3.0016
   22.500    2.9595
   22.515    3.0858
   22.530    3.3702
   22.545    3.4018
   22.560    3.2649
   22.575    3.1174
   22.590    3.5282
   22.605    3.2227
   22.620    3.3070
   22.635    3.0753
   22.650    3.0964
   22.665    3.0121
   22.680    3.0121
   22.695    2.9279
   22.710    3.0437
   22.725    2.9805
   22.740    3.0437
   22.755    3.1069
   22.770    3.0121
   22.785    3.0332
   22.800    3.0753
   22.815    3.1174
   22.830    3.1701
   22.845    2.9805
   22.860    2.9384
   22.875    2.8225
   22.890    2.6856
   22.905    3.0648
   22.920    2.8963
   22.935    2.6646
   22.950    2.8541
   22.965    3.1174
   22.980    3.0016
   22.995    3.1385
   23.010    2.8752
   23.025    2.9489
   23.040    3.1280
   23.055    2.8120
   23.070    2.7172
   23.085    2.9805
   23.100    2.9384
   23.115    3.0121
   23.130    3.2649
   23.145    3.0753
   23.160    2.9279
   23.175    2.7699
   23.190    2.8647
   23.205    2.9068
   23.220    2.9068
   23.235    2.9489
   23.250    2.8752
   23.265    2.9068
   23.280    2.7699
   23.295    2.9595
   23.310    2.8225
   23.325    2.6856
   23.340    2.7172
   23.355    2.8752
   23.370    2.7383
   23.385    2.6224
   23.400    2.6330
   23.415    2.7278
   23.430    2.8015
   23.445    2.7699
   23.460    2.6435
   23.475    2.9805
   23.490    2.8647
   23.505    2.9595
   23.520    3.0648
   23.535    3.3702
   23.550    3.3281
   23.565    3.4123
   23.580    3.4334
   23.595    3.2649
   23.610    2.7909
   23.625    2.7488
   23.640    2.6751
   23.655    2.7172
   23.670    2.7699
   23.685    2.7278
   23.700    2.5803
   23.715    2.6856
   23.730    3.1280
   23.745    2.8963
   23.760    2.6646
   23.775    2.7699
   23.790    2.7172
   23.805    2.6962
   23.820    3.1701
   23.835    2.9595
   23.850    2.6119
   23.865    2.6962
   23.880    2.7172
   23.895    2.5276
   23.910    2.6751
   23.925    2.7804
   23.940    2.5803
   23.955    2.5908
   23.970    2.6435
   23.985    2.6540
   24.000    2.6224
   24.015    2.6856
   24.030    2.5171
   24.045    2.8225
   24.060    2.8752
   24.075    2.7067
   24.090    2.6224
   24.105    2.7067
   24.120    2.5592
   24.135    2.5592
   24.150    2.6435
   24.165    2.5698
   24.180    2.5276
   24.195    2.5066
   24.210    2.6646
   24.225    2.5803
   24.240    2.6014
   24.255    2.6856
   24.270    2.6435
   24.285    3.0964
   24.300    2.8015
   24.315    2.6014
   24.330    2.6224
   24.345    2.5276
   24.360    2.6962
   24.375    2.5382
   24.390    2.4750
   24.405    2.4961
   24.420    2.6330
   24.435    2.7909
   24.450    2.7067
   24.465    2.7383
   24.480    2.6119
   24.495    2.4329
   24.510    2.3802
   24.525    2.3802
   24.540    2.6540
   24.555    2.6224
   24.570    2.6224
   24.585    2.6646
   24.600    2.5803
   24.615    2.5066
   24.630    2.7067
   24.645    2.6014
   24.660    2.4329
   24.675    2.4539
   24.690    2.7383
   24.705    2.4223
   24.720    2.2538
   24.735    2.4223
   24.750    2.5592
   24.765    2.7699
   24.780    2.5908
   24.795    2.5276
   24.810    2.6540
   24.825    2.4855
   24.840    2.4855
   24.855    2.5382
   24.870    2.5592
   24.885    2.6119
   24.900    2.6435
   24.915    2.5698
   24.930    2.5487
   24.945    2.5171
   24.960    2.5171
   24.975    2.6540
   24.990    2.4223
   25.005    2.4645
   25.020    2.4329
   25.035    2.5382
   25.050    2.7593
   25.065    2.5803
   25.080    2.3065
   25.095    2.4329
   25.110    2.3486
   25.125    2.3802
   25.140    2.1801
   25.155    2.3275
   25.170    2.4434
   25.185    2.4329
   25.200    2.3486
   25.215    2.6330
   25.230    2.4855
   25.245    2.6540
   25.260    2.5698
   25.275    2.3381
   25.290    2.5698
   25.305    2.5171
   25.320    2.3697
   25.335    2.6962
   25.350    2.4434
   25.365    2.4961
   25.380    2.3907
   25.395    2.5487
   25.410    2.6540
   25.425    2.6751
   25.440    2.6751
   25.455    3.0964
   25.470    3.7072
   25.485    4.3497
   25.500    4.5287
   25.515    3.5808
   25.530    3.4123
   25.545    3.3281
   25.560    2.6014
   25.575    2.5171
   25.590    2.3591
   25.605    2.3170
   25.620    2.4223
   25.635    2.5066
   25.650    2.6435
   25.665    2.6119
   25.680    2.3381
   25.695    2.7067
   25.710    2.4645
   25.725    2.3907
   25.740    2.3065
   25.755    2.4013
   25.770    2.4434
   25.785    2.6435
   25.800    2.5592
   25.815    2.4013
   25.830    2.6014
   25.845    2.5066
   25.860    2.3591
   25.875    2.3907
   25.890    2.4645
   25.905    2.4118
   25.920    2.5276
   25.935    2.3907
   25.950    2.5803
   25.965    2.5171
   25.980    2.4223
   25.995    2.4539
   26.010    2.3170
   26.025    2.2328
   26.040    2.2959
   26.055    2.5066
   26.070    2.3802
   26.085    2.3170
   26.100    2.3170
   26.115    2.4750
   26.130    2.3065
   26.145    2.5487
   26.160    2.4118
   26.175    2.0853
   26.190    2.4329
   26.205    2.5066
   26.220    2.4961
   26.235    2.6014
   26.250    2.4855
   26.265    2.3802
   26.280    2.1696
   26.295    2.4961
   26.310    2.4223
   26.325    2.2328
   26.340    2.5276
   26.355    2.1485
   26.370    2.3065
   26.385    2.3381
   26.400    2.2012
   26.415    2.2012
   26.430    2.4750
   26.445    2.4539
   26.460    2.3486
   26.475    2.1906
   26.490    2.1906
   26.505    2.2538
   26.520    2.2643
   26.535    2.3170
   26.550    2.1485
   26.565    2.2433
   26.580    2.3591
   26.595    2.3275
   26.610    2.4645
   26.625    2.2643
   26.640    2.0853
   26.655    2.1064
   26.670    2.2643
   26.685    2.4223
   26.700    2.3275
   26.715    2.5066
   26.730    2.6330
   26.745    2.5171
   26.760    2.0853
   26.775    2.0116
   26.790    2.3381
   26.805    2.1906
   26.820    2.0958
   26.835    1.9905
   26.850    2.1696
   26.865    2.4118
   26.880    2.2749
   26.895    1.9800
   26.910    2.1274
   26.925    2.1064
   26.940    2.0537
   26.955    2.2538
   26.970    2.3802
   26.985    2.0432
   27.000    2.1801
   27.015    2.2538
   27.030    2.1485
   27.045    2.3170
   27.060    2.1696
   27.075    1.9589
   27.090    2.1906
   27.105    2.2117
   27.120    2.1380
   27.135    2.1906
   27.150    2.1906
   27.165    2.0326
   27.180    2.0853
   27.195    2.0221
   27.210    2.0642
   27.225    2.0642
   27.240    2.1274
   27.255    2.1485
   27.270    2.0432
   27.285    2.1485
   27.300    2.0326
   27.315    1.9484
   27.330    2.1590
   27.345    2.3802
   27.360    2.0537
   27.375    1.9905
   27.390    1.9905
   27.405    2.2328
   27.420    1.9589
   27.435    2.1696
   27.450    2.0326
   27.465    2.0432
   27.480    2.0326
   27.495    2.2117
   27.510    2.1801
   27.525    2.1274
   27.540    2.2749
   27.555    2.2538
   27.570    2.0748
   27.585    2.1590
   27.600    2.2959
   27.615    2.0432
   27.630    2.2117
   27.645    2.0221
   27.660    1.9905
   27.675    1.9379
   27.690    1.9589
   27.705    2.2854
   27.720    2.2643
   27.735    2.1801
   27.750    2.0116
   27.765    2.0116
   27.780    2.0853
   27.795    1.9695
   27.810    2.0748
   27.825    2.2117
   27.840    2.0116
   27.855    2.0326
   27.870    2.2012
   27.885    2.0432
   27.900    1.9589
   27.915    2.0853
   27.930    2.0853
   27.945    2.1590
   27.960    2.0432
   27.975    1.9379
   27.990    1.9484
   28.005    2.0432
   28.020    1.8325
   28.035    1.9589
   28.050    1.9379
   28.065    1.9484
   28.080    2.0958
   28.095    1.9695
   28.110    2.0432
   28.125    1.7799
   28.140    1.8431
   28.155    2.1064
   28.170    2.0011
   28.185    2.0432
   28.200    1.9379
   28.215    2.1906
   28.230    1.9905
   28.245    2.0748
   28.260    2.1485
   28.275    2.0221
   28.290    2.0221
   28.305    1.9484
   28.320    1.8431
   28.335    1.9484
   28.350    1.8325
   28.365    1.9063
   28.380    1.9484
   28.395    1.9589
   28.410    1.9589
   28.425    1.8115
   28.440    1.9273
   28.455    2.0748
   28.470    2.0326
   28.485    1.9168
   28.500    1.9063
   28.515    2.0537
   28.530    1.8641
   28.545    1.9695
   28.560    2.1590
   28.575    1.9168
   28.590    2.1169
   28.605    2.0642
   28.620    1.9589
   28.635    2.0537
   28.650    1.9800
   28.665    1.8009
   28.680    1.9379
   28.695    1.8325
   28.710    2.0326
   28.725    2.1590
   28.740    2.2117
   28.755    2.1064
   28.770    2.0326
   28.785    1.8431
   28.800    2.0432
   28.815    2.1169
   28.830    2.0853
   28.845    2.0432
   28.860    2.0221
   28.875    1.9695
   28.890    1.7694
   28.905    2.0326
   28.920    1.9273
   28.935    1.9168
   28.950    1.8747
   28.965    2.1801
   28.980    1.9589
   28.995    2.0326
   29.010    1.9063
   29.025    1.9379
   29.040    2.0011
   29.055    1.8852
   29.070    1.7062
   29.085    1.8220
   29.100    1.9589
   29.115    1.8641
   29.130    1.8747
   29.145    1.9063
   29.160    1.8747
   29.175    1.7272
   29.190    1.9273
   29.205    1.8957
   29.220    1.7062
   29.235    1.8115
   29.250    1.8747
   29.265    1.9589
   29.280    1.9800
   29.295    2.0537
   29.310    1.9800
   29.325    1.8852
   29.340    1.7588
   29.355    2.0537
   29.370    1.6956
   29.385    1.8115
   29.400    1.6851
   29.415    1.9379
   29.430    1.6324
   29.445    1.6851
   29.460    1.6640
   29.475    1.6535
   29.490    1.6640
   29.505    1.7483
   29.520    1.9168
   29.535    1.6008
   29.550    1.6008
   29.565    1.7167
   29.580    1.7062
   29.595    1.8009
   29.610    1.7167
   29.625    1.9484
   29.640    1.8852
   29.655    1.9063
   29.670    1.7588
   29.685    1.7904
   29.700    1.9484
   29.715    1.8115
   29.730    1.7272
   29.745    1.7378
   29.760    1.6746
   29.775    1.6324
   29.790    1.5587
   29.805    1.6535
   29.820    1.7694
   29.835    1.7062
   29.850    1.5692
   29.865    1.5061
   29.880    1.5798
   29.895    1.7272
   29.910    1.6430
   29.925    1.6324
   29.940    1.6008
   29.955    1.5798
   29.970    1.7483
   29.985    1.6008
   30.000    1.6219
   30.015    1.7588
   30.030    1.6430
   30.045    1.5166
   30.060    1.5798
   30.075    1.7904
   30.090    1.6746
   30.105    1.6640
   30.120    1.6851
   30.135    1.6008
   30.150    1.7483
   30.165    1.5903
   30.180    1.6640
   30.195    1.8220
   30.210    1.5166
   30.225    1.5798
   30.240    1.6956
   30.255    1.6956
   30.270    1.6219
   30.285    1.7167
   30.300    1.6114
   30.315    1.5798
   30.330    1.7167
   30.345    1.6219
   30.360    1.5061
   30.375    1.6430
   30.390    1.6535
   30.405    1.4007
   30.420    1.5692
   30.435    1.6114
   30.450    1.3375
   30.465    1.6114
   30.480    1.5587
   30.495    1.6430
   30.510    1.3691
   30.525    1.6324
   30.540    1.5271
   30.555    1.6956
   30.570    1.6008
   30.585    1.6746
   30.600    1.5587
   30.615    1.5798
   30.630    1.4429
   30.645    1.6114
   30.660    1.7694
   30.675    1.6008
   30.690    1.3797
   30.705    1.4113
   30.720    1.6114
   30.735    1.4745
   30.750    1.4534
   30.765    1.6114
   30.780    1.4745
   30.795    1.5166
   30.810    1.4534
   30.825    1.4955
   30.840    1.7062
   30.855    1.5061
   30.870    1.5692
   30.885    1.6956
   30.900    1.6008
   30.915    1.4323
   30.930    1.2322
   30.945    1.6114
   30.960    1.4429
   30.975    1.5692
   30.990    1.6640
   31.005    1.6535
   31.020    1.6851
   31.035    1.5061
   31.050    1.5061
   31.065    1.2217
   31.080    1.5903
   31.095    1.6114
   31.110    1.5692
   31.125    1.5903
   31.140    1.7062
   31.155    1.4955
   31.170    1.5798
   31.185    1.6219
   31.200    1.4639
   31.215    1.3270
   31.230    1.3375
   31.245    1.4745
   31.260    1.5587
   31.275    1.4007
   31.290    1.4429
   31.305    1.3902
   31.320    1.4323
   31.335    1.3902
   31.350    1.5587
   31.365    1.4323
   31.380    1.3270
   31.395    1.5271
   31.410    1.5903
   31.425    1.6324
   31.440    1.5482
   31.455    1.4534
   31.470    1.5061
   31.485    1.4745
   31.500    1.4113
   31.515    1.4534
   31.530    1.3165
   31.545    1.2849
   31.560    1.5166
   31.575    1.4429
   31.590    1.5903
   31.605    1.5166
   31.620    1.3691
   31.635    1.4007
   31.650    1.3797
   31.665    1.4113
   31.680    1.4955
   31.695    1.6114
   31.710    1.5482
   31.725    2.1169
   31.740    2.4750
   31.755    2.6962
   31.770    2.9910
   31.785    2.6856
   31.800    2.3170
   31.815    1.9800
   31.830    1.5377
   31.845    1.5061
   31.860    1.5271
   31.875    1.3902
   31.890    1.4745
   31.905    1.4745
   31.920    1.2954
   31.935    1.3165
   31.950    1.3691
   31.965    1.6324
   31.980    1.4218
   31.995    1.2217
   32.010    1.4534
   32.025    1.3270
   32.040    1.3797
   32.055    1.3902
   32.070    1.2954
   32.085    1.2428
   32.100    1.4429
   32.115    1.3797
   32.130    1.3165
   32.145    1.1585
   32.160    1.3586
   32.175    1.5377
   32.190    1.2744
   32.205    1.2322
   32.220    1.3165
   32.235    1.3270
   32.250    1.3902
   32.265    1.4323
   32.280    1.4113
   32.295    1.2533
   32.310    1.3902
   32.325    1.4429
   32.340    1.3586
   32.355    1.4113
   32.370    1.4639
   32.385    1.4534
   32.400    1.3375
   32.415    1.3060
   32.430    1.3586
   32.445    1.4218
   32.460    1.3375
   32.475    1.3375
   32.490    1.2428
   32.505    1.4534
   32.520    1.4113
   32.535    1.2533
   32.550    1.2112
   32.565    1.2428
   32.580    1.1480
   32.595    1.1796
   32.610    1.4429
   32.625    1.3270
   32.640    1.1690
   32.655    1.4639
   32.670    1.2954
   32.685    1.2006
   32.700    1.5271
   32.715    1.5271
   32.730    1.3060
   32.745    1.2322
   32.760    1.2954
   32.775    1.2533
   32.790    1.3481
   32.805    1.3902
   32.820    1.2217
   32.835    1.2849
   32.850    1.2112
   32.865    1.4218
   32.880    1.3586
   32.895    1.3375
   32.910    1.1480
   32.925    1.2638
   32.940    1.2428
   32.955    1.3375
   32.970    1.2638
   32.985    1.2533
   33.000    1.2849
   33.015    1.4323
   33.030    1.2954
   33.045    1.2533
   33.060    1.2533
   33.075    1.4007
   33.090    1.2744
   33.105    1.4323
   33.120    1.2849
   33.135    1.1585
   33.150    1.1901
   33.165    1.1374
   33.180    1.3691
   33.195    1.2744
   33.210    1.2006
   33.225    1.2954
   33.240    1.3691
   33.255    1.3060
   33.270    1.0427
   33.285    1.2322
   33.300    1.1058
   33.315    1.2322
   33.330    1.5587
   33.345    1.2849
   33.360    1.1901
   33.375    1.2217
   33.390    1.2217
   33.405    1.2954
   33.420    1.1058
   33.435    1.2533
   33.450    1.3586
   33.465    1.3270
   33.480    1.3165
   33.495    1.3270
   33.510    1.3060
   33.525    1.2006
   33.540    1.4323
   33.555    1.4429
   33.570    1.2217
   33.585    1.1690
   33.600    1.4639
   33.615    1.2954
   33.630    1.2428
   33.645    1.1690
   33.660    1.1901
   33.675    1.5692
   33.690    1.1796
   33.705    1.2954
   33.720    1.2533
   33.735    1.2533
   33.750    1.3375
   33.765    1.4323
   33.780    1.1796
   33.795    1.1164
   33.810    1.0637
   33.825    1.2322
   33.840    1.2006
   33.855    1.1269
   33.870    1.2428
   33.885    1.3165
   33.900    1.3586
   33.915    1.5061
   33.930    1.7272
   33.945    1.6851
   33.960    1.7062
   33.975    1.4429
   33.990    1.4218
   34.005    1.4745
   34.020    1.4007
   34.035    1.2849
   34.050    1.2006
   34.065    1.2112
   34.080    1.1269
   34.095    1.1690
   34.110    1.0427
   34.125    1.2006
   34.140    1.1690
   34.155    1.3797
   34.170    1.1058
   34.185    1.1269
   34.200    1.2849
   34.215    1.2112
   34.230    1.1480
   34.245    1.2954
   34.260    1.3481
   34.275    1.1164
   34.290    1.2428
   34.305    1.0848
   34.320    0.9479
   34.335    0.9689
   34.350    1.0216
   34.365    1.2322
   34.380    1.2428
   34.395    1.2428
   34.410    1.1585
   34.425    1.1269
   34.440    1.1901
   34.455    1.1690
   34.470    1.2112
   34.485    1.1901
   34.500    1.1796
   34.515    1.3060
   34.530    1.3481
   34.545    1.1480
   34.560    1.2638
   34.575    1.1269
   34.590    1.2744
   34.605    1.3270
   34.620    1.0321
   34.635    1.1796
   34.650    1.2428
   34.665    1.0321
   34.680    0.9900
   34.695    0.9689
   34.710    1.0637
   34.725    1.2428
   34.740    1.2954
   34.755    1.1690
   34.770    1.0216
   34.785    0.9689
   34.800    1.2428
   34.815    1.2849
   34.830    1.1269
   34.845    1.1901
   34.860    1.1374
   34.875    1.0532
   34.890    1.1269
   34.905    1.1058
   34.920    0.9689
   34.935    1.1690
   34.950    1.2112
   34.965    1.1585
   34.980    1.2954
   34.995    1.1269
   35.010    1.0637
   35.025    1.0637
   35.040    1.1058
   35.055    1.0742
   35.070    0.9057
   35.085    1.2112
   35.100    1.0848
   35.115    1.1374
   35.130    1.1164
   35.145    1.1164
   35.160    1.1796
   35.175    1.0427
   35.190    1.0427
   35.205    1.1374
   35.220    1.0742
   35.235    1.1058
   35.250    1.1269
   35.265    1.1901
   35.280    1.2744
   35.295    1.1796
   35.310    1.1480
   35.325    1.0427
   35.340    1.1164
   35.355    1.0427
   35.370    1.1901
   35.385    1.0637
   35.400    1.0427
   35.415    1.2428
   35.430    1.2954
   35.445    1.1480
   35.460    1.1480
   35.475    1.1269
   35.490    1.2849
   35.505    1.0216
   35.520    1.1901
   35.535    1.1374
   35.550    1.1269
   35.565    1.2638
   35.580    1.2428
   35.595    1.3375
   35.610    1.0321
   35.625    1.2112
   35.640    1.1901
   35.655    1.0532
   35.670    0.9795
   35.685    1.0953
   35.700    1.3165
   35.715    1.0953
   35.730    1.0953
   35.745    1.0532
   35.760    1.0111
   35.775    1.0427
   35.790    1.1269
   35.805    1.4113
   35.820    1.1164
   35.835    1.1269
   35.850    1.0953
   35.865    1.1058
   35.880    1.1058
   35.895    1.1164
   35.910    1.0637
   35.925    1.0742
   35.940    1.2428
   35.955    1.1901
   35.970    1.2428
   35.985    1.2744
   36.000    1.2112
   36.015    1.3165
   36.030    1.0742
   36.045    1.0216
   36.060    1.1480
   36.075    1.2112
   36.090    1.1164
   36.105    1.0532
   36.120    1.0216
   36.135    1.1480
   36.150    1.0848
   36.165    1.0216
   36.180    1.0953
   36.195    1.0216
   36.210    1.0532
   36.225    1.1480
   36.240    1.1796
   36.255    1.2533
   36.270    1.1690
   36.285    1.0111
   36.300    1.1164
   36.315    1.0216
   36.330    1.0321
   36.345    1.0321
   36.360    1.1690
   36.375    1.0742
   36.390    1.1058
   36.405    1.1164
   36.420    1.0216
   36.435    1.1058
   36.450    1.1690
   36.465    1.2322
   36.480    1.3060
   36.495    1.1585
   36.510    1.2638
   36.525    1.0321
   36.540    1.1164
   36.555    1.1690
   36.570    1.2638
   36.585    1.1480
   36.600    1.1058
   36.615    1.0953
   36.630    1.2006
   36.645    1.0848
   36.660    1.1480
   36.675    1.0005
   36.690    1.2322
   36.705    1.0321
   36.720    1.1480
   36.735    1.2112
   36.750    1.0848
   36.765    1.0742
   36.780    1.0216
   36.795    1.0427
   36.810    1.1901
   36.825    1.1058
   36.840    1.0111
   36.855    1.0953
   36.870    1.0321
   36.885    1.0005
   36.900    1.0953
   36.915    1.0953
   36.930    1.1690
   36.945    1.1901
   36.960    1.1269
   36.975    1.2744
   36.990    1.0637
   37.005    1.1901
   37.020    1.1585
   37.035    0.9900
   37.050    0.9900
   37.065    1.0637
   37.080    1.1164
   37.095    1.1901
   37.110    0.9795
   37.125    1.1796
   37.140    1.0321
   37.155    0.9795
   37.170    1.0953
   37.185    0.8847
   37.200    0.9795
   37.215    0.9689
   37.230    1.0216
   37.245    1.0742
   37.260    1.1164
   37.275    1.0848
   37.290    1.2006
   37.305    1.0848
   37.320    1.0111
   37.335    1.1480
   37.350    1.0111
   37.365    0.9795
   37.380    1.0742
   37.395    1.0848
   37.410    1.0005
   37.425    1.2217
   37.440    1.1374
   37.455    1.0532
   37.470    1.1901
   37.485    0.9900
   37.500    1.0742
   37.515    0.9900
   37.530    0.9479
   37.545    1.1480
   37.560    1.2217
   37.575    1.0532
   37.590    1.0427
   37.605    1.0321
   37.620    0.9479
   37.635    1.0216
   37.650    1.0216
   37.665    1.0953
   37.680    1.0742
   37.695    1.1164
   37.710    1.0427
   37.725    0.8531
   37.740    1.1269
   37.755    1.1585
   37.770    1.1690
   37.785    1.1480
   37.800    1.1690
   37.815    0.9268
   37.830    1.0742
   37.845    1.0637
   37.860    1.0111
   37.875    1.0111
   37.890    0.9479
   37.905    0.9795
   37.920    1.1374
   37.935    1.1058
   37.950    1.0953
   37.965    1.1480
   37.980    0.9479
   37.995    1.0532
   38.010    1.1058
   38.025    0.8741
   38.040    1.0742
   38.055    1.0953
   38.070    1.0427
   38.085    1.2006
   38.100    1.1058
   38.115    1.0742
   38.130    0.9479
   38.145    0.9689
   38.160    1.0953
   38.175    1.0953
   38.190    1.1374
   38.205    1.0953
   38.220    1.0005
   38.235    1.0005
   38.250    1.0742
   38.265    1.0637
   38.280    0.9689
   38.295    1.0427
   38.310    1.1374
   38.325    1.2006
   38.340    1.0637
   38.355    1.0005
   38.370    1.0848
   38.385    1.1480
   38.400    1.0321
   38.415    1.0111
   38.430    1.1374
   38.445    0.9584
   38.460    0.8741
   38.475    1.0637
   38.490    1.2322
   38.505    1.1690
   38.520    1.1374
   38.535    1.0005
   38.550    1.0848
   38.565    0.9689
   38.580    1.0532
   38.595    1.0321
   38.610    1.1058
   38.625    1.0216
   38.640    0.9584
   38.655    1.1269
   38.670    1.0637
   38.685    1.2217
   38.700    1.0532
   38.715    0.9057
   38.730    1.0953
   38.745    1.1374
   38.760    0.8531
   38.775    0.9373
   38.790    0.9479
   38.805    0.9689
   38.820    1.0532
   38.835    1.1164
   38.850    1.0216
   38.865    1.1585
   38.880    1.0427
   38.895    1.1374
   38.910    1.0953
   38.925    1.0742
   38.940    0.9479
   38.955    0.9584
   38.970    0.8636
   38.985    0.8741
   39.000    1.0953
   39.015    1.0848
   39.030    1.0953
   39.045    0.9900
   39.060    0.9900
   39.075    0.9689
   39.090    1.0532
   39.105    0.8531
   39.120    0.8320
   39.135    0.8847
   39.150    0.9795
   39.165    1.1480
   39.180    0.8636
   39.195    0.8110
   39.210    0.9584
   39.225    1.0427
   39.240    1.0427
   39.255    1.1164
   39.270    1.0111
   39.285    1.0216
   39.300    0.9584
   39.315    1.0321
   39.330    0.8425
   39.345    0.9163
   39.360    1.0111
   39.375    1.0427
   39.390    1.0637
   39.405    1.0532
   39.420    0.9900
   39.435    0.9479
   39.450    0.9057
   39.465    0.9584
   39.480    0.9900
   39.495    0.8741
   39.510    0.9689
   39.525    1.0005
   39.540    0.9268
   39.555    0.9900
   39.570    1.0321
   39.585    1.1374
   39.600    0.9584
   39.615    0.9373
   39.630    1.1374
   39.645    1.0321
   39.660    1.0953
   39.675    1.0216
   39.690    0.9795
   39.705    1.0532
   39.720    0.9268
   39.735    0.8636
   39.750    1.0532
   39.765    1.0216
   39.780    0.8741
   39.795    0.8847
   39.810    1.0742
   39.825    1.0637
   39.840    1.0111
   39.855    1.0848
   39.870    1.0321
   39.885    0.9163
   39.900    1.1058
   39.915    0.9373
   39.930    0.9268
   39.945    0.8952
   39.960    1.0532
   39.975    1.0111
   39.990    0.8847
