    1.500   13.0806
    1.515   13.3755
    1.530   12.7962
    1.545   12.6382
    1.560   12.8805
    1.575   12.4908
    1.590   12.4487
    1.605   12.3433
    1.620   11.9747
    1.635   11.6693
    1.650   11.8483
    1.665   11.6693
    1.680   11.3849
    1.695   10.6793
    1.710   10.4897
    1.725   10.8794
    1.740   10.9531
    1.755   10.6372
    1.770   10.3528
    1.785   10.4476
    1.800   10.7636
    1.815   10.5529
    1.830   10.2475
    1.845    9.7841
    1.860    9.7104
    1.875   10.0263
    1.890    9.3628
    1.905    9.6998
    1.920    9.4892
    1.935    9.3207
    1.950    9.4365
    1.965    9.4576
    1.980    9.4260
    1.995    9.5419
    2.010    9.3207
    2.025    8.7941
    2.040    9.2470
    2.055    9.0679
    2.070    9.0469
    2.085    8.8468
    2.100    8.5940
    2.115    8.3939
    2.130    8.7204
    2.145    8.7730
    2.160    8.8994
    2.175    8.6888
    2.190    8.8046
    2.205    8.7625
    2.220    8.8784
    2.235    8.6677
    2.250    8.7414
    2.265    8.1201
    2.280    8.0779
    2.295    8.2149
    2.310    8.4150
    2.325    8.5624
    2.340    8.1622
    2.355    7.8989
    2.370    7.5829
    2.385    7.5513
    2.400    7.7725
    2.415    8.0253
    2.430    7.9094
    2.445    8.0042
    2.460    7.8884
    2.475    7.8357
    2.490    7.8568
    2.505    7.8989
    2.520    7.8357
    2.535    7.6988
    2.550    7.6356
    2.565    8.1833
    2.580    8.4360
    2.595    8.0885
    2.610    7.9831
    2.625    8.3202
    2.640    7.8146
    2.655    8.4781
    2.670    8.0147
    2.685    7.7514
    2.700    7.9305
    2.715    8.2254
    2.730    8.4992
    2.745    8.5519
    2.760    8.2991
    2.775    8.3834
    2.790    8.5097
    2.805    8.5940
    2.820    9.0258
    2.835    9.0469
    2.850    8.6888
    2.865    8.9731
    2.880    8.6993
    2.895    9.0153
    2.910    9.0363
    2.925    8.8152
    2.940    8.7520
    2.955    9.1627
    2.970    9.4892
    2.985    9.4050
    3.000    9.0153
    3.015    9.2048
    3.030    9.0574
    3.045    9.8684
    3.060   10.3423
    3.075    9.9421
    3.090    9.9737
    3.105   10.2475
    3.120   10.3949
    3.135   10.7109
    3.150   10.5635
    3.165   10.4897
    3.180   11.2691
    3.195   11.2902
    3.210   11.3533
    3.225   11.2480
    3.240   11.5956
    3.255   11.9115
    3.270   11.9642
    3.285   12.1959
    3.300   12.5645
    3.315   12.8173
    3.330   13.3860
    3.345   13.8073
    3.360   14.5761
    3.375   14.2180
    3.390   15.0500
    3.405   15.3028
    3.420   15.5977
    3.435   16.0821
    3.450   16.5456
    3.465   16.9458
    3.480   17.4934
    3.495   17.2091
    3.510   17.9989
    3.525   19.1364
    3.540   19.5787
    3.555   20.0948
    3.570   21.3270
    3.585   21.5587
    3.600   22.9489
    3.615   23.0858
    3.630   23.7072
    3.645   24.4234
    3.660   26.5192
    3.675   27.9410
    3.690   28.7730
    3.705   30.0895
    3.720   32.1959
    3.735   32.5961
    3.750   35.0500
    3.765   36.9352
    3.780   39.7683
    3.795   42.9805
    3.810   47.7936
    3.825   55.5345
    3.840   62.5382
    3.855   72.5961
    3.870   79.2628
    3.885   82.4013
    3.900   77.4934
    3.915   64.7393
    3.930   44.4550
    3.945   23.7177
    3.960   12.0169
    3.975    8.4044
    3.990    7.3723
    4.005    6.5824
    4.020    6.5403
    4.035    6.0348
    4.050    5.9189
    4.065    5.9189
    4.080    5.8452
    4.095    6.0558
    4.110    6.0348
    4.125    6.0137
    4.140    5.9821
    4.155    5.7399
    4.170    5.5924
    4.185    5.8557
    4.200    5.7399
    4.215    5.8662
    4.230    5.6451
    4.245    5.8662
    4.260    5.5714
    4.275    5.5924
    4.290    6.0979
    4.305    5.8662
    4.320    5.3397
    4.335    5.5082
    4.350    5.4976
    4.365    5.4660
    4.380    5.8662
    4.395    5.6556
    4.410    5.2449
    4.425    5.5503
    4.440    5.6451
    4.455    5.6556
    4.470    5.5819
    4.485    5.3607
    4.500    5.1711
    4.515    5.3502
    4.530    5.7399
    4.545    5.4766
    4.560    5.6451
    4.575    5.9084
    4.590    5.8978
    4.605    5.5503
    4.620    5.5082
    4.635    5.6767
    4.650    5.3291
    4.665    5.2975
    4.680    5.4344
    4.695    5.7715
    4.710    5.6661
    4.725    5.8452
    4.740    5.5819
    4.755    5.7820
    4.770    5.8662
    4.785    5.0764
    4.800    5.4028
    4.815    5.6029
    4.830    5.5082
    4.845    5.7925
    4.860    5.8031
    4.875    6.0137
    4.890    5.5819
    4.905    5.7504
    4.920    5.6661
    4.935    6.0242
    4.950    5.6345
    4.965    5.8031
    4.980    5.9821
    4.995    6.1611
    5.010    6.0137
    5.025    6.3718
    5.040    6.5508
    5.055    6.8668
    5.070    6.6351
    5.085    6.2665
    5.100    6.1927
    5.115    6.2559
    5.130    6.3191
    5.145    6.6877
    5.160    6.7193
    5.175    6.5403
    5.190    6.8773
    5.205    6.9616
    5.220    7.2775
    5.235    7.6777
    5.250    7.2986
    5.265    7.8462
    5.280    8.2570
    5.295    7.9410
    5.310    8.2043
    5.325    8.1411
    5.340    8.9310
    5.355    8.6045
    5.370    9.2996
    5.385   10.0474
    5.400    9.8052
    5.415   10.2791
    5.430   11.1006
    5.445   11.8905
    5.460   12.9015
    5.475   14.7762
    5.490   15.8294
    5.505   16.5245
    5.520   16.1032
    5.535   14.8710
    5.550   12.6804
    5.565    8.9205
    5.580    6.6877
    5.595    6.2138
    5.610    5.4976
    5.625    5.0132
    5.640    5.3397
    5.655    5.6345
    5.670    5.3081
    5.685    5.4555
    5.700    5.2027
    5.715    5.2975
    5.730    5.1606
    5.745    5.1290
    5.760    5.3923
    5.775    5.3923
    5.790    5.0237
    5.805    5.1817
    5.820    5.3397
    5.835    5.4660
    5.850    5.4660
    5.865    5.2238
    5.880    5.2133
    5.895    5.2659
    5.910    5.0869
    5.925    5.0132
    5.940    4.8973
    5.955    4.9710
    5.970    5.1501
    5.985    5.0764
    6.000    5.1185
    6.015    5.0658
    6.030    5.3081
    6.045    4.9289
    6.060    5.1185
    6.075    4.9605
    6.090    4.9289
    6.105    5.0869
    6.120    5.0658
    6.135    5.3923
    6.150    5.3502
    6.165    5.0237
    6.180    5.0448
    6.195    5.3818
    6.210    5.3712
    6.225    5.0764
    6.240    5.1290
    6.255    5.0448
    6.270    5.1395
    6.285    5.3607
    6.300    5.3397
    6.315    5.4134
    6.330    5.4976
    6.345    5.2027
    6.360    4.8341
    6.375    5.1080
    6.390    5.1185
    6.405    5.1395
    6.420    5.0869
    6.435    5.3607
    6.450    5.4028
    6.465    5.2870
    6.480    5.3502
    6.495    5.2133
    6.510    5.3607
    6.525    5.1817
    6.540    5.1080
    6.555    5.2659
    6.570    5.4344
    6.585    5.3712
    6.600    5.3291
    6.615    5.4028
    6.630    5.8136
    6.645    5.5187
    6.660    5.5819
    6.675    5.6451
    6.690    5.7399
    6.705    5.7504
    6.720    5.8241
    6.735    6.1295
    6.750    6.1190
    6.765    6.0979
    6.780    6.1190
    6.795    6.1717
    6.810    5.3186
    6.825    4.9500
    6.840    5.2659
    6.855    5.2975
    6.870    5.2659
    6.885    5.2765
    6.900    4.9921
    6.915    5.2870
    6.930    5.3291
    6.945    5.2027
    6.960    4.9710
    6.975    5.0764
    6.990    5.3502
    7.005    5.2343
    7.020    5.2554
    7.035    4.9921
    7.050    5.3712
    7.065    5.1922
    7.080    5.1080
    7.095    5.1922
    7.110    5.3081
    7.125    5.2027
    7.140    4.8763
    7.155    5.2449
    7.170    5.3712
    7.185    5.3712
    7.200    5.0448
    7.215    5.0448
    7.230    5.1501
    7.245    5.4028
    7.260    5.1290
    7.275    5.0764
    7.290    5.3607
    7.305    5.0342
    7.320    5.2870
    7.335    5.0764
    7.350    5.2765
    7.365    5.3923
    7.380    5.2659
    7.395    5.1290
    7.410    5.3291
    7.425    5.4871
    7.440    5.0974
    7.455    5.4344
    7.470    5.5503
    7.485    5.4134
    7.500    5.2765
    7.515    5.7609
    7.530    5.6240
    7.545    5.7188
    7.560    5.6661
    7.575    6.1927
    7.590    6.0032
    7.605    5.8557
    7.620    5.5187
    7.635    6.1717
    7.650    6.1822
    7.665    6.7193
    7.680    6.3612
    7.695    6.3823
    7.710    6.6456
    7.725    6.9194
    7.740    7.3934
    7.755    7.8146
    7.770    8.2886
    7.785    8.1938
    7.800    8.7941
    7.815    8.2464
    7.830    8.5097
    7.845    8.0147
    7.860    7.1090
    7.875    5.9294
    7.890    5.4239
    7.905    5.5714
    7.920    5.4134
    7.935    5.0132
    7.950    5.4660
    7.965    5.0448
    7.980    5.0553
    7.995    5.3081
    8.010    5.1501
    8.025    5.0658
    8.040    4.8868
    8.055    5.2659
    8.070    5.2133
    8.085    5.0448
    8.100    5.0553
    8.115    5.0132
    8.130    5.2133
    8.145    5.4450
    8.160    5.4239
    8.175    5.4555
    8.190    5.2238
    8.205    5.2343
    8.220    5.2765
    8.235    5.2659
    8.250    5.2554
    8.265    5.3186
    8.280    5.3607
    8.295    5.2765
    8.310    5.4766
    8.325    5.3186
    8.340    4.9816
    8.355    5.4660
    8.370    5.3081
    8.385    4.8552
    8.400    5.0974
    8.415    5.3186
    8.430    5.2554
    8.445    5.0553
    8.460    5.1185
    8.475    5.0974
    8.490    5.2975
    8.505    5.2870
    8.520    5.5082
    8.535    5.3081
    8.550    5.3397
    8.565    5.5924
    8.580    5.4660
    8.595    5.4660
    8.610    5.5503
    8.625    5.3923
    8.640    5.5398
    8.655    5.5503
    8.670    5.5819
    8.685    5.9084
    8.700    6.0032
    8.715    6.2559
    8.730    6.1295
    8.745    5.6135
    8.760    5.6556
    8.775    5.8241
    8.790    5.7083
    8.805    5.7925
    8.820    5.2975
    8.835    5.5292
    8.850    5.2027
    8.865    4.9921
    8.880    5.2238
    8.895    5.3186
    8.910    5.3607
    8.925    5.4660
    8.940    5.4555
    8.955    5.5924
    8.970    5.1185
    8.985    5.1606
    9.000    5.4450
    9.015    5.3502
    9.030    5.3502
    9.045    5.1080
    9.060    5.5924
    9.075    5.2133
    9.090    5.5819
    9.105    5.4344
    9.120    5.4976
    9.135    5.3502
    9.150    5.7293
    9.165    5.7715
    9.180    5.6029
    9.195    5.2027
    9.210    5.4450
    9.225    5.5503
    9.240    5.8662
    9.255    5.8452
    9.270    5.9926
    9.285    5.6661
    9.300    5.8662
    9.315    6.0242
    9.330    5.8031
    9.345    6.0874
    9.360    6.1822
    9.375    6.3823
    9.390    6.4876
    9.405    6.5719
    9.420    6.7615
    9.435    6.9300
    9.450    7.4039
    9.465    7.4460
    9.480    7.2986
    9.495    7.6883
    9.510    8.2886
    9.525    8.2886
    9.540    9.5524
    9.555    9.9105
    9.570   10.1738
    9.585   10.2159
    9.600    9.8894
    9.615    8.8678
    9.630    7.2249
    9.645    6.1927
    9.660    5.5608
    9.675    5.3712
    9.690    5.5398
    9.705    5.7293
    9.720    4.9710
    9.735    5.3397
    9.750    5.7293
    9.765    5.6872
    9.780    5.4134
    9.795    5.6977
    9.810    5.4450
    9.825    5.4134
    9.840    5.2765
    9.855    5.6240
    9.870    5.6029
    9.885    5.5608
    9.900    5.5608
    9.915    5.4871
    9.930    5.6661
    9.945    5.6872
    9.960    5.4660
    9.975    5.5924
    9.990    5.5503
   10.005    5.2343
   10.020    5.6240
   10.035    5.5187
   10.050    5.8241
   10.065    5.6451
   10.080    5.2975
   10.095    5.3818
   10.110    5.4660
   10.125    5.4660
   10.140    5.5924
   10.155    6.1085
   10.170    6.0348
   10.185    5.7399
   10.200    6.1295
   10.215    6.3612
   10.230    5.9400
   10.245    6.4139
   10.260    6.3718
   10.275    6.5613
   10.290    6.5298
   10.305    7.0669
   10.320    6.9089
   10.335    7.3302
   10.350    7.5619
   10.365    7.6672
   10.380    6.6667
   10.395    6.5298
   10.410    6.5824
   10.425    6.1927
   10.440    5.8241
   10.455    5.9294
   10.470    5.8873
   10.485    5.4134
   10.500    5.3818
   10.515    5.6451
   10.530    5.6556
   10.545    5.6872
   10.560    5.6556
   10.575    5.3081
   10.590    5.2659
   10.605    5.2870
   10.620    5.4871
   10.635    6.0242
   10.650    5.4028
   10.665    5.4976
   10.680    5.6240
   10.695    5.6767
   10.710    5.8031
   10.725    5.6135
   10.740    5.9189
   10.755    5.6767
   10.770    5.3186
   10.785    5.4976
   10.800    5.7609
   10.815    5.7925
   10.830    5.6767
   10.845    5.5714
   10.860    5.6661
   10.875    5.6872
   10.890    5.6767
   10.905    6.0242
   10.920    5.6977
   10.935    6.0664
   10.950    6.0242
   10.965    6.0453
   10.980    6.3086
   10.995    6.5192
   11.010    6.6140
   11.025    6.7720
   11.040    7.1827
   11.055    7.2143
   11.070    6.9826
   11.085    6.9510
   11.100    6.7615
   11.115    6.5508
   11.130    6.2559
   11.145    5.7399
   11.160    5.4134
   11.175    5.3081
   11.190    5.4344
   11.205    5.1817
   11.220    5.0764
   11.235    5.0448
   11.250    5.6556
   11.265    5.4660
   11.280    5.4134
   11.295    5.0342
   11.310    5.4766
   11.325    5.0448
   11.340    5.2238
   11.355    5.2659
   11.370    5.3081
   11.385    5.2133
   11.400    5.3923
   11.415    5.1922
   11.430    5.1606
   11.445    5.1922
   11.460    5.4450
   11.475    5.4134
   11.490    5.6029
   11.505    5.2238
   11.520    5.6135
   11.535    5.4871
   11.550    5.4134
   11.565    5.6240
   11.580    5.8347
   11.595    5.6661
   11.610    6.0769
   11.625    5.9926
   11.640    5.7293
   11.655    5.8452
   11.670    6.2033
   11.685    6.2875
   11.700    6.7509
   11.715    7.1301
   11.730    7.4039
   11.745    7.1827
   11.760    7.1195
   11.775    6.8246
   11.790    6.0874
   11.805    5.9716
   11.820    5.6767
   11.835    5.2554
   11.850    5.2554
   11.865    5.0237
   11.880    5.0658
   11.895    5.0237
   11.910    5.0658
   11.925    5.0237
   11.940    4.8447
   11.955    4.7920
   11.970    5.1290
   11.985    5.2870
   12.000    4.6867
   12.015    5.1185
   12.030    4.9710
   12.045    4.9289
   12.060    4.9605
   12.075    5.0658
   12.090    5.0026
   12.105    4.7709
   12.120    5.1817
   12.135    5.1080
   12.150    4.8236
   12.165    5.2027
   12.180    4.9184
   12.195    4.9500
   12.210    4.9921
   12.225    4.9078
   12.240    5.1290
   12.255    5.0237
   12.270    5.1817
   12.285    5.2449
   12.300    5.1922
   12.315    5.2870
   12.330    5.2449
   12.345    4.9078
   12.360    5.4239
   12.375    5.4239
   12.390    5.0974
   12.405    5.3607
   12.420    5.3186
   12.435    4.6656
   12.450    4.8657
   12.465    5.0237
   12.480    4.5392
   12.495    5.0658
   12.510    5.0553
   12.525    5.0448
   12.540    5.0869
   12.555    4.4971
   12.570    4.5182
   12.585    4.6235
   12.600    5.0869
   12.615    5.3081
   12.630    5.1185
   12.645    4.8868
   12.660    4.6551
   12.675    5.0342
   12.690    4.8552
   12.705    4.7709
   12.720    5.0026
   12.735    4.9500
   12.750    4.7604
   12.765    4.7393
   12.780    4.9394
   12.795    4.7393
   12.810    5.2449
   12.825    5.3291
   12.840    5.0974
   12.855    5.1290
   12.870    5.1817
   12.885    5.6767
   12.900    5.6451
   12.915    5.6345
   12.930    6.0453
   12.945    5.9084
   12.960    6.1190
   12.975    6.1927
   12.990    6.5298
   13.005    6.0769
   13.020    5.8557
   13.035    5.8136
   13.050    5.3502
   13.065    4.7815
   13.080    4.7815
   13.095    4.9078
   13.110    5.0132
   13.125    4.3602
   13.140    4.7604
   13.155    4.6130
   13.170    4.7815
   13.185    4.9605
   13.200    5.0342
   13.215    5.1501
   13.230    4.6761
   13.245    4.6445
   13.260    4.5603
   13.275    4.6445
   13.290    4.7077
   13.305    4.6551
   13.320    5.0237
   13.335    5.0342
   13.350    4.6551
   13.365    4.5919
   13.380    4.7393
   13.395    4.8341
   13.410    4.8447
   13.425    4.8973
   13.440    5.1185
   13.455    5.0342
   13.470    4.8763
   13.485    4.9605
   13.500    5.0237
   13.515    5.1290
   13.530    5.5292
   13.545    5.6767
   13.560    5.7399
   13.575    5.3923
   13.590    5.3081
   13.605    5.2449
   13.620    4.8657
   13.635    4.7393
   13.650    4.9921
   13.665    4.7183
   13.680    4.6867
   13.695    4.4971
   13.710    4.8025
   13.725    4.8868
   13.740    4.9289
   13.755    4.5076
   13.770    4.4234
   13.785    4.5076
   13.800    4.6656
   13.815    4.5708
   13.830    4.6761
   13.845    5.1606
   13.860    4.7077
   13.875    4.8025
   13.890    4.7288
   13.905    4.8131
   13.920    4.6024
   13.935    4.7499
   13.950    4.8657
   13.965    4.8657
   13.980    4.6445
   13.995    4.4234
   14.010    4.7815
   14.025    4.6445
   14.040    5.0342
   14.055    5.4134
   14.070    5.2449
   14.085    5.4239
   14.100    5.6345
   14.115    5.8978
   14.130    5.7715
   14.145    5.3186
   14.160    5.3923
   14.175    5.2659
   14.190    5.1080
   14.205    5.0764
   14.220    4.8763
   14.235    4.5392
   14.250    4.8341
   14.265    4.6761
   14.280    4.7393
   14.295    4.4760
   14.310    4.3707
   14.325    4.4128
   14.340    4.1601
   14.355    4.4760
   14.370    4.8447
   14.385    4.6130
   14.400    4.8236
   14.415    4.6235
   14.430    4.5182
   14.445    4.8973
   14.460    4.7077
   14.475    4.6340
   14.490    4.6867
   14.505    4.6130
   14.520    4.3497
   14.535    4.1285
   14.550    4.2654
   14.565    4.5076
   14.580    4.8763
   14.595    4.6867
   14.610    4.7288
   14.625    4.5182
   14.640    4.4971
   14.655    4.4655
   14.670    4.3813
   14.685    4.3181
   14.700    4.6024
   14.715    4.6130
   14.730    4.5498
   14.745    4.4971
   14.760    4.5498
   14.775    4.6024
   14.790    4.5814
   14.805    4.4550
   14.820    4.7499
   14.835    4.4655
   14.850    4.4023
   14.865    4.6445
   14.880    4.6235
   14.895    4.7709
   14.910    4.5076
   14.925    4.4550
   14.940    4.4866
   14.955    4.2338
   14.970    4.3813
   14.985    4.4971
   15.000    4.6761
   15.015    4.5182
   15.030    4.7709
   15.045    4.8657
   15.060    4.6761
   15.075    4.6024
   15.090    4.8341
   15.105    4.8131
   15.120    4.8341
   15.135    4.9710
   15.150    4.8131
   15.165    5.0764
   15.180    5.1606
   15.195    4.8552
   15.210    5.1922
   15.225    4.8131
   15.240    4.8973
   15.255    4.9184
   15.270    4.7393
   15.285    4.4128
   15.300    4.5182
   15.315    4.6340
   15.330    4.6972
   15.345    4.7077
   15.360    4.4971
   15.375    4.8131
   15.390    4.8973
   15.405    4.6130
   15.420    4.6656
   15.435    4.6867
   15.450    4.7499
   15.465    4.6656
   15.480    4.8973
   15.495    4.6235
   15.510    4.6130
   15.525    4.7604
   15.540    4.9816
   15.555    4.6445
   15.570    4.8657
   15.585    4.5498
   15.600    4.6024
   15.615    4.6972
   15.630    4.8447
   15.645    4.5076
   15.660    4.6024
   15.675    4.3497
   15.690    4.5919
   15.705    4.4128
   15.720    4.5603
   15.735    4.6656
   15.750    4.6340
   15.765    4.3707
   15.780    4.7709
   15.795    4.5392
   15.810    4.4444
   15.825    4.5076
   15.840    4.7920
   15.855    4.7499
   15.870    4.7499
   15.885    4.5708
   15.900    4.3286
   15.915    4.6551
   15.930    4.3918
   15.945    4.3286
   15.960    4.7288
   15.975    4.7604
   15.990    5.0342
   16.005    4.4128
   16.020    4.7288
   16.035    4.7183
   16.050    4.6656
   16.065    4.9184
   16.080    4.5708
   16.095    4.4444
   16.110    4.5076
   16.125    4.6551
   16.140    5.2554
   16.155    5.4344
   16.170    4.9184
   16.185    5.0237
   16.200    5.0342
   16.215    4.7815
   16.230    4.7077
   16.245    4.7709
   16.260    4.4023
   16.275    4.4128
   16.290    4.5814
   16.305    4.8447
   16.320    4.8131
   16.335    4.7499
   16.350    4.9078
   16.365    4.6445
   16.380    4.5076
   16.395    4.2759
   16.410    4.4234
   16.425    4.7709
   16.440    4.7709
   16.455    4.8236
   16.470    4.7709
   16.485    4.8763
   16.500    4.8341
   16.515    4.7920
   16.530    4.8131
   16.545    4.7393
   16.560    4.8341
   16.575    4.8552
   16.590    4.8657
   16.605    5.0869
   16.620    4.6972
   16.635    5.0448
   16.650    5.1185
   16.665    5.4134
   16.680    5.0764
   16.695    4.7920
   16.710    5.1185
   16.725    4.7183
   16.740    4.6656
   16.755    4.7920
   16.770    4.6235
   16.785    4.4339
   16.800    4.6867
   16.815    4.8763
   16.830    4.6445
   16.845    4.5392
   16.860    5.1185
   16.875    5.2027
   16.890    4.5919
   16.905    4.3497
   16.920    4.7499
   16.935    4.6024
   16.950    4.9921
   16.965    4.9078
   16.980    4.7920
   16.995    4.6235
   17.010    4.6445
   17.025    5.0342
   17.040    5.2975
   17.055    5.5292
   17.070    5.3291
   17.085    5.7609
   17.100    5.5187
   17.115    5.5924
   17.130    5.4239
   17.145    4.9710
   17.160    4.9710
   17.175    4.8868
   17.190    4.9289
   17.205    4.6656
   17.220    4.6761
   17.235    4.7288
   17.250    4.6445
   17.265    4.8025
   17.280    4.8447
   17.295    5.0553
   17.310    4.8657
   17.325    4.9500
   17.340    4.3918
   17.355    4.4971
   17.370    4.7288
   17.385    4.6656
   17.400    4.8447
   17.415    4.8025
   17.430    4.7288
   17.445    4.8763
   17.460    4.8236
   17.475    4.7604
   17.490    4.8025
   17.505    4.6235
   17.520    4.7183
   17.535    5.2449
   17.550    5.0237
   17.565    4.9816
   17.580    5.0026
   17.595    4.8236
   17.610    4.7709
   17.625    4.8025
   17.640    4.8131
   17.655    4.9289
   17.670    4.5182
   17.685    4.5814
   17.700    4.6551
   17.715    4.6972
   17.730    4.8763
   17.745    4.4655
   17.760    4.7499
   17.775    4.5919
   17.790    4.5919
   17.805    4.8025
   17.820    4.4444
   17.835    4.7920
   17.850    4.5814
   17.865    4.8868
   17.880    4.6761
   17.895    4.7183
   17.910    4.8763
   17.925    4.9289
   17.940    5.2765
   17.955    5.0764
   17.970    4.6130
   17.985    4.9605
   18.000    4.9710
   18.015    5.3291
   18.030    4.9500
   18.045    4.9078
   18.060    4.6445
   18.075    4.5603
   18.090    4.7920
   18.105    4.7288
   18.120    4.7288
   18.135    4.6551
   18.150    4.8973
   18.165    4.5603
   18.180    4.4760
   18.195    4.6761
   18.210    4.7920
   18.225    4.8236
   18.240    4.8236
   18.255    4.8868
   18.270    4.9921
   18.285    4.8131
   18.300    5.1290
   18.315    5.1080
   18.330    4.5814
   18.345    4.8868
   18.360    4.9289
   18.375    4.7920
   18.390    5.0237
   18.405    5.2027
   18.420    5.0448
   18.435    5.0132
   18.450    4.9289
   18.465    4.9816
   18.480    4.9394
   18.495    4.7288
   18.510    4.7920
   18.525    4.9605
   18.540    4.5919
   18.555    4.3918
   18.570    4.6761
   18.585    4.7183
   18.600    4.8131
   18.615    5.0132
   18.630    4.7815
   18.645    4.6867
   18.660    4.5498
   18.675    4.8657
   18.690    4.7709
   18.705    4.5182
   18.720    4.8552
   18.735    4.7077
   18.750    4.8868
   18.765    4.7393
   18.780    4.7393
   18.795    4.9710
   18.810    5.2975
   18.825    4.7288
   18.840    4.6551
   18.855    4.8657
   18.870    5.0237
   18.885    4.8341
   18.900    4.7920
   18.915    4.7815
   18.930    4.8341
   18.945    4.8447
   18.960    4.6551
   18.975    4.8025
   18.990    4.8341
   19.005    4.8552
   19.020    4.5814
   19.035    4.8763
   19.050    4.6340
   19.065    4.9394
   19.080    4.8868
   19.095    5.0448
   19.110    4.6551
   19.125    4.8447
   19.140    4.9500
   19.155    4.7709
   19.170    5.0026
   19.185    4.8025
   19.200    4.4128
   19.215    4.5498
   19.230    4.6445
   19.245    4.6551
   19.260    4.7709
   19.275    5.0869
   19.290    5.3607
   19.305    4.9710
   19.320    4.8868
   19.335    4.7183
   19.350    4.5287
   19.365    4.5182
   19.380    5.0026
   19.395    4.6972
   19.410    4.6656
   19.425    4.8341
   19.440    5.1185
   19.455    4.8025
   19.470    4.6656
   19.485    4.8131
   19.500    4.8341
   19.515    4.8868
   19.530    4.6235
   19.545    5.1922
   19.560    4.9078
   19.575    5.0237
   19.590    5.4028
   19.605    5.5503
   19.620    5.3397
   19.635    5.2554
   19.650    5.0553
   19.665    5.0553
   19.680    5.1290
   19.695    5.4344
   19.710    5.2659
   19.725    5.0658
   19.740    5.0869
   19.755    5.2975
   19.770    4.9605
   19.785    5.1290
   19.800    5.2027
   19.815    5.1395
   19.830    4.9605
   19.845    4.7920
   19.860    4.5603
   19.875    4.4866
   19.890    4.4550
   19.905    4.6445
   19.920    4.6867
   19.935    4.5708
   19.950    4.6972
   19.965    5.0658
   19.980    4.7393
   19.995    4.8236
   20.010    4.8763
   20.025    4.8868
   20.040    4.8552
   20.055    4.9921
   20.070    5.1080
   20.085    4.9816
   20.100    4.9394
   20.115    5.2449
   20.130    5.1185
   20.145    5.1711
   20.160    4.9078
   20.175    4.7183
   20.190    4.9394
   20.205    5.0764
   20.220    4.8447
   20.235    4.9710
   20.250    4.5919
   20.265    4.9816
   20.280    4.9710
   20.295    4.9605
   20.310    5.0342
   20.325    4.9500
   20.340    5.3186
   20.355    5.0026
   20.370    5.6977
   20.385    5.4766
   20.400    5.6240
   20.415    5.7504
   20.430    5.8768
   20.445    5.9610
   20.460    5.6556
   20.475    5.8347
   20.490    5.6872
   20.505    5.5398
   20.520    5.5608
   20.535    5.3818
   20.550    4.9500
   20.565    4.8447
   20.580    4.9184
   20.595    5.1817
   20.610    5.0342
   20.625    4.7183
   20.640    4.9500
   20.655    4.9605
   20.670    5.0974
   20.685    4.8447
   20.700    5.1185
   20.715    5.2343
   20.730    4.8973
   20.745    4.8973
   20.760    5.0237
   20.775    5.2238
   20.790    4.9394
   20.805    4.9816
   20.820    5.0658
   20.835    4.9921
   20.850    5.0342
   20.865    5.2659
   20.880    5.5503
   20.895    5.3081
   20.910    4.8763
   20.925    4.9184
   20.940    5.1185
   20.955    4.9921
   20.970    4.6656
   20.985    5.0237
   21.000    4.8657
   21.015    5.0658
   21.030    5.0764
   21.045    4.8552
   21.060    4.6972
   21.075    4.6867
   21.090    5.0764
   21.105    5.1290
   21.120    5.0869
   21.135    5.0132
   21.150    5.2975
   21.165    5.0026
   21.180    5.1501
   21.195    5.3397
   21.210    5.2343
   21.225    4.8025
   21.240    4.8657
   21.255    4.9394
   21.270    4.8657
   21.285    5.2027
   21.300    5.1185
   21.315    4.7920
   21.330    5.1922
   21.345    5.1395
   21.360    4.8552
   21.375    4.9921
   21.390    5.2554
   21.405    5.1501
   21.420    4.8763
   21.435    4.5919
   21.450    4.9078
   21.465    4.8868
   21.480    5.0553
   21.495    4.8763
   21.510    5.0448
   21.525    4.8868
   21.540    4.9710
   21.555    5.2027
   21.570    4.9394
   21.585    4.6024
   21.600    4.7499
   21.615    4.8131
   21.630    5.1501
   21.645    5.1080
   21.660    4.8868
   21.675    4.7604
   21.690    5.1922
   21.705    4.8973
   21.720    5.2343
   21.735    5.1501
   21.750    5.3607
   21.765    5.3186
   21.780    5.5819
   21.795    5.3712
   21.810    5.3291
   21.825    5.5292
   21.840    5.2659
   21.855    5.2870
   21.870    5.3081
   21.885    5.2975
   21.900    5.2870
   21.915    5.2133
   21.930    5.3607
   21.945    5.4555
   21.960    5.2765
   21.975    5.4976
   21.990    5.3923
   22.005    4.9500
   22.020    5.1290
   22.035    5.3923
   22.050    5.2027
   22.065    5.3502
   22.080    4.7499
   22.095    5.1606
   22.110    4.9816
   22.125    4.8552
   22.140    5.1606
   22.155    5.0974
   22.170    4.8763
   22.185    4.8025
   22.200    5.2659
   22.215    5.1185
   22.230    5.1185
   22.245    5.3291
   22.260    5.6240
   22.275    5.4660
   22.290    5.3712
   22.305    4.9921
   22.320    5.0026
   22.335    4.9921
   22.350    5.2449
   22.365    5.0342
   22.380    4.8973
   22.395    5.2659
   22.410    5.3818
   22.425    5.3607
   22.440    5.0026
   22.455    4.9710
   22.470    5.1501
   22.485    5.5398
   22.500    5.5819
   22.515    5.3818
   22.530    5.5924
   22.545    5.6135
   22.560    5.7399
   22.575    5.9926
   22.590    6.0348
   22.605    5.7715
   22.620    5.4660
   22.635    6.0874
   22.650    6.2770
   22.665    5.9716
   22.680    5.5082
   22.695    5.6240
   22.710    5.5924
   22.725    5.2238
   22.740    5.1185
   22.755    5.1501
   22.770    5.0869
   22.785    5.2870
   22.800    5.2975
   22.815    5.1711
   22.830    5.4871
   22.845    5.3923
   22.860    5.4555
   22.875    5.6240
   22.890    5.6240
   22.905    5.5714
   22.920    5.5608
   22.935    6.1295
   22.950    6.3296
   22.965    6.1717
   22.980    6.4350
   22.995    6.2559
   23.010    5.8978
   23.025    5.7083
   23.040    5.7504
   23.055    5.3607
   23.070    5.4134
   23.085    5.1395
   23.100    5.0869
   23.115    5.3502
   23.130    5.1606
   23.145    4.7183
   23.160    4.9289
   23.175    5.1922
   23.190    5.1922
   23.205    5.3923
   23.220    5.4766
   23.235    5.5292
   23.250    4.9921
   23.265    5.5082
   23.280    5.8136
   23.295    5.6240
   23.310    5.6029
   23.325    5.2975
   23.340    5.1395
   23.355    5.2554
   23.370    4.9289
   23.385    5.1606
   23.400    5.2449
   23.415    5.3186
   23.430    5.0448
   23.445    5.0132
   23.460    5.0974
   23.475    5.0764
   23.490    5.2133
   23.505    5.3712
   23.520    5.2133
   23.535    5.0132
   23.550    5.5292
   23.565    5.2554
   23.580    5.4660
   23.595    5.2449
   23.610    5.1080
   23.625    5.1290
   23.640    5.2975
   23.655    5.3081
   23.670    5.1185
   23.685    5.2133
   23.700    5.3818
   23.715    5.3397
   23.730    5.1711
   23.745    4.8131
   23.760    4.7604
   23.775    4.9394
   23.790    5.6451
   23.805    5.0658
   23.820    5.0974
   23.835    5.1290
   23.850    5.1501
   23.865    5.4134
   23.880    5.2133
   23.895    5.3186
   23.910    5.1711
   23.925    5.2449
   23.940    5.1711
   23.955    5.3502
   23.970    5.3923
   23.985    5.3186
   24.000    5.2870
   24.015    5.1817
   24.030    5.3818
   24.045    5.1395
   24.060    5.1711
   24.075    5.2765
   24.090    5.2343
   24.105    4.7604
   24.120    4.8131
   24.135    4.5603
   24.150    4.9605
   24.165    4.9710
   24.180    4.6445
   24.195    4.8236
   24.210    5.0237
   24.225    5.0553
   24.240    5.2975
   24.255    5.2133
   24.270    4.9394
   24.285    4.8973
   24.300    5.0026
   24.315    5.1290
   24.330    4.9605
   24.345    5.2554
   24.360    5.0764
   24.375    4.7920
   24.390    5.0553
   24.405    5.0448
   24.420    4.8236
   24.435    4.8657
   24.450    4.8868
   24.465    4.8657
   24.480    5.0132
   24.495    5.2238
   24.510    5.2659
   24.525    5.2975
   24.540    5.0764
   24.555    4.9921
   24.570    5.1185
   24.585    5.0764
   24.600    5.4134
   24.615    4.9605
   24.630    5.5503
   24.645    4.9394
   24.660    5.0342
   24.675    4.9184
   24.690    5.1185
   24.705    4.8552
   24.720    5.0132
   24.735    5.0658
   24.750    5.1817
   24.765    5.0764
   24.780    5.0026
   24.795    5.2238
   24.810    4.8131
   24.825    4.9289
   24.840    4.8763
   24.855    5.3081
   24.870    5.6345
   24.885    5.0026
   24.900    4.9921
   24.915    5.2449
   24.930    5.1290
   24.945    4.6656
   24.960    4.6551
   24.975    4.7920
   24.990    4.9078
   25.005    4.9921
   25.020    4.6024
   25.035    4.6130
   25.050    4.7183
   25.065    4.5708
   25.080    4.8131
   25.095    4.7288
   25.110    4.7815
   25.125    5.0342
   25.140    4.8763
   25.155    5.0974
   25.170    5.0658
   25.185    4.8552
   25.200    4.9078
   25.215    5.2765
   25.230    4.8552
   25.245    4.6972
   25.260    5.0237
   25.275    4.8973
   25.290    5.0448
   25.305    5.0974
   25.320    5.1501
   25.335    4.9500
   25.350    4.6867
   25.365    5.1501
   25.380    5.1185
   25.395    4.8868
   25.410    5.0553
   25.425    4.8868
   25.440    4.9394
   25.455    4.5287
   25.470    4.4444
   25.485    4.6235
   25.500    4.9605
   25.515    5.1395
   25.530    5.2343
   25.545    5.1290
   25.560    5.0974
   25.575    4.8973
   25.590    4.5498
   25.605    4.8447
   25.620    4.9710
   25.635    4.9500
   25.650    4.6656
   25.665    5.0342
   25.680    4.7920
   25.695    5.0237
   25.710    4.7077
   25.725    4.8763
   25.740    4.9184
   25.755    4.9394
   25.770    5.0553
   25.785    5.3397
   25.800    5.6135
   25.815    5.3081
   25.830    5.4660
   25.845    5.5292
   25.860    5.4028
   25.875    5.1922
   25.890    5.3818
   25.905    5.1817
   25.920    5.2765
   25.935    5.3923
   25.950    5.3923
   25.965    5.1817
   25.980    5.0448
   25.995    4.8025
   26.010    4.9921
   26.025    4.8868
   26.040    4.6235
   26.055    4.8552
   26.070    4.8763
   26.085    5.0869
   26.100    5.0132
   26.115    4.6130
   26.130    4.6551
   26.145    4.9605
   26.160    4.9710
   26.175    5.0448
   26.190    4.9078
   26.205    5.0342
   26.220    4.8025
   26.235    4.8341
   26.250    4.6656
   26.265    4.8973
   26.280    4.5392
   26.295    4.6445
   26.310    4.6656
   26.325    4.3602
   26.340    4.8236
   26.355    4.9605
   26.370    4.8973
   26.385    4.9816
   26.400    5.2027
   26.415    4.8025
   26.430    4.4234
   26.445    4.8868
   26.460    4.6551
   26.475    5.0553
   26.490    4.9184
   26.505    4.9710
   26.520    4.8868
   26.535    4.7709
   26.550    5.0026
   26.565    4.8763
   26.580    4.9605
   26.595    5.1606
   26.610    4.7815
   26.625    4.7499
   26.640    4.4655
   26.655    4.2970
   26.670    4.7604
   26.685    4.4971
   26.700    4.3602
   26.715    4.8341
   26.730    5.0026
   26.745    4.7183
   26.760    4.8657
   26.775    4.7920
   26.790    4.4234
   26.805    4.5287
   26.820    4.5919
   26.835    4.8447
   26.850    4.8973
   26.865    4.6445
   26.880    4.7815
   26.895    4.7077
   26.910    4.7920
   26.925    4.6867
   26.940    4.4023
   26.955    4.5814
   26.970    4.7709
   26.985    4.7077
   27.000    4.7920
   27.015    5.0553
   27.030    4.6445
   27.045    4.6445
   27.060    4.7709
   27.075    5.1501
   27.090    5.1080
   27.105    5.0342
   27.120    4.6445
   27.135    4.4128
   27.150    5.0448
   27.165    4.8763
   27.180    4.6656
   27.195    4.6445
   27.210    4.6761
   27.225    4.4550
   27.240    4.6972
   27.255    4.4234
   27.270    4.7604
   27.285    4.3181
   27.300    4.7499
   27.315    4.7183
   27.330    4.5076
   27.345    4.3075
   27.360    4.4971
   27.375    4.4760
   27.390    4.7499
   27.405    4.7920
   27.420    4.5814
   27.435    4.8341
   27.450    4.5287
   27.465    4.8763
   27.480    4.3707
   27.495    4.5603
   27.510    4.5498
   27.525    4.5919
   27.540    4.8973
   27.555    4.8341
   27.570    4.6235
   27.585    4.7920
   27.600    4.7393
   27.615    4.6972
   27.630    4.9078
   27.645    4.6340
   27.660    4.4444
   27.675    4.6445
   27.690    4.7815
   27.705    4.8131
   27.720    4.7077
   27.735    4.7920
   27.750    4.6445
   27.765    4.5603
   27.780    4.6761
   27.795    4.5708
   27.810    5.0342
   27.825    5.0448
   27.840    4.6761
   27.855    4.7709
   27.870    4.9184
   27.885    4.8236
   27.900    4.8236
   27.915    4.6340
   27.930    4.9816
   27.945    4.8763
   27.960    4.6340
   27.975    4.5919
   27.990    4.2549
   28.005    4.4866
   28.020    4.4655
   28.035    4.7393
   28.050    4.6024
   28.065    4.6761
   28.080    4.5708
   28.095    4.5603
   28.110    4.6024
   28.125    4.3707
   28.140    4.5708
   28.155    5.0026
   28.170    4.6551
   28.185    4.5287
   28.200    4.5076
   28.215    4.6867
   28.230    4.7393
   28.245    4.7183
   28.260    4.7920
   28.275    5.0658
   28.290    4.6024
   28.305    4.9921
   28.320    4.8447
   28.335    4.9289
   28.350    4.5814
   28.365    4.5076
   28.380    4.4866
   28.395    4.5919
   28.410    4.5076
   28.425    4.6656
   28.440    4.6867
   28.455    4.6972
   28.470    4.6867
   28.485    4.6235
   28.500    4.4550
   28.515    4.6656
   28.530    4.7499
   28.545    4.6867
   28.560    4.5919
   28.575    4.9394
   28.590    4.8763
   28.605    4.4971
   28.620    4.7077
   28.635    5.1606
   28.650    4.5603
   28.665    4.7815
   28.680    4.3602
   28.695    4.4339
   28.710    4.2759
   28.725    4.3181
   28.740    4.5708
   28.755    4.3707
   28.770    4.3286
   28.785    4.2443
   28.800    4.2865
   28.815    4.4866
   28.830    4.2654
   28.845    4.2549
   28.860    4.3391
   28.875    4.3075
   28.890    4.8025
   28.905    4.9394
   28.920    4.3602
   28.935    4.7183
   28.950    4.5498
   28.965    4.6867
   28.980    4.5919
   28.995    4.6235
   29.010    4.4550
   29.025    4.5392
   29.040    4.3918
   29.055    4.4655
   29.070    4.5603
   29.085    4.4234
   29.100    4.4128
   29.115    4.5287
   29.130    4.4339
   29.145    4.2338
   29.160    4.3918
   29.175    4.4550
   29.190    4.6235
   29.205    4.6551
   29.220    4.5287
   29.235    4.4655
   29.250    4.4971
   29.265    4.4550
   29.280    4.1074
   29.295    4.3707
   29.310    4.8025
   29.325    4.7920
   29.340    4.4339
   29.355    4.2127
   29.370    4.4444
   29.385    4.4339
   29.400    4.4023
   29.415    4.6445
   29.430    4.5919
   29.445    4.2970
   29.460    4.3181
   29.475    4.2127
   29.490    4.4655
   29.505    4.3497
   29.520    4.2970
   29.535    4.2022
   29.550    4.5708
   29.565    4.5498
   29.580    4.4971
   29.595    4.2759
   29.610    4.2759
   29.625    4.3181
   29.640    4.0337
   29.655    4.1811
   29.670    4.3813
   29.685    3.8336
   29.700    4.2233
   29.715    4.1917
   29.730    4.3286
   29.745    4.2654
   29.760    4.3707
   29.775    4.2549
   29.790    4.6024
   29.805    4.0442
   29.820    4.0758
   29.835    4.1811
   29.850    4.3813
   29.865    4.2970
   29.880    4.5392
   29.895    4.5076
   29.910    4.3707
   29.925    4.4655
   29.940    4.3181
   29.955    4.1601
   29.970    4.4866
   29.985    4.3075
   30.000    4.3286
   30.015    4.1285
   30.030    4.2865
   30.045    4.2970
   30.060    4.1496
   30.075    4.3602
   30.090    4.5287
   30.105    4.4128
   30.120    4.5076
   30.135    4.3918
   30.150    4.1811
   30.165    4.2970
   30.180    4.2127
   30.195    4.2865
   30.210    4.1601
   30.225    4.2338
   30.240    4.0548
   30.255    4.1706
   30.270    4.2022
   30.285    4.2022
   30.300    4.2022
   30.315    4.3391
   30.330    4.2865
   30.345    3.9600
   30.360    4.2127
   30.375    4.0021
   30.390    4.3813
   30.405    4.5182
   30.420    4.1706
   30.435    4.3075
   30.450    4.0232
   30.465    4.0969
   30.480    4.3918
   30.495    4.6130
   30.510    4.3707
   30.525    4.4444
   30.540    4.1074
   30.555    3.7493
   30.570    3.9284
   30.585    4.1074
   30.600    4.2970
   30.615    4.3075
   30.630    4.0548
   30.645    4.5392
   30.660    4.5076
   30.675    4.2443
   30.690    4.2022
   30.705    4.1601
   30.720    4.0548
   30.735    4.3602
   30.750    4.0969
   30.765    3.9600
   30.780    4.3181
   30.795    4.4128
   30.810    4.2759
   30.825    4.0442
   30.840    4.2654
   30.855    4.0758
   30.870    4.1285
   30.885    4.3286
   30.900    4.3075
   30.915    4.1917
   30.930    3.9705
   30.945    3.8757
   30.960    4.0864
   30.975    4.0232
   30.990    4.1285
   31.005    4.1285
   31.020    4.1496
   31.035    3.8757
   31.050    3.9494
   31.065    4.0548
   31.080    4.1285
   31.095    3.8336
   31.110    3.9389
   31.125    4.0548
   31.140    4.2233
   31.155    4.0758
   31.170    4.4128
   31.185    4.2443
   31.200    4.1180
   31.215    4.2970
   31.230    3.7915
   31.245    4.2970
   31.260    4.0548
   31.275    4.0021
   31.290    4.1180
   31.305    4.0653
   31.320    4.0653
   31.335    3.8231
   31.350    4.2865
   31.365    4.2022
   31.380    4.2443
   31.395    4.2970
   31.410    4.1180
   31.425    4.0337
   31.440    4.4023
   31.455    4.3918
   31.470    4.4866
   31.485    4.2759
   31.500    4.1074
   31.515    4.0969
   31.530    4.1601
   31.545    3.8125
   31.560    3.7599
   31.575    3.9073
   31.590    4.2022
   31.605    4.1917
   31.620    4.1180
   31.635    4.0969
   31.650    4.2549
   31.665    4.1180
   31.680    4.0864
   31.695    4.0758
   31.710    4.1390
   31.725    4.1601
   31.740    4.1706
   31.755    4.1285
   31.770    3.8863
   31.785    3.9916
   31.800    3.9600
   31.815    3.9284
   31.830    4.1180
   31.845    4.0232
   31.860    3.9389
   31.875    3.7177
   31.890    4.0337
   31.905    3.7809
   31.920    3.7388
   31.935    3.9494
   31.950    3.5387
   31.965    3.7599
   31.980    4.2127
   31.995    4.2443
   32.010    3.8020
   32.025    3.8336
   32.040    4.1601
   32.055    4.2654
   32.070    4.1285
   32.085    4.0442
   32.100    4.1074
   32.115    3.7704
   32.130    4.0864
   32.145    3.9600
   32.160    4.0653
   32.175    3.7809
   32.190    3.7809
   32.205    3.7809
   32.220    4.0548
   32.235    4.0758
   32.250    4.0337
   32.265    4.0126
   32.280    4.0126
   32.295    3.8968
   32.310    4.0021
   32.325    3.7915
   32.340    3.6967
   32.355    3.9284
   32.370    4.0126
   32.385    3.9494
   32.400    3.9073
   32.415    3.7283
   32.430    4.1601
   32.445    3.9179
   32.460    3.8020
   32.475    3.9916
   32.490    4.1180
   32.505    4.1811
   32.520    3.7072
   32.535    3.9284
   32.550    3.7283
   32.565    4.0548
   32.580    4.0337
   32.595    3.8547
   32.610    3.9073
   32.625    4.0126
   32.640    4.3391
   32.655    4.1811
   32.670    3.6967
   32.685    3.7915
   32.700    3.8757
   32.715    3.7177
   32.730    4.0442
   32.745    3.9284
   32.760    4.1496
   32.775    4.0337
   32.790    3.9705
   32.805    3.9494
   32.820    3.4860
   32.835    3.8020
   32.850    3.6440
   32.865    3.8652
   32.880    3.5387
   32.895    3.7493
   32.910    4.0126
   32.925    3.8441
   32.940    3.6756
   32.955    3.7177
   32.970    4.0021
   32.985    4.0126
   33.000    3.8652
   33.015    4.0442
   33.030    3.8757
   33.045    3.8547
   33.060    4.0548
   33.075    3.7283
   33.090    3.6230
   33.105    3.8125
   33.120    3.9179
   33.135    3.7283
   33.150    3.8020
   33.165    4.0548
   33.180    3.7493
   33.195    3.4860
   33.210    3.9073
   33.225    3.9073
   33.240    3.6124
   33.255    3.9179
   33.270    3.8231
   33.285    4.0021
   33.300    3.7072
   33.315    3.8336
   33.330    3.6230
   33.345    3.6546
   33.360    3.7809
   33.375    3.6967
   33.390    3.8020
   33.405    3.7915
   33.420    3.7915
   33.435    4.0337
   33.450    3.8125
   33.465    3.6756
   33.480    3.7072
   33.495    3.9284
   33.510    3.7915
   33.525    3.7704
   33.540    3.7809
   33.555    3.6335
   33.570    3.9389
   33.585    3.6862
   33.600    3.5176
   33.615    3.3281
   33.630    3.7493
   33.645    3.6335
   33.660    3.7177
   33.675    3.8652
   33.690    3.6440
   33.705    3.7493
   33.720    3.7388
   33.735    3.9600
   33.750    4.0126
   33.765    3.6651
   33.780    3.6335
   33.795    3.7915
   33.810    4.1390
   33.825    3.9284
   33.840    3.8125
   33.855    3.5492
   33.870    3.6967
   33.885    3.9389
   33.900    3.8336
   33.915    3.6862
   33.930    3.8020
   33.945    3.4755
   33.960    3.7599
   33.975    3.7493
   33.990    3.6230
   34.005    3.6440
   34.020    3.9389
   34.035    3.9284
   34.050    3.8231
   34.065    4.1496
   34.080    4.0126
   34.095    3.7493
   34.110    3.5387
   34.125    3.4650
   34.140    3.6335
   34.155    3.8757
   34.170    3.7704
   34.185    3.9284
   34.200    3.9073
   34.215    3.6124
   34.230    3.6440
   34.245    3.7283
   34.260    3.6967
   34.275    3.7915
   34.290    3.6440
   34.305    3.6335
   34.320    3.7599
   34.335    3.5387
   34.350    3.6967
   34.365    3.6862
   34.380    3.7177
   34.395    3.7704
   34.410    3.4439
   34.425    3.7283
   34.440    3.6651
   34.455    3.7915
   34.470    3.5703
   34.485    3.7493
   34.500    3.8757
   34.515    3.6546
   34.530    3.5282
   34.545    3.6230
   34.560    3.7388
   34.575    3.6019
   34.590    3.3913
   34.605    3.3491
   34.620    3.7599
   34.635    3.5598
   34.650    3.3913
   34.665    3.6967
   34.680    3.5808
   34.695    3.7283
   34.710    3.5492
   34.725    3.7177
   34.740    3.6862
   34.755    3.7599
   34.770    3.6230
   34.785    3.4860
   34.800    3.3491
   34.815    3.4544
   34.830    3.6230
   34.845    3.7809
   34.860    3.7915
   34.875    3.8231
   34.890    3.5914
   34.905    3.8125
   34.920    3.6862
   34.935    3.5387
   34.950    3.4123
   34.965    3.4123
   34.980    3.7283
   34.995    3.7809
   35.010    3.5808
   35.025    3.6230
   35.040    3.6651
   35.055    3.8757
   35.070    3.6230
   35.085    3.3913
   35.100    3.4439
   35.115    3.8547
   35.130    3.6546
   35.145    3.5282
   35.160    3.4229
   35.175    3.5808
   35.190    3.4650
   35.205    3.5703
   35.220    3.6546
   35.235    3.3913
   35.250    3.4755
   35.265    3.5176
   35.280    3.3491
   35.295    3.4334
   35.310    3.6335
   35.325    3.7599
   35.340    3.4123
   35.355    3.2965
   35.370    3.5387
   35.385    3.4860
   35.400    3.8125
   35.415    3.5703
   35.430    3.6124
   35.445    3.8652
   35.460    3.5282
   35.475    3.5598
   35.490    3.4755
   35.505    3.7493
   35.520    3.6862
   35.535    3.7809
   35.550    3.6230
   35.565    3.2543
   35.580    3.5598
   35.595    3.3702
   35.610    3.6756
   35.625    3.4966
   35.640    3.7599
   35.655    3.3175
   35.670    3.4018
   35.685    3.6756
   35.700    3.7177
   35.715    3.2333
   35.730    3.2965
   35.745    3.8757
   35.760    3.5071
   35.775    3.2017
   35.790    3.4334
   35.805    3.4544
   35.820    3.4544
   35.835    3.5808
   35.850    3.3281
   35.865    3.6651
   35.880    3.3597
   35.895    3.3491
   35.910    3.1806
   35.925    3.1806
   35.940    3.3491
   35.955    3.4334
   35.970    3.0964
   35.985    3.1174
   36.000    3.3597
   36.015    3.5703
   36.030    3.2965
   36.045    3.5598
   36.060    3.5071
   36.075    3.4966
   36.090    3.3913
   36.105    3.3281
   36.120    3.3386
   36.135    3.4966
   36.150    3.5282
   36.165    3.4123
   36.180    3.5703
   36.195    3.5492
   36.210    3.5387
   36.225    3.2859
   36.240    3.1912
   36.255    3.4439
   36.270    3.3807
   36.285    3.2543
   36.300    3.6230
   36.315    3.2543
   36.330    3.6335
   36.345    3.4966
   36.360    3.4755
   36.375    3.3386
   36.390    3.4650
   36.405    3.2227
   36.420    3.4860
   36.435    3.5492
   36.450    3.3070
   36.465    3.4229
   36.480    3.6440
   36.495    3.1596
   36.510    3.1806
   36.525    3.4123
   36.540    3.2649
   36.555    3.4860
   36.570    3.2859
   36.585    3.5492
   36.600    3.6124
   36.615    3.3386
   36.630    3.4966
   36.645    3.5387
   36.660    3.6019
   36.675    3.2438
   36.690    3.4229
   36.705    3.3281
   36.720    3.4650
   36.735    3.5176
   36.750    3.4123
   36.765    3.6335
   36.780    3.3913
   36.795    3.2965
   36.810    3.1596
   36.825    3.2859
   36.840    3.2965
   36.855    3.4334
   36.870    3.4018
   36.885    3.3281
   36.900    3.3175
   36.915    3.5282
   36.930    3.3913
   36.945    3.3070
   36.960    3.1490
   36.975    3.3175
   36.990    3.4966
   37.005    3.2543
   37.020    3.5387
   37.035    3.3491
   37.050    3.3070
   37.065    3.2227
   37.080    3.1280
   37.095    3.5808
   37.110    3.2754
   37.125    3.0648
   37.140    3.3807
   37.155    3.2859
   37.170    3.4860
   37.185    3.6546
   37.200    3.6230
   37.215    3.3913
   37.230    3.2438
   37.245    3.4755
   37.260    3.7915
   37.275    3.2438
   37.290    3.0332
   37.305    3.2017
   37.320    3.4860
   37.335    3.2965
   37.350    3.4966
   37.365    3.5387
   37.380    3.1912
   37.395    3.3281
   37.410    3.1912
   37.425    3.2649
   37.440    3.2122
   37.455    2.9805
   37.470    3.2122
   37.485    3.3070
   37.500    3.2859
   37.515    3.1280
   37.530    3.3281
   37.545    3.3597
   37.560    3.5492
   37.575    3.3597
   37.590    3.2122
   37.605    3.0226
   37.620    3.4229
   37.635    3.4439
   37.650    3.6230
   37.665    3.2859
   37.680    3.3491
   37.695    3.5808
   37.710    3.3807
   37.725    3.3070
   37.740    3.2438
   37.755    3.4755
   37.770    3.0964
   37.785    3.4544
   37.800    3.3175
   37.815    3.5703
   37.830    3.4018
   37.845    3.4334
   37.860    3.2543
   37.875    3.1806
   37.890    3.2965
   37.905    3.0858
   37.920    3.3597
   37.935    3.2543
   37.950    3.1806
   37.965    3.0964
   37.980    3.5176
   37.995    3.3807
   38.010    3.4755
   38.025    2.9700
   38.040    3.1912
   38.055    3.0858
   38.070    3.3281
   38.085    3.2965
   38.100    3.3491
   38.115    3.4544
   38.130    3.4123
   38.145    3.2438
   38.160    3.4018
   38.175    3.4966
   38.190    3.0964
   38.205    3.1069
   38.220    3.3807
   38.235    3.4439
   38.250    3.2754
   38.265    3.1174
   38.280    3.2227
   38.295    2.9489
   38.310    3.1596
   38.325    3.3491
   38.340    3.2017
   38.355    3.2438
   38.370    3.1806
   38.385    3.1280
   38.400    3.2649
   38.415    3.2333
   38.430    3.0753
   38.445    3.3597
   38.460    3.5703
   38.475    3.2543
   38.490    3.4544
   38.505    3.0016
   38.520    3.3913
   38.535    3.3281
   38.550    3.2227
   38.565    3.0542
   38.580    3.1806
   38.595    3.3597
   38.610    3.3281
   38.625    3.0753
   38.640    3.2333
   38.655    2.9279
   38.670    3.2017
   38.685    3.4439
   38.700    3.2227
   38.715    3.2649
   38.730    3.2333
   38.745    3.1385
   38.760    3.1806
   38.775    3.2333
   38.790    3.0648
   38.805    3.2227
   38.820    3.2333
   38.835    3.1069
   38.850    3.4966
   38.865    3.2227
   38.880    3.2859
   38.895    3.2017
   38.910    3.1596
   38.925    3.1490
   38.940    3.2438
   38.955    3.3807
   38.970    3.3913
   38.985    3.0121
   39.000    3.0226
   39.015    3.2859
   39.030    3.1385
   39.045    3.0226
   39.060    3.4755
   39.075    3.4439
   39.090    3.0016
   39.105    2.9173
   39.120    3.1174
   39.135    3.2543
   39.150    3.1385
   39.165    3.3175
   39.180    3.1806
   39.195    3.3491
   39.210    3.3702
   39.225    3.4018
   39.240    3.5071
   39.255    3.3386
   39.270    3.3070
   39.285    3.3807
   39.300    3.1490
   39.315    3.2333
   39.330    3.1596
   39.345    3.0542
   39.360    3.1912
   39.375    3.4334
   39.390    3.4123
   39.405    3.2438
   39.420    3.1596
   39.435    3.2333
   39.450    3.0648
   39.465    3.2227
   39.480    3.1069
   39.495    3.0226
   39.510    2.8963
   39.525    3.2333
   39.540    3.3386
   39.555    3.1174
   39.570    3.1385
   39.585    3.1069
   39.600    3.0226
   39.615    3.1596
   39.630    3.1912
   39.645    3.1912
   39.660    3.3175
   39.675    3.1806
   39.690    3.0226
   39.705    3.2965
   39.720    3.1806
   39.735    3.0437
   39.750    3.0437
   39.765    3.4229
   39.780    3.1912
   39.795    3.2649
   39.810    3.0648
   39.825    3.4966
   39.840    3.1806
   39.855    3.2754
   39.870    3.1701
   39.885    3.2543
   39.900    2.7909
   39.915    2.9068
   39.930    3.2438
   39.945    3.2333
   39.960    3.4229
   39.975    3.3070
   39.990    3.5071
