    1.500   12.6207
    1.515   13.0068
    1.530   12.2345
    1.545   12.1116
    1.560   12.6031
    1.575   12.0941
    1.590   12.0941
    1.605   11.7957
    1.620   11.1989
    1.635   11.4271
    1.650   11.6377
    1.665   10.7425
    1.680   10.5494
    1.695   10.5494
    1.710   10.6021
    1.725   11.3393
    1.740   10.3388
    1.755    9.9351
    1.770   10.5143
    1.785   10.0053
    1.800   10.1983
    1.815   10.6372
    1.830    9.9877
    1.845   10.3914
    1.860    9.8999
    1.875    9.7244
    1.890   10.4792
    1.905    9.5840
    1.920   10.3037
    1.935    9.6367
    1.950    9.6893
    1.965    8.8292
    1.980    8.9696
    1.995    9.2329
    2.010    9.1101
    2.025    8.7765
    2.040    8.3553
    2.055    9.1627
    2.070    9.2680
    2.085    9.1978
    2.100    8.7765
    2.115    8.7590
    2.130    9.2154
    2.145    8.7239
    2.160    9.0750
    2.175    8.6888
    2.190    8.7941
    2.205    8.8994
    2.220    8.8819
    2.235    8.3728
    2.250    7.8287
    2.265    8.6712
    2.280    8.5835
    2.295    8.4781
    2.310    8.6537
    2.325    8.4606
    2.340    8.4255
    2.355    8.3904
    2.370    8.8643
    2.385    8.7590
    2.400    8.1797
    2.415    8.3904
    2.430    8.2149
    2.445    8.1095
    2.460    7.8462
    2.475    8.1271
    2.490    7.7409
    2.505    7.9691
    2.520    7.9164
    2.535    7.8111
    2.550    7.9867
    2.565    7.6005
    2.580    7.4074
    2.595    7.9516
    2.610    7.5654
    2.625    8.2149
    2.640    8.2675
    2.655    7.6532
    2.670    7.9340
    2.685    7.4074
    2.700    6.8106
    2.715    7.9340
    2.730    7.4425
    2.745    6.9159
    2.760    7.3723
    2.775    7.6005
    2.790    7.0037
    2.805    7.0037
    2.820    7.1266
    2.835    7.0212
    2.850    7.3372
    2.865    7.7585
    2.880    7.6707
    2.895    7.2143
    2.910    7.4776
    2.925    7.3899
    2.940    7.5127
    2.955    7.7760
    2.970    6.8808
    2.985    7.0212
    3.000    7.6707
    3.015    8.0920
    3.030    7.6532
    3.045    7.1968
    3.060    7.6356
    3.075    7.3372
    3.090    7.4250
    3.105    7.8462
    3.120    8.0920
    3.135    7.5654
    3.150    7.8989
    3.165    8.0218
    3.180    7.9164
    3.195    7.3723
    3.210    7.7760
    3.225    7.7936
    3.240    8.0744
    3.255    8.5835
    3.270    8.4079
    3.285    7.9516
    3.300    8.3202
    3.315    8.4255
    3.330    8.1271
    3.345    9.1627
    3.360    8.9521
    3.375    8.8292
    3.390    9.6015
    3.405    9.6191
    3.420    9.9351
    3.435    9.9526
    3.450   10.2510
    3.465    9.9351
    3.480   10.8303
    3.495   10.5319
    3.510   11.0936
    3.525   11.4797
    3.540   11.6202
    3.555   13.0946
    3.570   12.7787
    3.585   13.0068
    3.600   13.2526
    3.615   14.2882
    3.630   15.1132
    3.645   15.7276
    3.660   15.6398
    3.675   17.0090
    3.690   18.3079
    3.705   20.5196
    3.720   21.9063
    3.735   24.1355
    3.750   24.5568
    3.765   26.7860
    3.780   30.5424
    3.795   34.2988
    3.810   39.7227
    3.825   46.9194
    3.840   51.7992
    3.855   51.2902
    3.870   47.2178
    3.885   40.8812
    3.900   30.6828
    3.915   21.8536
    3.930   15.3414
    3.945   10.4616
    3.960    9.1101
    3.975    8.3377
    3.990    7.9516
    4.005    8.0569
    4.020    7.2845
    4.035    7.3196
    4.050    6.7404
    4.065    7.0915
    4.080    6.8984
    4.095    7.5127
    4.110    6.9510
    4.125    7.1441
    4.140    6.7755
    4.155    7.0739
    4.170    7.2319
    4.185    7.1090
    4.200    7.3196
    4.215    7.0563
    4.230    7.3196
    4.245    6.9686
    4.260    6.5473
    4.275    6.6702
    4.290    7.1441
    4.305    7.8287
    4.320    7.0388
    4.335    7.1968
    4.350    7.0037
    4.365    6.8282
    4.380    6.9510
    4.395    7.3372
    4.410    7.3547
    4.425    7.1441
    4.440    6.9159
    4.455    6.4595
    4.470    6.6526
    4.485    7.0388
    4.500    7.2319
    4.515    6.5824
    4.530    6.9861
    4.545    7.2670
    4.560    6.7579
    4.575    6.9510
    4.590    7.2494
    4.605    7.0212
    4.620    6.6702
    4.635    7.1266
    4.650    6.6702
    4.665    6.6526
    4.680    6.9335
    4.695    7.3899
    4.710    6.6000
    4.725    6.7053
    4.740    7.1266
    4.755    7.6356
    4.770    7.0563
    4.785    7.2319
    4.800    7.4425
    4.815    7.1617
    4.830    7.6005
    4.845    7.2143
    4.860    7.4425
    4.875    7.5303
    4.890    7.1617
    4.905    7.3021
    4.920    7.4074
    4.935    7.1968
    4.950    7.5127
    4.965    7.0563
    4.980    7.6005
    4.995    7.3196
    5.010    7.6356
    5.025    7.9516
    5.040    7.3196
    5.055    7.4074
    5.070    7.9867
    5.085    8.0920
    5.100    7.3196
    5.115    7.8638
    5.130    7.8989
    5.145    7.6707
    5.160    7.7058
    5.175    8.1271
    5.190    8.0393
    5.205    8.7590
    5.220    8.9170
    5.235    8.6537
    5.250    9.0574
    5.265    8.9872
    5.280    9.3909
    5.295    9.5489
    5.310   10.9180
    5.325   10.1281
    5.340   10.3212
    5.355   10.5143
    5.370   11.0233
    5.385   10.9356
    5.400   11.8483
    5.415   12.5680
    5.430   13.4983
    5.445   13.9196
    5.460   14.6744
    5.475   15.2361
    5.490   15.1132
    5.505   13.9196
    5.520   12.4100
    5.535   11.6202
    5.550   10.7952
    5.565    9.3558
    5.580    9.8648
    5.595    9.9351
    5.610    8.7063
    5.625    8.9521
    5.640    8.8994
    5.655    9.1101
    5.670    8.6361
    5.685    8.5659
    5.700    8.5308
    5.715    9.0574
    5.730    9.2856
    5.745    8.3202
    5.760    9.0750
    5.775    8.4781
    5.790    8.1622
    5.805    8.5308
    5.820    8.7239
    5.835    7.7409
    5.850    7.5127
    5.865    7.3372
    5.880    7.6532
    5.895    7.7234
    5.910    7.7760
    5.925    7.6180
    5.940    6.9510
    5.955    7.1792
    5.970    7.4601
    5.985    6.7930
    6.000    7.1617
    6.015    7.5478
    6.030    7.1968
    6.045    6.8457
    6.060    6.7053
    6.075    6.6877
    6.090    6.1611
    6.105    6.4244
    6.120    6.8633
    6.135    6.1260
    6.150    6.6351
    6.165    6.9159
    6.180    6.9159
    6.195    7.0212
    6.210    6.6877
    6.225    6.9335
    6.240    7.1617
    6.255    6.5824
    6.270    6.4420
    6.285    6.6175
    6.300    6.9510
    6.315    6.8106
    6.330    6.6526
    6.345    6.5824
    6.360    6.4420
    6.375    6.5473
    6.390    6.2313
    6.405    6.3016
    6.420    6.7228
    6.435    7.2494
    6.450    6.3016
    6.465    6.1962
    6.480    6.0909
    6.495    6.4244
    6.510    6.8984
    6.525    7.0915
    6.540    6.7404
    6.555    6.0909
    6.570    6.7228
    6.585    6.7755
    6.600    6.4946
    6.615    6.0558
    6.630    6.5473
    6.645    6.7755
    6.660    6.5824
    6.675    7.3021
    6.690    7.2143
    6.705    6.9159
    6.720    6.8282
    6.735    7.1617
    6.750    7.1968
    6.765    6.5824
    6.780    6.1260
    6.795    6.1260
    6.810    5.7925
    6.825    5.7399
    6.840    5.9856
    6.855    5.5292
    6.870    5.8627
    6.885    6.0207
    6.900    6.1787
    6.915    5.8276
    6.930    6.0734
    6.945    5.8978
    6.960    5.7399
    6.975    5.8978
    6.990    5.5994
    7.005    5.2308
    7.020    5.9329
    7.035    5.7925
    7.050    5.7574
    7.065    5.8101
    7.080    5.8978
    7.095    5.3010
    7.110    5.7223
    7.125    5.2133
    7.140    5.4766
    7.155    5.0553
    7.170    5.3010
    7.185    5.3186
    7.200    5.6521
    7.215    5.6521
    7.230    5.1080
    7.245    5.4941
    7.260    5.6170
    7.275    5.7048
    7.290    5.4064
    7.305    5.4941
    7.320    5.7223
    7.335    4.9500
    7.350    5.3712
    7.365    5.5819
    7.380    5.4415
    7.395    5.4415
    7.410    5.1957
    7.425    5.0904
    7.440    5.1957
    7.455    5.1080
    7.470    4.7393
    7.485    5.4941
    7.500    5.3010
    7.515    5.4415
    7.530    5.2659
    7.545    5.1782
    7.560    5.3888
    7.575    5.1255
    7.590    5.1255
    7.605    5.1957
    7.620    5.6170
    7.635    5.5819
    7.650    5.2484
    7.665    5.5819
    7.680    5.4415
    7.695    5.5292
    7.710    5.6697
    7.725    6.2489
    7.740    6.4595
    7.755    6.5122
    7.770    6.2840
    7.785    6.9335
    7.800    6.6526
    7.815    5.9329
    7.830    5.4590
    7.845    5.2308
    7.860    5.3537
    7.875    5.2484
    7.890    5.0377
    7.905    4.8271
    7.920    4.8622
    7.935    5.2835
    7.950    5.1782
    7.965    4.7218
    7.980    5.1255
    7.995    4.6867
    8.010    4.7218
    8.025    5.1080
    8.040    5.0904
    8.055    5.0553
    8.070    4.9675
    8.085    4.6340
    8.100    4.7920
    8.115    4.7218
    8.130    4.5287
    8.145    5.0728
    8.160    4.4409
    8.175    4.5814
    8.190    4.6165
    8.205    4.9675
    8.220    5.1080
    8.235    4.7218
    8.250    4.8622
    8.265    4.7744
    8.280    4.7569
    8.295    4.6165
    8.310    4.6516
    8.325    4.4760
    8.340    4.4585
    8.355    4.4058
    8.370    4.8798
    8.385    5.0026
    8.400    4.4936
    8.415    4.1952
    8.430    4.4234
    8.445    4.6165
    8.460    4.4058
    8.475    4.6340
    8.490    4.2830
    8.505    4.5989
    8.520    4.4234
    8.535    4.5814
    8.550    4.4760
    8.565    5.1080
    8.580    4.8973
    8.595    4.4585
    8.610    4.6516
    8.625    4.5463
    8.640    4.5111
    8.655    4.6691
    8.670    4.9149
    8.685    4.5111
    8.700    4.7744
    8.715    4.7920
    8.730    5.1255
    8.745    5.0026
    8.760    4.4936
    8.775    4.1952
    8.790    4.1601
    8.805    3.9494
    8.820    4.1601
    8.835    4.9324
    8.850    4.7920
    8.865    4.3181
    8.880    4.5287
    8.895    4.6340
    8.910    4.4936
    8.925    4.5814
    8.940    4.5989
    8.955    4.3005
    8.970    4.4234
    8.985    4.2654
    9.000    4.1250
    9.015    4.1601
    9.030    3.9319
    9.045    4.2127
    9.060    4.5111
    9.075    4.4585
    9.090    4.7218
    9.105    4.3005
    9.120    4.3356
    9.135    4.0197
    9.150    4.1250
    9.165    4.2654
    9.180    4.2654
    9.195    4.1601
    9.210    4.8447
    9.225    4.4585
    9.240    4.3356
    9.255    4.5111
    9.270    4.1776
    9.285    4.5111
    9.300    5.2835
    9.315    4.7393
    9.330    4.1776
    9.345    4.0021
    9.360    4.6867
    9.375    5.3361
    9.390    5.2484
    9.405    5.3186
    9.420    5.4766
    9.435    5.4941
    9.450    5.6521
    9.465    6.1611
    9.480    6.0207
    9.495    6.8808
    9.510    7.4952
    9.525    8.0744
    9.540    8.2149
    9.555    7.8287
    9.570    7.0915
    9.585    6.7930
    9.600    6.0734
    9.615    5.2659
    9.630    4.9500
    9.645    4.6516
    9.660    4.1601
    9.675    4.1776
    9.690    4.1952
    9.705    4.3883
    9.720    4.2830
    9.735    4.0548
    9.750    4.0197
    9.765    4.3181
    9.780    4.8973
    9.795    4.7920
    9.810    4.3532
    9.825    4.6340
    9.840    4.3707
    9.855    4.3005
    9.870    4.2303
    9.885    4.3356
    9.900    4.4058
    9.915    4.6691
    9.930    4.2654
    9.945    4.3532
    9.960    4.3356
    9.975    4.2478
    9.990    4.2654
   10.005    4.2127
   10.020    4.7744
   10.035    4.7218
   10.050    4.3181
   10.065    4.4409
   10.080    4.5463
   10.095    4.5287
   10.110    4.1952
   10.125    4.2830
   10.140    4.7042
   10.155    4.5638
   10.170    4.6691
   10.185    4.9675
   10.200    4.5989
   10.215    4.8271
   10.230    5.1782
   10.245    5.2835
   10.260    5.4941
   10.275    5.5994
   10.290    5.8276
   10.305    5.4941
   10.320    5.5643
   10.335    5.0377
   10.350    5.2308
   10.365    4.9324
   10.380    4.5111
   10.395    4.7218
   10.410    4.6691
   10.425    4.6516
   10.440    4.8447
   10.455    4.4234
   10.470    4.5638
   10.485    4.5111
   10.500    4.3181
   10.515    4.5463
   10.530    4.3356
   10.545    4.1601
   10.560    4.4760
   10.575    4.3883
   10.590    4.2478
   10.605    4.4585
   10.620    4.4058
   10.635    4.4058
   10.650    3.9319
   10.665    4.5814
   10.680    4.5463
   10.695    4.3707
   10.710    4.3532
   10.725    4.5111
   10.740    4.8095
   10.755    4.8271
   10.770    4.5287
   10.785    4.8095
   10.800    4.6867
   10.815    4.5814
   10.830    4.4585
   10.845    4.4760
   10.860    4.1776
   10.875    4.4234
   10.890    5.0026
   10.905    5.0202
   10.920    5.0377
   10.935    5.0904
   10.950    4.8798
   10.965    5.2484
   10.980    5.3361
   10.995    5.9505
   11.010    5.7925
   11.025    5.3888
   11.040    5.3537
   11.055    5.5117
   11.070    5.2308
   11.085    5.0553
   11.100    4.6340
   11.115    4.5638
   11.130    4.7569
   11.145    4.7218
   11.160    5.0377
   11.175    5.0377
   11.190    5.0728
   11.205    4.7744
   11.220    4.9149
   11.235    4.6516
   11.250    4.6516
   11.265    4.3181
   11.280    4.4585
   11.295    4.7218
   11.310    4.7042
   11.325    4.5989
   11.340    4.3707
   11.355    4.5463
   11.370    4.1425
   11.385    4.1250
   11.400    4.7042
   11.415    4.5111
   11.430    3.9846
   11.445    4.3181
   11.460    4.2303
   11.475    4.2478
   11.490    4.5638
   11.505    4.4234
   11.520    4.3532
   11.535    4.8271
   11.550    5.1255
   11.565    5.2308
   11.580    4.6516
   11.595    4.7042
   11.610    4.8447
   11.625    5.1782
   11.640    4.8973
   11.655    5.4239
   11.670    5.4415
   11.685    5.6872
   11.700    5.2659
   11.715    5.5468
   11.730    5.4941
   11.745    4.9149
   11.760    4.5287
   11.775    4.3532
   11.790    4.7744
   11.805    4.7393
   11.820    4.4409
   11.835    4.7920
   11.850    4.6340
   11.865    4.3707
   11.880    4.4936
   11.895    4.6691
   11.910    4.4585
   11.925    4.4585
   11.940    4.1250
   11.955    4.3707
   11.970    4.0723
   11.985    4.3532
   12.000    4.5638
   12.015    4.8095
   12.030    4.8973
   12.045    4.4058
   12.060    4.3356
   12.075    3.9846
   12.090    4.0723
   12.105    3.8968
   12.120    4.1776
   12.135    4.4409
   12.150    4.4409
   12.165    4.4058
   12.180    4.2127
   12.195    4.2127
   12.210    4.3181
   12.225    4.6867
   12.240    4.5111
   12.255    4.4936
   12.270    4.7920
   12.285    4.7569
   12.300    4.8798
   12.315    4.8622
   12.330    4.5814
   12.345    4.6165
   12.360    4.5287
   12.375    4.3707
   12.390    4.3883
   12.405    4.1601
   12.420    4.1425
   12.435    4.4058
   12.450    4.3181
   12.465    4.5638
   12.480    4.1776
   12.495    3.9143
   12.510    4.1776
   12.525    4.1250
   12.540    4.1601
   12.555    4.4058
   12.570    3.8617
   12.585    4.3005
   12.600    4.3883
   12.615    4.1776
   12.630    4.1074
   12.645    4.1776
   12.660    4.1952
   12.675    4.1952
   12.690    4.0723
   12.705    4.3005
   12.720    4.4760
   12.735    4.5287
   12.750    4.1601
   12.765    4.2478
   12.780    4.2478
   12.795    4.1601
   12.810    4.0899
   12.825    4.4760
   12.840    4.2127
   12.855    4.5989
   12.870    4.2830
   12.885    4.5814
   12.900    4.9851
   12.915    4.9149
   12.930    5.2835
   12.945    5.6345
   12.960    5.0904
   12.975    5.1957
   12.990    5.1431
   13.005    4.9324
   13.020    4.2303
   13.035    4.3356
   13.050    4.2654
   13.065    4.0021
   13.080    4.0548
   13.095    3.9494
   13.110    4.2127
   13.125    4.1250
   13.140    3.8968
   13.155    4.5111
   13.170    4.1952
   13.185    4.1601
   13.200    3.9143
   13.215    4.0548
   13.230    3.8090
   13.245    3.8090
   13.260    4.0548
   13.275    4.1952
   13.290    4.0372
   13.305    3.9494
   13.320    3.8968
   13.335    4.0899
   13.350    4.1250
   13.365    4.1250
   13.380    4.1074
   13.395    3.9494
   13.410    4.1776
   13.425    4.2127
   13.440    4.4409
   13.455    4.1250
   13.470    4.2127
   13.485    4.3883
   13.500    4.5638
   13.515    4.7920
   13.530    4.8447
   13.545    4.8095
   13.560    4.5638
   13.575    4.1776
   13.590    4.0197
   13.605    4.0372
   13.620    4.0197
   13.635    4.0197
   13.650    4.1425
   13.665    4.2830
   13.680    4.1601
   13.695    4.4936
   13.710    4.3532
   13.725    4.2654
   13.740    4.3005
   13.755    4.4760
   13.770    4.0197
   13.785    4.3181
   13.800    4.1952
   13.815    3.9494
   13.830    4.4760
   13.845    4.6340
   13.860    4.3707
   13.875    4.4936
   13.890    4.1074
   13.905    4.4234
   13.920    4.6516
   13.935    4.4058
   13.950    4.3707
   13.965    4.7218
   13.980    4.5463
   13.995    4.4936
   14.010    4.3883
   14.025    4.3005
   14.040    4.4760
   14.055    4.8095
   14.070    4.8271
   14.085    4.4409
   14.100    5.0553
   14.115    5.1431
   14.130    4.9851
   14.145    4.7042
   14.160    4.5287
   14.175    4.7569
   14.190    4.0372
   14.205    4.7218
   14.220    4.4936
   14.235    4.6340
   14.250    4.5463
   14.265    4.4234
   14.280    4.2478
   14.295    4.8622
   14.310    4.4760
   14.325    4.1952
   14.340    4.8447
   14.355    4.4760
   14.370    4.6867
   14.385    4.7744
   14.400    4.7393
   14.415    4.9675
   14.430    4.4409
   14.445    4.4234
   14.460    4.4409
   14.475    5.0202
   14.490    4.7393
   14.505    4.4585
   14.520    4.4409
   14.535    4.3532
   14.550    4.3356
   14.565    4.7042
   14.580    4.7744
   14.595    4.7042
   14.610    4.5989
   14.625    4.5989
   14.640    4.5111
   14.655    4.4409
   14.670    4.3532
   14.685    4.2478
   14.700    4.4058
   14.715    4.3005
   14.730    4.5989
   14.745    4.5989
   14.760    4.1776
   14.775    4.2478
   14.790    4.2303
   14.805    4.3005
   14.820    4.3005
   14.835    4.4234
   14.850    4.2654
   14.865    4.1425
   14.880    4.0197
   14.895    4.5287
   14.910    4.2478
   14.925    4.3356
   14.940    4.0723
   14.955    4.3005
   14.970    4.4234
   14.985    4.4760
   15.000    4.0899
   15.015    3.9319
   15.030    3.8617
   15.045    3.8441
   15.060    4.0548
   15.075    4.4409
   15.090    4.3532
   15.105    4.1601
   15.120    4.3707
   15.135    4.1425
   15.150    4.3005
   15.165    4.3181
   15.180    4.4936
   15.195    4.3707
   15.210    4.2830
   15.225    4.1250
   15.240    4.2478
   15.255    4.0372
   15.270    4.3005
   15.285    4.1250
   15.300    3.9846
   15.315    3.7388
   15.330    3.9670
   15.345    4.5287
   15.360    4.1776
   15.375    3.8441
   15.390    3.7388
   15.405    4.0899
   15.420    4.1425
   15.435    4.0372
   15.450    4.2303
   15.465    4.2303
   15.480    3.8441
   15.495    4.0548
   15.510    3.7915
   15.525    4.1250
   15.540    3.9143
   15.555    3.9494
   15.570    4.5287
   15.585    4.0899
   15.600    4.1425
   15.615    4.1601
   15.630    4.1601
   15.645    4.1776
   15.660    3.7037
   15.675    3.8441
   15.690    3.7915
   15.705    3.7564
   15.720    4.1425
   15.735    4.3707
   15.750    3.8617
   15.765    4.2303
   15.780    3.9494
   15.795    3.8090
   15.810    4.0723
   15.825    3.9670
   15.840    3.9494
   15.855    4.0197
   15.870    4.2127
   15.885    3.9319
   15.900    3.8090
   15.915    4.1425
   15.930    3.8090
   15.945    4.2478
   15.960    4.0723
   15.975    4.3005
   15.990    4.3707
   16.005    3.8617
   16.020    3.9670
   16.035    4.3532
   16.050    4.3532
   16.065    4.1952
   16.080    4.1952
   16.095    4.6165
   16.110    4.7569
   16.125    4.3707
   16.140    4.6340
   16.155    3.9846
   16.170    4.4936
   16.185    3.7915
   16.200    4.1250
   16.215    4.0548
   16.230    4.2127
   16.245    4.1776
   16.260    4.3005
   16.275    4.1250
   16.290    3.9143
   16.305    4.1425
   16.320    4.1250
   16.335    4.0021
   16.350    4.0372
   16.365    4.0548
   16.380    4.3005
   16.395    4.0021
   16.410    4.0197
   16.425    4.0197
   16.440    3.7564
   16.455    3.7564
   16.470    3.7388
   16.485    4.1425
   16.500    4.0723
   16.515    4.2830
   16.530    4.2303
   16.545    4.2478
   16.560    4.5463
   16.575    4.5287
   16.590    4.5111
   16.605    4.4585
   16.620    4.4409
   16.635    4.2654
   16.650    4.0372
   16.665    3.9494
   16.680    4.2303
   16.695    3.6510
   16.710    3.5984
   16.725    3.8266
   16.740    4.2127
   16.755    4.3532
   16.770    4.0899
   16.785    4.3005
   16.800    3.9494
   16.815    3.9143
   16.830    3.7564
   16.845    4.1250
   16.860    4.0197
   16.875    4.5814
   16.890    4.0372
   16.905    3.7564
   16.920    4.1074
   16.935    4.1425
   16.950    3.7739
   16.965    4.3356
   16.980    4.0372
   16.995    4.2654
   17.010    4.3181
   17.025    4.7042
   17.040    5.0202
   17.055    4.8447
   17.070    4.8271
   17.085    5.0026
   17.100    4.5638
   17.115    4.7569
   17.130    4.3707
   17.145    4.3181
   17.160    3.9143
   17.175    4.0197
   17.190    4.3883
   17.205    4.1952
   17.220    3.9846
   17.235    3.9846
   17.250    4.0372
   17.265    4.2654
   17.280    4.0197
   17.295    3.6862
   17.310    4.4234
   17.325    3.9846
   17.340    3.4404
   17.355    3.8441
   17.370    4.0899
   17.385    4.0548
   17.400    4.0372
   17.415    4.3005
   17.430    4.5989
   17.445    4.0021
   17.460    4.3883
   17.475    3.9319
   17.490    3.8968
   17.505    4.4585
   17.520    4.2478
   17.535    4.1601
   17.550    4.0723
   17.565    4.0723
   17.580    3.6862
   17.595    4.0197
   17.610    3.6335
   17.625    4.1952
   17.640    3.8968
   17.655    3.9143
   17.670    4.5287
   17.685    4.2478
   17.700    3.8090
   17.715    4.1074
   17.730    3.8968
   17.745    4.1601
   17.760    4.2478
   17.775    4.0548
   17.790    4.0548
   17.805    4.2303
   17.820    4.0723
   17.835    3.7739
   17.850    3.9670
   17.865    4.0548
   17.880    4.3356
   17.895    4.3532
   17.910    4.1952
   17.925    4.4585
   17.940    4.4234
   17.955    4.1074
   17.970    3.8441
   17.985    4.1425
   18.000    4.2478
   18.015    3.7564
   18.030    3.6686
   18.045    4.0548
   18.060    3.9494
   18.075    3.8792
   18.090    4.0723
   18.105    4.0372
   18.120    4.0021
   18.135    3.8968
   18.150    3.8617
   18.165    4.4409
   18.180    4.0021
   18.195    4.2654
   18.210    3.9846
   18.225    3.9494
   18.240    3.8617
   18.255    4.0548
   18.270    3.9319
   18.285    4.1074
   18.300    3.7564
   18.315    3.9494
   18.330    4.0548
   18.345    4.1776
   18.360    4.2127
   18.375    4.2478
   18.390    4.2303
   18.405    4.2830
   18.420    4.2127
   18.435    4.2830
   18.450    4.0021
   18.465    4.2127
   18.480    3.9319
   18.495    3.8792
   18.510    4.0197
   18.525    4.0372
   18.540    4.1425
   18.555    4.2830
   18.570    4.0021
   18.585    4.1601
   18.600    4.2830
   18.615    4.1952
   18.630    3.9846
   18.645    3.6335
   18.660    3.8968
   18.675    3.7739
   18.690    4.1250
   18.705    4.2478
   18.720    3.4229
   18.735    3.7388
   18.750    4.0197
   18.765    4.2830
   18.780    3.9319
   18.795    4.1601
   18.810    4.4058
   18.825    4.2303
   18.840    3.9143
   18.855    3.6510
   18.870    4.1776
   18.885    3.7037
   18.900    3.4755
   18.915    3.9494
   18.930    3.8090
   18.945    3.8792
   18.960    3.8968
   18.975    3.9846
   18.990    4.2127
   19.005    4.0372
   19.020    4.2478
   19.035    4.2303
   19.050    4.2830
   19.065    3.7564
   19.080    3.6510
   19.095    4.0372
   19.110    3.7213
   19.125    4.0899
   19.140    4.0021
   19.155    3.8792
   19.170    3.8090
   19.185    3.7388
   19.200    3.9319
   19.215    3.9846
   19.230    4.1776
   19.245    3.8792
   19.260    4.1074
   19.275    3.5457
   19.290    3.7564
   19.305    4.2654
   19.320    3.8090
   19.335    3.8266
   19.350    3.8090
   19.365    3.8968
   19.380    3.8968
   19.395    3.9319
   19.410    3.7037
   19.425    3.4229
   19.440    3.8266
   19.455    3.8792
   19.470    4.0723
   19.485    3.7564
   19.500    3.9319
   19.515    3.7037
   19.530    3.8968
   19.545    4.2127
   19.560    3.8090
   19.575    3.7564
   19.590    3.8968
   19.605    4.2830
   19.620    4.5287
   19.635    4.4234
   19.650    3.9319
   19.665    3.9143
   19.680    3.8792
   19.695    3.5633
   19.710    3.5457
   19.725    3.9846
   19.740    3.8617
   19.755    3.7564
   19.770    3.8792
   19.785    3.7037
   19.800    3.8266
   19.815    3.6862
   19.830    4.1601
   19.845    4.0372
   19.860    3.7388
   19.875    3.5633
   19.890    4.0548
   19.905    3.9494
   19.920    3.6510
   19.935    4.1425
   19.950    3.9494
   19.965    3.7037
   19.980    3.9846
   19.995    3.9494
   20.010    3.9143
   20.025    3.6510
   20.040    3.6159
   20.055    3.8090
   20.070    4.0372
   20.085    3.8968
   20.100    3.8090
   20.115    3.9494
   20.130    3.8617
   20.145    3.5457
   20.160    3.7915
   20.175    3.3702
   20.190    3.4755
   20.205    3.5808
   20.220    3.8968
   20.235    3.6510
   20.250    4.1250
   20.265    3.7388
   20.280    3.6686
   20.295    3.2298
   20.310    3.8617
   20.325    3.9846
   20.340    4.1250
   20.355    4.1074
   20.370    4.2478
   20.385    4.5814
   20.400    4.2830
   20.415    4.3532
   20.430    3.8617
   20.445    3.8266
   20.460    3.6335
   20.475    3.7739
   20.490    3.6510
   20.505    3.9319
   20.520    3.4404
   20.535    3.6510
   20.550    3.5282
   20.565    3.5457
   20.580    3.6510
   20.595    3.6510
   20.610    3.7213
   20.625    3.8617
   20.640    3.7915
   20.655    3.3526
   20.670    3.6862
   20.685    3.6862
   20.700    3.6862
   20.715    3.5633
   20.730    3.7213
   20.745    3.7037
   20.760    3.7739
   20.775    3.4580
   20.790    3.6335
   20.805    3.9846
   20.820    3.8617
   20.835    3.7915
   20.850    3.7037
   20.865    3.5457
   20.880    3.6686
   20.895    3.7037
   20.910    4.0723
   20.925    4.0723
   20.940    3.7213
   20.955    3.5106
   20.970    4.0548
   20.985    3.6686
   21.000    3.7388
   21.015    3.9143
   21.030    3.7037
   21.045    3.8617
   21.060    3.8266
   21.075    3.7388
   21.090    3.8968
   21.105    3.4229
   21.120    3.3702
   21.135    3.6862
   21.150    3.6510
   21.165    3.9319
   21.180    3.8617
   21.195    3.9143
   21.210    3.8266
   21.225    3.4404
   21.240    3.4755
   21.255    3.7564
   21.270    3.5808
   21.285    3.6510
   21.300    3.4580
   21.315    3.5633
   21.330    3.4580
   21.345    3.9494
   21.360    3.7388
   21.375    4.1425
   21.390    3.5808
   21.405    3.3351
   21.420    3.4755
   21.435    3.6862
   21.450    3.5457
   21.465    3.8090
   21.480    3.5457
   21.495    3.3175
   21.510    3.7564
   21.525    3.7213
   21.540    3.6159
   21.555    3.7388
   21.570    3.6686
   21.585    3.4404
   21.600    3.3702
   21.615    3.3877
   21.630    3.5808
   21.645    3.4053
   21.660    3.6862
   21.675    3.8792
   21.690    3.7213
   21.705    3.7037
   21.720    3.8090
   21.735    3.5633
   21.750    3.8266
   21.765    3.9143
   21.780    3.8968
   21.795    3.9494
   21.810    3.7915
   21.825    3.8090
   21.840    3.9846
   21.855    3.7213
   21.870    3.9670
   21.885    4.0899
   21.900    4.0021
   21.915    3.9494
   21.930    3.7915
   21.945    3.5282
   21.960    3.2298
   21.975    3.3351
   21.990    3.5633
   22.005    3.4580
   22.020    3.5457
   22.035    3.2122
   22.050    3.3000
   22.065    3.4229
   22.080    3.6159
   22.095    3.4755
   22.110    3.8266
   22.125    3.5457
   22.140    3.3000
   22.155    3.4404
   22.170    3.5984
   22.185    3.6862
   22.200    3.4931
   22.215    3.4580
   22.230    3.8792
   22.245    3.8617
   22.260    3.5633
   22.275    3.4229
   22.290    3.4580
   22.305    3.4404
   22.320    3.7213
   22.335    3.4580
   22.350    3.5633
   22.365    3.5633
   22.380    3.3351
   22.395    3.2122
   22.410    3.2824
   22.425    3.6335
   22.440    3.6335
   22.455    3.7915
   22.470    4.1601
   22.485    4.0021
   22.500    3.8617
   22.515    3.6335
   22.530    3.9670
   22.545    4.2830
   22.560    4.1601
   22.575    4.6340
   22.590    4.2127
   22.605    3.6862
   22.620    3.8266
   22.635    3.8968
   22.650    3.6510
   22.665    3.1596
   22.680    3.2649
   22.695    3.4404
   22.710    3.2824
   22.725    3.6335
   22.740    3.7388
   22.755    3.5457
   22.770    3.8266
   22.785    3.9143
   22.800    3.6510
   22.815    3.7388
   22.830    3.5984
   22.845    3.6686
   22.860    3.3175
   22.875    4.1074
   22.890    4.0372
   22.905    3.7037
   22.920    3.7915
   22.935    3.8090
   22.950    3.5984
   22.965    3.9143
   22.980    3.4580
   22.995    3.2824
   23.010    3.6686
   23.025    3.5106
   23.040    3.3526
   23.055    3.3351
   23.070    3.5633
   23.085    3.4755
   23.100    3.7037
   23.115    3.5808
   23.130    3.3351
   23.145    3.3526
   23.160    3.3526
   23.175    3.6510
   23.190    3.3175
   23.205    3.4053
   23.220    3.4580
   23.235    3.3000
   23.250    3.5106
   23.265    3.3526
   23.280    3.1420
   23.295    3.2473
   23.310    3.5984
   23.325    3.2473
   23.340    3.2122
   23.355    3.5282
   23.370    3.7213
   23.385    3.3526
   23.400    3.1420
   23.415    3.0718
   23.430    3.3877
   23.445    3.4755
   23.460    3.1245
   23.475    3.5457
   23.490    3.3877
   23.505    3.3175
   23.520    3.2649
   23.535    3.1245
   23.550    3.3877
   23.565    3.2649
   23.580    3.4229
   23.595    3.3526
   23.610    3.3702
   23.625    3.4580
   23.640    3.4755
   23.655    3.3526
   23.670    3.3351
   23.685    3.1947
   23.700    3.4755
   23.715    3.6510
   23.730    3.4404
   23.745    3.4931
   23.760    3.1245
   23.775    3.1420
   23.790    3.1771
   23.805    3.4931
   23.820    3.2649
   23.835    3.2473
   23.850    3.1596
   23.865    3.4404
   23.880    3.2649
   23.895    3.3526
   23.910    3.5457
   23.925    3.4580
   23.940    3.5808
   23.955    3.4931
   23.970    3.2122
   23.985    3.0367
   24.000    3.2122
   24.015    3.3702
   24.030    3.2473
   24.045    3.1420
   24.060    3.0718
   24.075    3.2298
   24.090    3.2298
   24.105    3.1947
   24.120    3.5984
   24.135    3.3702
   24.150    3.2298
   24.165    3.0718
   24.180    3.4404
   24.195    3.3526
   24.210    3.0893
   24.225    3.2298
   24.240    3.3702
   24.255    3.1420
   24.270    2.8963
   24.285    3.0893
   24.300    3.1596
   24.315    2.9138
   24.330    2.9665
   24.345    3.0542
   24.360    3.3351
   24.375    3.3877
   24.390    3.2122
   24.405    3.0893
   24.420    3.0893
   24.435    3.0542
   24.450    2.8436
   24.465    2.8260
   24.480    3.1420
   24.495    3.2122
   24.510    3.5106
   24.525    3.1596
   24.540    2.9665
   24.555    3.2122
   24.570    3.2122
   24.585    3.0718
   24.600    3.2473
   24.615    3.8090
   24.630    3.2824
   24.645    3.4580
   24.660    3.2298
   24.675    3.0542
   24.690    3.1069
   24.705    3.5457
   24.720    3.3351
   24.735    3.0718
   24.750    3.1245
   24.765    3.2649
   24.780    3.0542
   24.795    3.2298
   24.810    2.9840
   24.825    3.3175
   24.840    3.0191
   24.855    3.3877
   24.870    3.3877
   24.885    3.3000
   24.900    2.9840
   24.915    3.0718
   24.930    3.3526
   24.945    3.1771
   24.960    3.0191
   24.975    3.4053
   24.990    3.2122
   25.005    2.9314
   25.020    3.1069
   25.035    2.8787
   25.050    2.6856
   25.065    3.3175
   25.080    2.9138
   25.095    2.9840
   25.110    3.1245
   25.125    3.2824
   25.140    3.0542
   25.155    3.0542
   25.170    3.2298
   25.185    3.3175
   25.200    3.1596
   25.215    3.0367
   25.230    3.0718
   25.245    3.1069
   25.260    3.1245
   25.275    3.1420
   25.290    3.2298
   25.305    3.2298
   25.320    3.0016
   25.335    3.1771
   25.350    3.4053
   25.365    3.1771
   25.380    2.5979
   25.395    2.8787
   25.410    3.3702
   25.425    3.3702
   25.440    3.1947
   25.455    3.0718
   25.470    3.2473
   25.485    3.0191
   25.500    3.4404
   25.515    3.2473
   25.530    3.2824
   25.545    3.0191
   25.560    2.9840
   25.575    3.1069
   25.590    2.9840
   25.605    3.5633
   25.620    3.2298
   25.635    3.1596
   25.650    2.9138
   25.665    2.8436
   25.680    3.1596
   25.695    3.1245
   25.710    3.1245
   25.725    2.7558
   25.740    3.0542
   25.755    3.3175
   25.770    3.5282
   25.785    3.2122
   25.800    3.5106
   25.815    3.4931
   25.830    3.5808
   25.845    3.4404
   25.860    3.3877
   25.875    2.9489
   25.890    3.0718
   25.905    3.1069
   25.920    2.9138
   25.935    3.1245
   25.950    2.9665
   25.965    2.7558
   25.980    3.0367
   25.995    3.1771
   26.010    2.9314
   26.025    2.8612
   26.040    2.8085
   26.055    3.2298
   26.070    2.8612
   26.085    2.6505
   26.100    2.6154
   26.115    3.2298
   26.130    3.0191
   26.145    3.0893
   26.160    3.1947
   26.175    3.0542
   26.190    3.0367
   26.205    2.9489
   26.220    2.9314
   26.235    3.1596
   26.250    3.1069
   26.265    2.7909
   26.280    2.6681
   26.295    2.7032
   26.310    3.1596
   26.325    3.0016
   26.340    2.9489
   26.355    3.0191
   26.370    2.8260
   26.385    2.8085
   26.400    3.1069
   26.415    3.0893
   26.430    3.1069
   26.445    3.3000
   26.460    3.1596
   26.475    3.2122
   26.490    3.3000
   26.505    3.1596
   26.520    2.8085
   26.535    2.7558
   26.550    2.9840
   26.565    2.8260
   26.580    2.6856
   26.595    2.9840
   26.610    2.8963
   26.625    3.0016
   26.640    3.0542
   26.655    3.0718
   26.670    2.9665
   26.685    3.1245
   26.700    2.9665
   26.715    2.7383
   26.730    2.8436
   26.745    2.9665
   26.760    2.8787
   26.775    3.0893
   26.790    2.8260
   26.805    2.9138
   26.820    3.3000
   26.835    2.7207
   26.850    2.8436
   26.865    2.9665
   26.880    3.0893
   26.895    2.7734
   26.910    2.8787
   26.925    2.8085
   26.940    3.0016
   26.955    2.8787
   26.970    2.8085
   26.985    3.2122
   27.000    2.9489
   27.015    2.9489
   27.030    3.3175
   27.045    2.9665
   27.060    3.0718
   27.075    2.8612
   27.090    2.9489
   27.105    2.8787
   27.120    2.6154
   27.135    2.6330
   27.150    2.8260
   27.165    2.5452
   27.180    2.7909
   27.195    2.4574
   27.210    2.6154
   27.225    2.7032
   27.240    2.9840
   27.255    2.6330
   27.270    2.4399
   27.285    2.7207
   27.300    2.9314
   27.315    2.5628
   27.330    2.7207
   27.345    2.8436
   27.360    3.0718
   27.375    2.9138
   27.390    2.9314
   27.405    2.9665
   27.420    2.7207
   27.435    2.5979
   27.450    2.6505
   27.465    2.4574
   27.480    2.8963
   27.495    2.7909
   27.510    2.7032
   27.525    2.8963
   27.540    2.8787
   27.555    2.8787
   27.570    2.7207
   27.585    2.6681
   27.600    2.6154
   27.615    2.6505
   27.630    2.5452
   27.645    2.7032
   27.660    2.7909
   27.675    2.7558
   27.690    2.6505
   27.705    2.7207
   27.720    3.0718
   27.735    2.9314
   27.750    2.6681
   27.765    2.8436
   27.780    2.7558
   27.795    2.6505
   27.810    3.0367
   27.825    2.8787
   27.840    2.5803
   27.855    2.4574
   27.870    2.6154
   27.885    2.7207
   27.900    2.7207
   27.915    2.7558
   27.930    3.0367
   27.945    2.6330
   27.960    2.2995
   27.975    2.6154
   27.990    2.4925
   28.005    2.6154
   28.020    2.6505
   28.035    2.7032
   28.050    2.6856
   28.065    2.3697
   28.080    2.4750
   28.095    2.7383
   28.110    2.7558
   28.125    2.8436
   28.140    2.8787
   28.155    2.7909
   28.170    2.7032
   28.185    2.5979
   28.200    2.6330
   28.215    3.0191
   28.230    2.7032
   28.245    2.9314
   28.260    2.6681
   28.275    2.6856
   28.290    2.4399
   28.305    2.2643
   28.320    2.4574
   28.335    2.5276
   28.350    2.3872
   28.365    2.6681
   28.380    2.5979
   28.395    2.3697
   28.410    2.7558
   28.425    2.6154
   28.440    2.8963
   28.455    2.8612
   28.470    2.8085
   28.485    2.7734
   28.500    2.7558
   28.515    2.8787
   28.530    2.5979
   28.545    2.4925
   28.560    2.5979
   28.575    2.5452
   28.590    2.7032
   28.605    2.5628
   28.620    2.8787
   28.635    2.6681
   28.650    2.5101
   28.665    2.7032
   28.680    2.5628
   28.695    2.7909
   28.710    2.7734
   28.725    2.8787
   28.740    2.4399
   28.755    2.8260
   28.770    2.6505
   28.785    2.4750
   28.800    2.5452
   28.815    2.7383
   28.830    3.3000
   28.845    2.8436
   28.860    3.0718
   28.875    2.9840
   28.890    2.7558
   28.905    2.6330
   28.920    2.5276
   28.935    2.5979
   28.950    2.7032
   28.965    2.7032
   28.980    2.7909
   28.995    2.7032
   29.010    2.6856
   29.025    2.8436
   29.040    2.7383
   29.055    2.9138
   29.070    3.0718
   29.085    2.7734
   29.100    2.7207
   29.115    2.7558
   29.130    2.5803
   29.145    2.2819
   29.160    2.2468
   29.175    2.7383
   29.190    2.7207
   29.205    2.7734
   29.220    2.5979
   29.235    2.4574
   29.250    2.5452
   29.265    2.7909
   29.280    2.9314
   29.295    2.8260
   29.310    2.7032
   29.325    2.4223
   29.340    2.6330
   29.355    2.8436
   29.370    2.4048
   29.385    2.4223
   29.400    2.4750
   29.415    2.5803
   29.430    2.5101
   29.445    2.3170
   29.460    2.3697
   29.475    2.5276
   29.490    2.5276
   29.505    2.6856
   29.520    2.3872
   29.535    2.5803
   29.550    2.7734
   29.565    2.6330
   29.580    2.4048
   29.595    2.3521
   29.610    2.4399
   29.625    2.3697
   29.640    2.1239
   29.655    2.3872
   29.670    2.6330
   29.685    2.4223
   29.700    2.4048
   29.715    2.2468
   29.730    2.1239
   29.745    2.3170
   29.760    2.2643
   29.775    2.4750
   29.790    2.3872
   29.805    2.1941
   29.820    2.7207
   29.835    2.2117
   29.850    2.5101
   29.865    2.3346
   29.880    2.2292
   29.895    2.4925
   29.910    2.7383
   29.925    2.5628
   29.940    2.1941
   29.955    2.2468
   29.970    2.4750
   29.985    2.1941
   30.000    2.1766
   30.015    2.1766
   30.030    2.0537
   30.045    2.2468
   30.060    2.5276
   30.075    2.4399
   30.090    2.5101
   30.105    2.3697
   30.120    2.2292
   30.135    2.0362
   30.150    2.1415
   30.165    2.1415
   30.180    2.0713
   30.195    2.3521
   30.210    2.1064
   30.225    2.1941
   30.240    2.0888
   30.255    1.8782
   30.270    2.4925
   30.285    2.2468
   30.300    2.2995
   30.315    2.5979
   30.330    2.4399
   30.345    2.2117
   30.360    2.4750
   30.375    2.2292
   30.390    2.2292
   30.405    2.3170
   30.420    2.5803
   30.435    2.2995
   30.450    2.3170
   30.465    2.3872
   30.480    2.1590
   30.495    2.0888
   30.510    2.3170
   30.525    2.3170
   30.540    2.3872
   30.555    2.4750
   30.570    2.2819
   30.585    2.1941
   30.600    2.2819
   30.615    2.6330
   30.630    2.5276
   30.645    2.2643
   30.660    2.5452
   30.675    2.3697
   30.690    2.3521
   30.705    2.4925
   30.720    2.2117
   30.735    2.4399
   30.750    2.5452
   30.765    2.2995
   30.780    2.2468
   30.795    2.1239
   30.810    2.1239
   30.825    2.0713
   30.840    2.1064
   30.855    2.0011
   30.870    2.3697
   30.885    2.1239
   30.900    2.5276
   30.915    2.0362
   30.930    2.2292
   30.945    2.1415
   30.960    1.9835
   30.975    2.0011
   30.990    2.0713
   31.005    2.0537
   31.020    2.1941
   31.035    1.9484
   31.050    1.9835
   31.065    2.2643
   31.080    2.1415
   31.095    2.0537
   31.110    2.2819
   31.125    2.1239
   31.140    2.2643
   31.155    2.5452
   31.170    2.3346
   31.185    2.0888
   31.200    2.1415
   31.215    1.9835
   31.230    2.2468
   31.245    2.4574
   31.260    2.1941
   31.275    2.3170
   31.290    1.8957
   31.305    1.8782
   31.320    2.1415
   31.335    2.3346
   31.350    2.1941
   31.365    2.1766
   31.380    2.1766
   31.395    2.3170
   31.410    2.1064
   31.425    2.0537
   31.440    2.2468
   31.455    2.0713
   31.470    2.0537
   31.485    2.4048
   31.500    2.4223
   31.515    2.2643
   31.530    2.1064
   31.545    2.0011
   31.560    2.1941
   31.575    1.8606
   31.590    1.8957
   31.605    2.3872
   31.620    2.2819
   31.635    2.2292
   31.650    2.0537
   31.665    2.2643
   31.680    2.2643
   31.695    1.8957
   31.710    2.2292
   31.725    2.2643
   31.740    2.1766
   31.755    2.4399
   31.770    2.3170
   31.785    2.2819
   31.800    1.9484
   31.815    2.2468
   31.830    2.3697
   31.845    2.2819
   31.860    2.4223
   31.875    2.0186
   31.890    2.0186
   31.905    2.2819
   31.920    2.2995
   31.935    2.2468
   31.950    2.1766
   31.965    2.2643
   31.980    2.0362
   31.995    1.9133
   32.010    1.7904
   32.025    2.1590
   32.040    2.1766
   32.055    2.0537
   32.070    2.1590
   32.085    1.9659
   32.100    1.8957
   32.115    2.1415
   32.130    2.2292
   32.145    2.1766
   32.160    2.1415
   32.175    1.9484
   32.190    1.7729
   32.205    1.8080
   32.220    2.0537
   32.235    2.1590
   32.250    2.0713
   32.265    2.0362
   32.280    2.1415
   32.295    2.4750
   32.310    2.0888
   32.325    1.8782
   32.340    1.6324
   32.355    2.0011
   32.370    2.4223
   32.385    2.0888
   32.400    1.9133
   32.415    1.9484
   32.430    2.2117
   32.445    2.1766
   32.460    2.0011
   32.475    1.8080
   32.490    1.8957
   32.505    2.0537
   32.520    2.1590
   32.535    1.9484
   32.550    2.1239
   32.565    1.8606
   32.580    1.9835
   32.595    1.9835
   32.610    1.8431
   32.625    1.9308
   32.640    1.9659
   32.655    2.0537
   32.670    2.0537
   32.685    2.0888
   32.700    2.1766
   32.715    1.8957
   32.730    1.8782
   32.745    1.8782
   32.760    1.9133
   32.775    2.2819
   32.790    1.9835
   32.805    1.9484
   32.820    1.9133
   32.835    1.9308
   32.850    2.0011
   32.865    2.3872
   32.880    2.2292
   32.895    2.0362
   32.910    2.1064
   32.925    2.1064
   32.940    1.9659
   32.955    2.0362
   32.970    1.9308
   32.985    2.0362
   33.000    2.1941
   33.015    2.2292
   33.030    2.0537
   33.045    1.8080
   33.060    1.9835
   33.075    1.8606
   33.090    2.0186
   33.105    2.0713
   33.120    2.0011
   33.135    1.8957
   33.150    1.7729
   33.165    2.1239
   33.180    2.1766
   33.195    2.1064
   33.210    1.7202
   33.225    1.6675
   33.240    2.1064
   33.255    2.0713
   33.270    1.9835
   33.285    1.7202
   33.300    1.9659
   33.315    1.9835
   33.330    2.1590
   33.345    1.8606
   33.360    1.9308
   33.375    1.7553
   33.390    2.0011
   33.405    1.8431
   33.420    1.7027
   33.435    1.8431
   33.450    1.8782
   33.465    1.8080
   33.480    1.7027
   33.495    1.9133
   33.510    1.7904
   33.525    1.6500
   33.540    2.0011
   33.555    1.7904
   33.570    1.8080
   33.585    1.9308
   33.600    1.7027
   33.615    1.9659
   33.630    1.8782
   33.645    1.7378
   33.660    1.9835
   33.675    1.6500
   33.690    1.7904
   33.705    1.7027
   33.720    1.7553
   33.735    1.9308
   33.750    2.0362
   33.765    1.7553
   33.780    1.9133
   33.795    1.8782
   33.810    2.0888
   33.825    1.9835
   33.840    1.6324
   33.855    1.7904
   33.870    2.0186
   33.885    1.8782
   33.900    1.8957
   33.915    1.9308
   33.930    2.0888
   33.945    2.0888
   33.960    2.3170
   33.975    1.9133
   33.990    1.7378
   34.005    1.9308
   34.020    2.3697
   34.035    2.0713
   34.050    2.1590
   34.065    2.2117
   34.080    2.0713
   34.095    1.9133
   34.110    1.8957
   34.125    2.0888
   34.140    2.0537
   34.155    1.9659
   34.170    2.0362
   34.185    1.8255
   34.200    1.7904
   34.215    1.9308
   34.230    1.9133
   34.245    1.8431
   34.260    1.8431
   34.275    2.0888
   34.290    1.7729
   34.305    1.8431
   34.320    1.9835
   34.335    2.0011
   34.350    2.1064
   34.365    1.8957
   34.380    1.7729
   34.395    1.6500
   34.410    1.7553
   34.425    2.0362
   34.440    1.8255
   34.455    1.8606
   34.470    1.8080
   34.485    1.6500
   34.500    1.8080
   34.515    2.0888
   34.530    1.8431
   34.545    1.8255
   34.560    1.7378
   34.575    1.7202
   34.590    1.7904
   34.605    1.8255
   34.620    1.9133
   34.635    1.7904
   34.650    1.8080
   34.665    1.8606
   34.680    2.0537
   34.695    2.0011
   34.710    1.6324
   34.725    1.4042
   34.740    1.8957
   34.755    1.9133
   34.770    2.0713
   34.785    1.8431
   34.800    2.1064
   34.815    2.1590
   34.830    1.9484
   34.845    1.9835
   34.860    1.9308
   34.875    1.7378
   34.890    2.0713
   34.905    1.7553
   34.920    1.7378
   34.935    2.0186
   34.950    2.1064
   34.965    1.9133
   34.980    1.7904
   34.995    1.7729
   35.010    1.6500
   35.025    1.6149
   35.040    1.7202
   35.055    1.8255
   35.070    1.8080
   35.085    2.0186
   35.100    1.5622
   35.115    1.8080
   35.130    1.9484
   35.145    2.1590
   35.160    1.8080
   35.175    2.0888
   35.190    1.8782
   35.205    1.7378
   35.220    2.0362
   35.235    2.1064
   35.250    1.8782
   35.265    1.9133
   35.280    2.2468
   35.295    1.9659
   35.310    2.1239
   35.325    2.1064
   35.340    2.0537
   35.355    1.9835
   35.370    1.7553
   35.385    1.9659
   35.400    2.1064
   35.415    2.0888
   35.430    1.9308
   35.445    1.8606
   35.460    2.0888
   35.475    1.6500
   35.490    1.6500
   35.505    1.8431
   35.520    1.7378
   35.535    1.9484
   35.550    2.1064
   35.565    2.1415
   35.580    2.0362
   35.595    1.8255
   35.610    1.7378
   35.625    1.6675
   35.640    1.8255
   35.655    1.9835
   35.670    2.0888
   35.685    1.6851
   35.700    1.8606
   35.715    1.7027
   35.730    1.7027
   35.745    1.5622
   35.760    1.7027
   35.775    2.0713
   35.790    1.7729
   35.805    1.9308
   35.820    1.6851
   35.835    1.7202
   35.850    1.8255
   35.865    1.7904
   35.880    1.8431
   35.895    1.8782
   35.910    1.8255
   35.925    1.8080
   35.940    1.6149
   35.955    1.8957
   35.970    2.1766
   35.985    1.4569
   36.000    1.7378
   36.015    1.9308
   36.030    2.0011
   36.045    1.8431
   36.060    1.5096
   36.075    1.8957
   36.090    2.2995
   36.105    1.7904
   36.120    1.7904
   36.135    1.5271
   36.150    2.0186
   36.165    2.0186
   36.180    1.9133
   36.195    1.8957
   36.210    1.7904
   36.225    1.9133
   36.240    1.8782
   36.255    1.7553
   36.270    1.6149
   36.285    1.9659
   36.300    1.8431
   36.315    1.8957
   36.330    2.0888
   36.345    1.7904
   36.360    1.4920
   36.375    1.6675
   36.390    1.9308
   36.405    2.1590
   36.420    2.1766
   36.435    2.1064
   36.450    1.8255
   36.465    1.6675
   36.480    1.5973
   36.495    1.8606
   36.510    1.7378
   36.525    2.0186
   36.540    2.0888
   36.555    1.9835
   36.570    1.8255
   36.585    2.2117
   36.600    2.0362
   36.615    1.7027
   36.630    1.6500
   36.645    1.7904
   36.660    2.0888
   36.675    1.7553
   36.690    2.0888
   36.705    2.1239
   36.720    2.1415
   36.735    1.9835
   36.750    1.8606
   36.765    1.7904
   36.780    1.7553
   36.795    1.7378
   36.810    1.6675
   36.825    1.8255
   36.840    1.7378
   36.855    1.9835
   36.870    1.7202
   36.885    1.6149
   36.900    1.7202
   36.915    1.7729
   36.930    1.6851
   36.945    1.7729
   36.960    1.6851
   36.975    1.8255
   36.990    1.4920
   37.005    1.7904
   37.020    1.6149
   37.035    1.8080
   37.050    1.8431
   37.065    2.0186
   37.080    2.0186
   37.095    1.9835
   37.110    2.1239
   37.125    1.7378
   37.140    1.8431
   37.155    1.9835
   37.170    1.8606
   37.185    1.8782
   37.200    1.8255
   37.215    1.7553
   37.230    1.6851
   37.245    1.6851
   37.260    1.7027
   37.275    1.7202
   37.290    1.5447
   37.305    1.7553
   37.320    1.7729
   37.335    1.7202
   37.350    1.7378
   37.365    1.6149
   37.380    1.8606
   37.395    1.8431
   37.410    1.7729
   37.425    1.6851
   37.440    1.4920
   37.455    1.7553
   37.470    1.6675
   37.485    1.5447
   37.500    1.9133
   37.515    1.8957
   37.530    1.7202
   37.545    1.9484
   37.560    1.8782
   37.575    2.0186
   37.590    1.8080
   37.605    1.6324
   37.620    1.6324
   37.635    1.8080
   37.650    1.6675
   37.665    1.8606
   37.680    1.6324
   37.695    1.7027
   37.710    1.9835
   37.725    1.7553
   37.740    1.6500
   37.755    1.5447
   37.770    1.6851
   37.785    1.8606
   37.800    1.8606
   37.815    1.8431
   37.830    1.5798
   37.845    1.5798
   37.860    1.6149
   37.875    2.0011
   37.890    1.7553
   37.905    1.7904
   37.920    1.9484
   37.935    1.7904
   37.950    1.7553
   37.965    1.8080
   37.980    1.4920
   37.995    1.4042
   38.010    1.8431
   38.025    1.5096
   38.040    1.8431
   38.055    1.7553
   38.070    1.6324
   38.085    1.7729
   38.100    1.6500
   38.115    1.8431
   38.130    1.8080
   38.145    1.5973
   38.160    1.6149
   38.175    1.6500
   38.190    1.6675
   38.205    1.7027
   38.220    1.8782
   38.235    1.5271
   38.250    1.5798
   38.265    1.8080
   38.280    1.4394
   38.295    1.7553
   38.310    1.7729
   38.325    1.8606
   38.340    1.6851
   38.355    1.5798
   38.370    1.5798
   38.385    1.5973
   38.400    1.4569
   38.415    1.9484
   38.430    1.7027
   38.445    1.8431
   38.460    1.6851
   38.475    1.6675
   38.490    1.8606
   38.505    1.7378
   38.520    1.4745
   38.535    2.0011
   38.550    1.7553
   38.565    1.7027
   38.580    1.5447
   38.595    1.5973
   38.610    1.6851
   38.625    1.7378
   38.640    1.5973
   38.655    1.5973
   38.670    1.8080
   38.685    1.4745
   38.700    1.6149
   38.715    1.8431
   38.730    1.7729
   38.745    1.8255
   38.760    1.7202
   38.775    1.9659
   38.790    1.8080
   38.805    1.7027
   38.820    1.5973
   38.835    1.8080
   38.850    1.4745
   38.865    1.6149
   38.880    1.6500
   38.895    1.5973
   38.910    1.6149
   38.925    1.2638
   38.940    1.7729
   38.955    1.8080
   38.970    1.5622
   38.985    1.6675
   39.000    1.7904
   39.015    1.5973
   39.030    1.6149
   39.045    1.6500
   39.060    1.5271
   39.075    1.4920
   39.090    1.8080
   39.105    1.6675
   39.120    1.7729
   39.135    2.0888
   39.150    1.5447
   39.165    1.7202
   39.180    1.6851
   39.195    1.5447
   39.210    1.8782
   39.225    1.8606
   39.240    1.6675
   39.255    1.5973
   39.270    1.5622
   39.285    1.7729
   39.300    1.5622
   39.315    1.5973
   39.330    1.9133
   39.345    1.5622
   39.360    1.4745
   39.375    1.6500
   39.390    1.5798
   39.405    1.5447
   39.420    1.6149
   39.435    1.7027
   39.450    1.9659
   39.465    2.0713
   39.480    1.9308
   39.495    1.7378
   39.510    1.7027
   39.525    1.7553
   39.540    1.8255
   39.555    1.6851
   39.570    1.7027
   39.585    1.7904
   39.600    1.7202
   39.615    1.7202
   39.630    1.7904
   39.645    1.8606
   39.660    1.8606
   39.675    1.7729
   39.690    1.8255
   39.705    1.6500
   39.720    1.5096
   39.735    1.8080
   39.750    1.5447
   39.765    1.8782
   39.780    1.7378
   39.795    1.5798
   39.810    1.6149
   39.825    1.7729
   39.840    1.6675
   39.855    1.5622
   39.870    1.6851
   39.885    1.7378
   39.900    1.7027
   39.915    1.8080
   39.930    1.6500
   39.945    1.4920
   39.960    1.5096
   39.975    1.5798
   39.990    1.5798
