    1.500   11.1111
    1.515   10.9005
    1.530   11.3393
    1.545   11.2340
    1.560   10.8478
    1.575   10.5143
    1.590   10.6723
    1.605   10.0930
    1.620    9.8473
    1.635   10.0930
    1.650   10.1457
    1.665   10.2335
    1.680    9.8297
    1.695    9.8824
    1.710    9.0574
    1.725    8.4079
    1.740    8.5133
    1.755    9.2154
    1.770    8.3728
    1.785    8.5133
    1.800    8.9345
    1.815    8.0042
    1.830    7.8287
    1.845    8.3026
    1.860    7.7234
    1.875    7.7936
    1.890    7.9867
    1.905    7.6883
    1.920    7.3547
    1.935    7.1617
    1.950    7.5829
    1.965    7.2494
    1.980    7.0563
    1.995    7.1441
    2.010    7.1090
    2.025    7.0739
    2.040    7.0388
    2.055    6.4595
    2.070    6.9686
    2.085    7.1968
    2.100    6.6877
    2.115    6.5298
    2.130    6.3542
    2.145    6.4420
    2.160    6.4946
    2.175    6.0207
    2.190    5.7925
    2.205    5.8803
    2.220    5.9505
    2.235    5.8803
    2.250    5.5643
    2.265    5.4941
    2.280    6.1085
    2.295    5.8803
    2.310    5.2835
    2.325    5.3712
    2.340    5.5643
    2.355    5.6521
    2.370    5.2659
    2.385    5.3010
    2.400    5.3712
    2.415    5.0904
    2.430    5.2133
    2.445    5.1606
    2.460    5.2835
    2.475    5.3537
    2.490    5.0377
    2.505    4.7393
    2.520    5.6872
    2.535    5.0202
    2.550    4.8271
    2.565    4.5989
    2.580    4.8447
    2.595    4.6516
    2.610    5.0904
    2.625    5.0728
    2.640    5.0904
    2.655    4.7042
    2.670    4.6691
    2.685    4.3356
    2.700    4.5638
    2.715    4.7393
    2.730    4.4234
    2.745    4.6867
    2.760    4.9500
    2.775    4.5989
    2.790    4.5814
    2.805    4.5638
    2.820    4.8095
    2.835    4.4760
    2.850    4.3356
    2.865    4.3005
    2.880    4.7744
    2.895    4.3883
    2.910    4.5111
    2.925    4.3181
    2.940    4.3707
    2.955    4.7744
    2.970    4.5111
    2.985    4.4936
    3.000    4.3532
    3.015    4.5638
    3.030    4.2478
    3.045    4.3356
    3.060    4.3532
    3.075    4.4585
    3.090    4.5111
    3.105    4.2478
    3.120    4.3532
    3.135    4.3181
    3.150    4.4585
    3.165    4.3883
    3.180    4.2654
    3.195    4.0372
    3.210    4.1601
    3.225    4.2127
    3.240    3.7213
    3.255    4.1425
    3.270    4.1425
    3.285    3.9494
    3.300    3.8792
    3.315    4.1952
    3.330    4.2303
    3.345    3.7037
    3.360    3.8968
    3.375    3.5984
    3.390    3.9670
    3.405    3.7564
    3.420    3.9670
    3.435    4.3356
    3.450    3.7739
    3.465    3.8617
    3.480    3.7564
    3.495    3.5984
    3.510    3.9143
    3.525    4.2303
    3.540    3.9846
    3.555    3.6862
    3.570    4.1776
    3.585    4.2127
    3.600    3.7037
    3.615    3.5282
    3.630    4.1776
    3.645    4.0021
    3.660    3.8792
    3.675    4.2478
    3.690    4.2830
    3.705    4.5463
    3.720    4.0723
    3.735    3.6686
    3.750    3.8968
    3.765    3.8441
    3.780    4.1601
    3.795    3.9494
    3.810    4.2654
    3.825    3.9143
    3.840    3.7037
    3.855    3.9143
    3.870    3.7915
    3.885    3.7739
    3.900    3.5984
    3.915    3.8441
    3.930    3.8617
    3.945    3.6510
    3.960    3.9494
    3.975    3.6335
    3.990    3.8090
    4.005    3.5633
    4.020    3.6862
    4.035    3.8266
    4.050    3.6335
    4.065    3.6510
    4.080    3.6510
    4.095    4.0372
    4.110    3.8266
    4.125    3.7213
    4.140    3.6686
    4.155    3.7213
    4.170    3.8792
    4.185    3.6686
    4.200    3.7388
    4.215    3.4755
    4.230    3.6159
    4.245    3.8266
    4.260    3.7739
    4.275    3.6335
    4.290    3.6159
    4.305    3.8090
    4.320    3.7739
    4.335    3.5808
    4.350    3.4580
    4.365    3.9494
    4.380    3.7037
    4.395    3.7739
    4.410    3.7037
    4.425    3.8617
    4.440    3.5633
    4.455    3.5457
    4.470    3.7564
    4.485    3.6686
    4.500    3.7739
    4.515    3.8090
    4.530    3.8792
    4.545    3.9319
    4.560    3.6862
    4.575    3.7213
    4.590    3.4580
    4.605    3.5282
    4.620    3.3702
    4.635    3.2824
    4.650    3.1771
    4.665    3.5984
    4.680    3.6510
    4.695    4.0548
    4.710    3.8090
    4.725    3.8617
    4.740    3.4755
    4.755    3.3000
    4.770    3.6159
    4.785    3.7915
    4.800    3.5984
    4.815    3.0893
    4.830    3.6159
    4.845    3.6335
    4.860    3.6335
    4.875    3.5808
    4.890    3.3351
    4.905    3.2824
    4.920    3.6159
    4.935    3.8441
    4.950    3.9670
    4.965    3.3351
    4.980    3.2649
    4.995    3.4580
    5.010    3.8266
    5.025    3.1947
    5.040    3.5457
    5.055    3.4580
    5.070    3.5106
    5.085    3.6335
    5.100    3.9846
    5.115    3.7213
    5.130    3.5106
    5.145    3.6686
    5.160    3.6862
    5.175    3.8090
    5.190    3.1947
    5.205    3.4404
    5.220    3.4229
    5.235    3.2649
    5.250    3.5808
    5.265    3.8090
    5.280    3.5106
    5.295    3.2824
    5.310    3.5457
    5.325    3.6510
    5.340    3.6510
    5.355    3.2122
    5.370    3.3000
    5.385    3.2122
    5.400    3.5808
    5.415    3.8090
    5.430    3.4755
    5.445    3.3175
    5.460    3.2649
    5.475    3.2649
    5.490    3.4404
    5.505    3.6510
    5.520    3.6686
    5.535    3.3877
    5.550    3.3526
    5.565    3.1069
    5.580    3.3702
    5.595    3.2473
    5.610    3.5457
    5.625    3.5808
    5.640    3.2298
    5.655    3.4053
    5.670    3.6510
    5.685    3.8617
    5.700    3.7213
    5.715    3.2298
    5.730    3.5808
    5.745    3.3877
    5.760    3.6159
    5.775    3.9494
    5.790    3.3702
    5.805    3.1947
    5.820    3.3526
    5.835    3.5808
    5.850    3.8792
    5.865    3.6159
    5.880    3.7037
    5.895    3.5808
    5.910    3.6686
    5.925    3.4755
    5.940    3.4580
    5.955    3.8441
    5.970    3.6510
    5.985    3.3000
    6.000    3.2649
    6.015    3.2649
    6.030    3.5457
    6.045    3.5106
    6.060    3.7564
    6.075    3.9143
    6.090    3.7388
    6.105    3.7388
    6.120    3.6510
    6.135    3.5984
    6.150    3.6686
    6.165    3.5282
    6.180    3.5984
    6.195    3.5282
    6.210    3.3351
    6.225    3.9143
    6.240    3.7037
    6.255    3.7388
    6.270    3.5282
    6.285    3.3877
    6.300    3.9319
    6.315    3.6335
    6.330    3.5808
    6.345    3.3175
    6.360    3.7213
    6.375    3.5984
    6.390    3.5457
    6.405    3.5808
    6.420    3.6335
    6.435    3.7213
    6.450    3.7037
    6.465    3.8617
    6.480    3.4580
    6.495    3.4580
    6.510    3.6335
    6.525    3.2824
    6.540    3.4580
    6.555    3.5808
    6.570    3.6159
    6.585    3.3351
    6.600    3.6686
    6.615    3.6686
    6.630    3.5984
    6.645    3.8968
    6.660    3.6862
    6.675    3.6159
    6.690    3.5106
    6.705    3.7037
    6.720    3.8441
    6.735    3.5282
    6.750    4.1250
    6.765    3.7739
    6.780    3.4404
    6.795    3.4755
    6.810    3.6686
    6.825    3.8266
    6.840    3.5633
    6.855    3.8968
    6.870    3.2824
    6.885    3.4931
    6.900    3.8090
    6.915    3.5282
    6.930    3.6335
    6.945    3.7388
    6.960    3.5984
    6.975    3.5106
    6.990    3.6335
    7.005    3.7037
    7.020    3.6510
    7.035    3.4580
    7.050    3.6510
    7.065    3.4053
    7.080    3.4404
    7.095    3.7564
    7.110    3.8090
    7.125    3.7739
    7.140    3.8266
    7.155    3.9143
    7.170    3.4580
    7.185    3.4580
    7.200    3.4931
    7.215    3.4053
    7.230    3.5984
    7.245    3.5282
    7.260    3.5457
    7.275    3.4755
    7.290    3.7388
    7.305    3.6686
    7.320    3.5282
    7.335    3.5808
    7.350    3.7739
    7.365    3.8968
    7.380    3.5633
    7.395    3.7037
    7.410    3.8090
    7.425    4.0021
    7.440    3.8266
    7.455    3.4580
    7.470    3.4229
    7.485    3.5808
    7.500    3.3000
    7.515    3.4755
    7.530    4.1776
    7.545    3.9319
    7.560    3.4931
    7.575    3.8441
    7.590    4.1952
    7.605    3.7739
    7.620    3.7213
    7.635    3.6335
    7.650    3.7915
    7.665    3.6510
    7.680    3.5633
    7.695    3.6510
    7.710    3.4053
    7.725    3.2473
    7.740    3.8266
    7.755    3.8792
    7.770    4.0548
    7.785    3.8090
    7.800    4.3356
    7.815    4.0548
    7.830    4.0723
    7.845    3.5808
    7.860    3.8090
    7.875    3.9670
    7.890    3.2473
    7.905    3.8617
    7.920    4.0723
    7.935    3.5808
    7.950    3.8090
    7.965    4.0899
    7.980    3.6862
    7.995    3.7388
    8.010    4.0548
    8.025    3.8090
    8.040    3.6862
    8.055    3.8266
    8.070    4.0723
    8.085    4.3005
    8.100    3.9319
    8.115    4.1601
    8.130    3.9846
    8.145    3.6686
    8.160    3.7564
    8.175    3.3526
    8.190    3.8617
    8.205    3.9143
    8.220    4.0723
    8.235    4.0021
    8.250    3.8617
    8.265    3.9670
    8.280    3.9494
    8.295    4.1776
    8.310    4.4234
    8.325    4.0723
    8.340    3.9143
    8.355    3.9143
    8.370    3.5106
    8.385    3.7037
    8.400    3.9319
    8.415    4.3707
    8.430    3.6510
    8.445    3.7564
    8.460    4.1250
    8.475    4.3356
    8.490    3.8090
    8.505    3.8792
    8.520    3.7915
    8.535    3.9494
    8.550    4.0548
    8.565    3.8441
    8.580    4.1250
    8.595    4.0548
    8.610    4.0899
    8.625    4.0021
    8.640    3.9494
    8.655    3.8617
    8.670    3.6159
    8.685    4.2654
    8.700    4.3883
    8.715    4.0548
    8.730    3.9143
    8.745    4.3005
    8.760    3.7739
    8.775    4.0899
    8.790    3.9143
    8.805    3.6862
    8.820    4.3707
    8.835    4.3883
    8.850    3.8792
    8.865    3.8968
    8.880    4.3532
    8.895    4.2830
    8.910    4.5638
    8.925    4.3707
    8.940    4.1074
    8.955    4.3532
    8.970    4.1601
    8.985    4.3181
    9.000    3.9846
    9.015    3.9494
    9.030    4.1250
    9.045    4.0021
    9.060    4.0372
    9.075    3.6686
    9.090    3.5457
    9.105    3.7213
    9.120    4.3181
    9.135    4.0372
    9.150    3.9846
    9.165    3.9143
    9.180    4.0372
    9.195    4.3005
    9.210    4.1776
    9.225    4.3181
    9.240    3.9319
    9.255    4.1425
    9.270    4.5287
    9.285    4.4058
    9.300    3.9846
    9.315    3.8792
    9.330    4.1601
    9.345    4.5287
    9.360    4.4936
    9.375    4.0899
    9.390    3.9670
    9.405    4.0197
    9.420    4.1601
    9.435    4.6867
    9.450    4.4585
    9.465    3.8617
    9.480    3.8090
    9.495    4.3005
    9.510    4.5989
    9.525    3.9846
    9.540    3.9494
    9.555    4.5814
    9.570    4.3181
    9.585    3.9494
    9.600    4.4234
    9.615    4.2478
    9.630    4.3532
    9.645    4.3883
    9.660    4.5638
    9.675    4.1250
    9.690    4.2127
    9.705    4.3181
    9.720    4.1952
    9.735    4.0372
    9.750    4.1425
    9.765    4.4234
    9.780    4.6340
    9.795    4.2654
    9.810    4.2654
    9.825    3.9494
    9.840    4.2127
    9.855    4.7042
    9.870    4.3356
    9.885    3.7739
    9.900    4.0899
    9.915    4.1601
    9.930    4.6340
    9.945    4.1776
    9.960    3.9846
    9.975    4.6165
    9.990    4.5638
   10.005    4.2830
   10.020    4.3181
   10.035    4.0021
   10.050    4.2830
   10.065    4.5463
   10.080    4.3883
   10.095    4.2478
   10.110    4.1952
   10.125    4.1952
   10.140    4.2830
   10.155    4.1425
   10.170    3.9670
   10.185    4.0021
   10.200    4.0021
   10.215    4.2478
   10.230    3.9670
   10.245    4.0548
   10.260    4.0899
   10.275    4.4058
   10.290    4.1601
   10.305    3.8792
   10.320    4.0723
   10.335    4.0899
   10.350    4.2478
   10.365    3.8968
   10.380    4.0021
   10.395    3.7388
   10.410    4.2303
   10.425    4.1425
   10.440    4.1776
   10.455    4.1425
   10.470    4.1250
   10.485    4.1952
   10.500    4.2654
   10.515    4.1250
   10.530    4.4058
   10.545    3.9319
   10.560    3.7037
   10.575    4.0372
   10.590    3.9143
   10.605    3.9670
   10.620    4.0899
   10.635    4.0899
   10.650    4.1952
   10.665    4.0197
   10.680    3.8090
   10.695    4.1425
   10.710    4.0372
   10.725    4.3532
   10.740    4.4585
   10.755    4.6516
   10.770    4.3005
   10.785    4.1952
   10.800    4.1425
   10.815    3.9846
   10.830    4.0372
   10.845    3.9494
   10.860    3.9846
   10.875    4.1601
   10.890    4.2127
   10.905    4.0021
   10.920    4.5111
   10.935    4.6691
   10.950    4.1952
   10.965    4.1425
   10.980    4.1074
   10.995    4.3707
   11.010    3.9319
   11.025    4.1952
   11.040    4.1074
   11.055    4.0372
   11.070    4.3181
   11.085    3.8792
   11.100    3.7739
   11.115    3.8617
   11.130    3.8968
   11.145    3.5106
   11.160    3.9143
   11.175    3.9494
   11.190    3.9494
   11.205    4.2654
   11.220    4.1250
   11.235    3.8792
   11.250    3.9143
   11.265    3.6510
   11.280    3.8617
   11.295    3.7739
   11.310    3.9143
   11.325    4.0372
   11.340    3.8441
   11.355    3.9143
   11.370    4.2654
   11.385    4.1250
   11.400    4.2303
   11.415    3.8968
   11.430    3.9846
   11.445    3.6862
   11.460    3.6335
   11.475    4.1074
   11.490    3.7213
   11.505    3.5984
   11.520    3.8441
   11.535    3.9143
   11.550    3.8441
   11.565    3.6335
   11.580    3.8090
   11.595    3.6686
   11.610    3.9319
   11.625    4.4234
   11.640    4.1601
   11.655    3.7388
   11.670    3.8266
   11.685    3.7213
   11.700    3.6510
   11.715    4.1601
   11.730    3.9143
   11.745    3.7915
   11.760    3.7915
   11.775    4.1425
   11.790    4.0899
   11.805    3.8090
   11.820    4.2303
   11.835    3.8266
   11.850    4.0723
   11.865    4.3356
   11.880    3.8441
   11.895    3.6335
   11.910    3.6686
   11.925    3.7915
   11.940    3.7915
   11.955    3.8441
   11.970    3.9494
   11.985    4.1074
   12.000    3.9670
   12.015    3.4404
   12.030    3.7388
   12.045    3.6159
   12.060    3.8792
   12.075    3.7037
   12.090    3.7388
   12.105    3.4755
   12.120    3.8968
   12.135    3.9319
   12.150    3.5633
   12.165    3.7915
   12.180    4.0548
   12.195    3.7213
   12.210    3.6862
   12.225    3.4931
   12.240    3.8090
   12.255    3.7739
   12.270    3.3351
   12.285    3.6159
   12.300    3.5633
   12.315    3.7915
   12.330    3.6862
   12.345    3.2649
   12.360    3.7388
   12.375    3.4053
   12.390    3.6159
   12.405    3.7739
   12.420    3.9319
   12.435    3.4931
   12.450    3.8792
   12.465    3.4229
   12.480    3.9143
   12.495    3.6510
   12.510    3.5106
   12.525    3.7037
   12.540    3.5282
   12.555    3.7915
   12.570    3.9319
   12.585    3.4229
   12.600    3.4229
   12.615    3.3526
   12.630    3.3000
   12.645    3.6686
   12.660    3.4404
   12.675    3.1245
   12.690    3.3877
   12.705    3.3000
   12.720    3.3526
   12.735    3.5106
   12.750    3.6335
   12.765    3.2298
   12.780    3.9143
   12.795    3.3526
   12.810    3.6686
   12.825    3.4931
   12.840    3.8792
   12.855    3.7037
   12.870    3.4931
   12.885    3.3351
   12.900    3.5106
   12.915    3.4053
   12.930    3.5984
   12.945    3.5282
   12.960    3.5457
   12.975    3.5457
   12.990    3.7388
   13.005    3.5282
   13.020    3.3000
   13.035    3.5633
   13.050    3.5633
   13.065    3.4229
   13.080    3.5984
   13.095    3.6862
   13.110    3.7739
   13.125    3.4755
   13.140    3.4404
   13.155    3.5633
   13.170    3.5633
   13.185    3.3000
   13.200    3.6686
   13.215    3.4580
   13.230    3.7388
   13.245    3.5282
   13.260    3.3351
   13.275    3.1771
   13.290    3.2122
   13.305    3.6686
   13.320    3.5106
   13.335    3.8968
   13.350    3.6335
   13.365    4.0372
   13.380    3.6335
   13.395    3.5984
   13.410    3.5984
   13.425    3.6159
   13.440    3.2473
   13.455    3.3877
   13.470    3.5457
   13.485    3.4053
   13.500    3.7915
   13.515    3.4580
   13.530    3.1596
   13.545    3.1771
   13.560    3.3351
   13.575    3.4580
   13.590    3.2649
   13.605    3.4580
   13.620    3.3526
   13.635    3.9846
   13.650    3.7213
   13.665    3.4229
   13.680    3.5984
   13.695    3.9319
   13.710    3.5984
   13.725    3.3526
   13.740    3.5282
   13.755    3.1420
   13.770    3.3877
   13.785    2.8787
   13.800    3.2122
   13.815    3.3000
   13.830    3.4755
   13.845    3.5633
   13.860    2.9840
   13.875    3.5282
   13.890    3.2824
   13.905    2.9665
   13.920    3.3702
   13.935    3.3526
   13.950    3.4755
   13.965    3.7915
   13.980    3.5457
   13.995    3.3702
   14.010    3.5633
   14.025    3.3877
   14.040    4.0548
   14.055    3.6862
   14.070    3.4755
   14.085    3.3526
   14.100    3.2473
   14.115    3.4580
   14.130    3.9143
   14.145    3.2473
   14.160    3.4229
   14.175    3.2824
   14.190    3.4755
   14.205    3.5457
   14.220    3.4229
   14.235    3.2122
   14.250    3.2649
   14.265    3.4931
   14.280    3.1947
   14.295    3.3351
   14.310    3.5106
   14.325    3.7915
   14.340    3.7564
   14.355    3.2473
   14.370    3.2649
   14.385    3.6862
   14.400    3.6335
   14.415    3.5808
   14.430    3.2122
   14.445    3.1069
   14.460    3.3175
   14.475    3.4755
   14.490    3.6686
   14.505    3.6159
   14.520    3.4931
   14.535    3.7037
   14.550    3.6686
   14.565    3.5633
   14.580    3.4229
   14.595    3.2824
   14.610    3.3702
   14.625    3.4404
   14.640    3.3526
   14.655    3.0542
   14.670    3.4229
   14.685    3.8441
   14.700    3.3000
   14.715    3.3526
   14.730    3.5106
   14.745    3.2473
   14.760    3.2824
   14.775    3.6335
   14.790    3.0016
   14.805    3.2473
   14.820    3.3175
   14.835    3.4229
   14.850    3.3000
   14.865    3.4229
   14.880    3.2298
   14.895    3.1947
   14.910    3.3702
   14.925    3.5457
   14.940    3.5808
   14.955    3.3526
   14.970    3.3175
   14.985    3.1420
   15.000    3.4755
   15.015    3.3000
   15.030    3.3351
   15.045    3.5984
   15.060    3.4755
   15.075    3.4229
   15.090    3.2473
   15.105    3.4229
   15.120    3.3175
   15.135    3.5984
   15.150    3.5808
   15.165    3.4229
   15.180    3.4755
   15.195    3.5106
   15.210    3.4755
   15.225    3.8617
   15.240    3.7213
   15.255    3.6159
   15.270    3.6510
   15.285    3.8968
   15.300    3.4053
   15.315    3.6159
   15.330    3.3702
   15.345    3.5106
   15.360    3.3877
   15.375    3.6862
   15.390    3.4229
   15.405    3.1947
   15.420    3.6335
   15.435    3.3000
   15.450    3.1947
   15.465    3.2473
   15.480    3.5984
   15.495    3.7564
   15.510    3.5457
   15.525    3.3877
   15.540    2.8436
   15.555    3.0016
   15.570    3.1069
   15.585    3.3877
   15.600    3.1420
   15.615    3.4755
   15.630    3.3526
   15.645    3.1771
   15.660    3.3000
   15.675    3.8441
   15.690    3.3526
   15.705    3.4931
   15.720    3.7213
   15.735    3.0191
   15.750    3.4755
   15.765    3.5457
   15.780    3.4404
   15.795    3.1771
   15.810    3.3702
   15.825    3.2298
   15.840    3.1420
   15.855    3.6862
   15.870    3.5808
   15.885    3.6159
   15.900    3.6510
   15.915    3.8441
   15.930    3.4404
   15.945    3.2824
   15.960    3.0367
   15.975    3.4053
   15.990    3.3351
   16.005    3.5984
   16.020    3.4755
   16.035    3.4580
   16.050    3.3351
   16.065    3.3351
   16.080    3.4404
   16.095    3.2824
   16.110    3.4755
   16.125    3.4404
   16.140    3.5106
   16.155    3.4755
   16.170    3.7564
   16.185    3.7037
   16.200    3.6862
   16.215    3.4053
   16.230    3.5984
   16.245    3.7739
   16.260    3.5633
   16.275    3.5106
   16.290    3.4229
   16.305    3.3526
   16.320    3.2649
   16.335    3.1771
   16.350    3.4755
   16.365    3.6335
   16.380    3.2122
   16.395    3.3000
   16.410    3.1596
   16.425    3.1069
   16.440    3.0367
   16.455    3.4229
   16.470    3.4580
   16.485    3.8266
   16.500    3.6686
   16.515    3.6159
   16.530    3.5808
   16.545    3.3877
   16.560    3.5282
   16.575    3.4755
   16.590    3.5457
   16.605    3.4931
   16.620    3.6159
   16.635    3.4053
   16.650    3.3000
   16.665    3.4755
   16.680    3.1771
   16.695    3.3702
   16.710    3.4755
   16.725    3.3702
   16.740    3.4229
   16.755    3.1947
   16.770    3.0893
   16.785    3.3351
   16.800    3.3175
   16.815    3.3000
   16.830    3.8441
   16.845    3.6159
   16.860    3.4755
   16.875    3.6335
   16.890    3.5106
   16.905    3.4931
   16.920    3.0016
   16.935    3.3877
   16.950    3.7037
   16.965    3.4229
   16.980    3.4755
   16.995    3.2649
   17.010    3.4755
   17.025    3.4755
   17.040    3.2824
   17.055    3.1420
   17.070    3.3175
   17.085    3.3175
   17.100    3.0718
   17.115    3.0016
   17.130    3.3351
   17.145    3.6335
   17.160    3.1947
   17.175    3.5633
   17.190    3.2649
   17.205    3.0191
   17.220    3.3175
   17.235    3.4053
   17.250    3.5633
   17.265    3.5633
   17.280    3.7739
   17.295    3.3175
   17.310    3.4229
   17.325    3.5984
   17.340    3.6510
   17.355    3.4931
   17.370    3.3702
   17.385    3.4755
   17.400    3.0893
   17.415    3.1245
   17.430    3.0542
   17.445    3.6510
   17.460    3.5984
   17.475    3.6686
   17.490    3.6862
   17.505    3.3877
   17.520    3.6159
   17.535    3.3877
   17.550    3.1420
   17.565    3.0191
   17.580    3.4053
   17.595    3.7739
   17.610    3.7564
   17.625    3.6159
   17.640    3.2473
   17.655    3.4755
   17.670    3.3000
   17.685    3.4580
   17.700    3.6159
   17.715    3.2824
   17.730    3.3175
   17.745    3.5633
   17.760    3.2298
   17.775    3.2473
   17.790    3.2824
   17.805    3.3877
   17.820    3.2649
   17.835    3.3526
   17.850    3.5633
   17.865    3.2298
   17.880    3.1596
   17.895    3.3351
   17.910    3.0367
   17.925    3.0542
   17.940    3.7388
   17.955    3.4053
   17.970    3.4931
   17.985    3.4404
   18.000    3.3702
   18.015    3.4580
   18.030    3.4229
   18.045    3.8090
   18.060    3.7037
   18.075    3.5106
   18.090    3.5984
   18.105    3.3351
   18.120    3.1947
   18.135    3.2298
   18.150    3.3702
   18.165    3.1771
   18.180    3.5457
   18.195    3.3351
   18.210    3.6862
   18.225    3.5633
   18.240    3.3351
   18.255    3.0718
   18.270    3.3175
   18.285    3.6159
   18.300    3.6335
   18.315    3.6686
   18.330    3.3526
   18.345    3.5984
   18.360    3.7739
   18.375    3.8617
   18.390    3.4580
   18.405    3.3526
   18.420    3.4755
   18.435    3.5984
   18.450    3.3175
   18.465    3.3175
   18.480    3.6862
   18.495    3.1420
   18.510    3.0718
   18.525    3.2649
   18.540    3.3526
   18.555    3.4053
   18.570    3.5106
   18.585    3.5282
   18.600    3.6159
   18.615    3.3351
   18.630    3.5633
   18.645    3.3175
   18.660    3.3526
   18.675    3.4404
   18.690    3.7388
   18.705    3.6686
   18.720    3.3526
   18.735    3.5457
   18.750    3.4580
   18.765    3.5633
   18.780    3.3000
   18.795    3.4580
   18.810    3.6159
   18.825    3.5106
   18.840    3.5282
   18.855    3.6510
   18.870    3.3000
   18.885    3.6510
   18.900    3.7564
   18.915    3.3877
   18.930    3.5984
   18.945    3.6159
   18.960    3.3877
   18.975    3.4755
   18.990    3.5808
   19.005    3.5457
   19.020    3.8266
   19.035    3.6862
   19.050    3.6862
   19.065    3.7388
   19.080    3.6510
   19.095    3.5984
   19.110    3.3526
   19.125    3.3702
   19.140    3.3702
   19.155    3.1947
   19.170    3.1947
   19.185    3.0016
   19.200    3.4053
   19.215    3.4053
   19.230    3.3351
   19.245    3.7388
   19.260    3.5282
   19.275    3.3000
   19.290    3.2649
   19.305    3.2122
   19.320    3.6510
   19.335    3.3877
   19.350    3.4580
   19.365    3.9319
   19.380    3.4755
   19.395    3.0191
   19.410    3.4404
   19.425    3.7213
   19.440    3.3526
   19.455    3.2122
   19.470    3.3175
   19.485    3.2649
   19.500    3.3526
   19.515    3.4755
   19.530    3.4931
   19.545    3.7739
   19.560    3.7915
   19.575    3.8617
   19.590    3.5457
   19.605    3.8968
   19.620    3.5282
   19.635    3.4755
   19.650    3.2473
   19.665    3.4053
   19.680    3.4404
   19.695    3.4229
   19.710    3.4053
   19.725    3.1069
   19.740    3.3702
   19.755    3.1771
   19.770    3.4229
   19.785    3.5808
   19.800    3.4404
   19.815    3.3351
   19.830    3.3000
   19.845    3.5633
   19.860    3.2473
   19.875    3.6510
   19.890    3.2473
   19.905    3.2473
   19.920    3.2824
   19.935    3.2122
   19.950    3.3175
   19.965    3.2473
   19.980    3.4404
   19.995    3.3526
   20.010    3.3175
   20.025    3.2298
   20.040    3.4755
   20.055    3.8090
   20.070    3.4755
   20.085    3.1596
   20.100    3.3877
   20.115    3.7915
   20.130    3.6159
   20.145    3.3702
   20.160    3.3175
   20.175    3.5808
   20.190    4.1601
   20.205    3.6510
   20.220    3.2298
   20.235    3.3000
   20.250    3.7213
   20.265    3.7037
   20.280    3.4755
   20.295    3.4755
   20.310    3.8792
   20.325    3.9846
   20.340    3.8441
   20.355    3.6159
   20.370    3.5457
   20.385    3.6510
   20.400    3.4404
   20.415    3.4404
   20.430    3.4755
   20.445    3.4404
   20.460    3.6862
   20.475    3.6686
   20.490    3.3000
   20.505    3.5282
   20.520    3.3175
   20.535    3.7388
   20.550    3.4755
   20.565    3.3351
   20.580    3.7915
   20.595    3.9319
   20.610    3.5106
   20.625    3.6335
   20.640    3.7564
   20.655    3.5808
   20.670    3.5633
   20.685    3.5106
   20.700    3.3702
   20.715    3.4931
   20.730    3.4931
   20.745    3.0893
   20.760    3.2824
   20.775    3.8617
   20.790    3.8968
   20.805    3.3000
   20.820    3.4053
   20.835    3.6335
   20.850    3.8792
   20.865    3.8441
   20.880    3.6862
   20.895    3.9494
   20.910    3.5633
   20.925    3.6686
   20.940    3.8090
   20.955    3.7037
   20.970    3.3175
   20.985    3.4404
   21.000    3.5808
   21.015    3.5808
   21.030    3.4755
   21.045    3.3351
   21.060    3.6335
   21.075    3.9319
   21.090    3.6862
   21.105    3.6159
   21.120    3.9319
   21.135    3.5808
   21.150    3.8266
   21.165    3.6862
   21.180    3.2824
   21.195    3.5106
   21.210    3.3351
   21.225    3.7739
   21.240    3.8441
   21.255    3.4580
   21.270    3.7213
   21.285    3.3175
   21.300    3.2473
   21.315    3.4053
   21.330    3.5808
   21.345    3.3526
   21.360    3.5282
   21.375    3.8792
   21.390    3.5633
   21.405    3.4931
   21.420    3.6159
   21.435    3.6335
   21.450    3.7388
   21.465    3.6862
   21.480    3.6335
   21.495    3.5808
   21.510    3.9494
   21.525    3.8968
   21.540    3.5106
   21.555    4.0021
   21.570    3.5808
   21.585    3.6862
   21.600    3.5808
   21.615    3.5282
   21.630    3.8441
   21.645    3.2473
   21.660    3.3526
   21.675    3.7739
   21.690    3.5808
   21.705    3.4931
   21.720    3.5808
   21.735    3.7739
   21.750    3.4404
   21.765    3.5808
   21.780    3.4580
   21.795    3.3877
   21.810    3.6159
   21.825    3.8090
   21.840    3.9143
   21.855    3.9494
   21.870    3.4931
   21.885    3.4229
   21.900    3.6159
   21.915    3.3000
   21.930    3.4229
   21.945    3.5808
   21.960    3.5808
   21.975    3.6335
   21.990    3.9494
   22.005    3.6862
   22.020    3.6686
   22.035    3.3351
   22.050    3.4229
   22.065    3.5984
   22.080    3.4229
   22.095    3.3702
   22.110    3.4404
   22.125    3.5282
   22.140    3.5984
   22.155    3.8792
   22.170    3.7564
   22.185    3.3877
   22.200    3.5984
   22.215    3.9143
   22.230    3.5457
   22.245    3.8617
   22.260    3.9143
   22.275    3.3702
   22.290    3.8968
   22.305    3.4053
   22.320    3.8266
   22.335    3.6335
   22.350    3.3000
   22.365    3.2824
   22.380    3.6159
   22.395    3.9143
   22.410    3.7388
   22.425    3.7213
   22.440    3.4931
   22.455    3.8792
   22.470    3.8090
   22.485    3.7037
   22.500    3.7739
   22.515    3.5808
   22.530    3.6862
   22.545    3.8266
   22.560    3.6686
   22.575    3.4580
   22.590    3.6159
   22.605    3.9143
   22.620    3.6335
   22.635    3.6510
   22.650    3.5984
   22.665    3.6510
   22.680    3.3000
   22.695    3.7915
   22.710    3.9319
   22.725    3.9494
   22.740    3.8968
   22.755    3.3526
   22.770    3.5808
   22.785    3.5282
   22.800    3.4053
   22.815    3.5106
   22.830    3.4404
   22.845    3.5984
   22.860    3.5282
   22.875    3.4755
   22.890    3.5984
   22.905    3.4404
   22.920    3.3351
   22.935    3.7213
   22.950    3.5808
   22.965    3.9670
   22.980    3.6159
   22.995    3.5106
   23.010    3.1771
   23.025    3.2649
   23.040    3.5282
   23.055    3.9319
   23.070    3.6686
   23.085    3.7037
   23.100    3.4229
   23.115    3.3175
   23.130    3.4229
   23.145    3.2473
   23.160    3.5282
   23.175    3.7213
   23.190    3.5106
   23.205    3.5984
   23.220    3.5633
   23.235    3.4229
   23.250    3.6686
   23.265    3.4580
   23.280    3.7388
   23.295    3.1596
   23.310    3.3877
   23.325    3.5808
   23.340    3.8792
   23.355    3.8090
   23.370    3.7213
   23.385    3.4053
   23.400    3.5808
   23.415    3.5633
   23.430    3.7915
   23.445    3.7915
   23.460    3.6510
   23.475    3.7915
   23.490    3.2473
   23.505    3.2649
   23.520    3.8617
   23.535    3.5984
   23.550    3.5282
   23.565    3.6335
   23.580    3.8090
   23.595    4.0021
   23.610    3.3877
   23.625    3.3351
   23.640    3.4580
   23.655    3.8617
   23.670    3.7739
   23.685    3.4580
   23.700    3.1771
   23.715    3.5808
   23.730    3.6862
   23.745    3.2298
   23.760    3.4755
   23.775    3.6159
   23.790    3.5282
   23.805    3.4755
   23.820    3.4755
   23.835    3.5808
   23.850    3.5984
   23.865    3.4755
   23.880    3.5106
   23.895    3.5808
   23.910    3.6862
   23.925    3.6159
   23.940    3.9494
   23.955    3.6159
   23.970    3.3000
   23.985    3.5457
   24.000    3.8617
   24.015    3.6159
   24.030    3.5633
   24.045    3.5633
   24.060    3.6686
   24.075    3.4229
   24.090    3.3351
   24.105    3.4404
   24.120    3.6510
   24.135    3.9143
   24.150    3.2473
   24.165    3.5457
   24.180    3.7915
   24.195    3.6862
   24.210    3.5457
   24.225    3.6159
   24.240    3.4404
   24.255    3.2824
   24.270    3.5282
   24.285    3.4755
   24.300    3.4755
   24.315    3.8617
   24.330    3.1420
   24.345    3.3351
   24.360    3.7213
   24.375    3.6159
   24.390    3.5282
   24.405    3.2649
   24.420    3.6335
   24.435    3.6862
   24.450    3.4580
   24.465    3.7915
   24.480    3.7915
   24.495    3.6510
   24.510    3.5457
   24.525    3.5808
   24.540    3.4404
   24.555    3.4229
   24.570    3.5808
   24.585    3.6159
   24.600    3.6686
   24.615    3.6159
   24.630    3.4404
   24.645    3.5282
   24.660    3.6510
   24.675    3.8441
   24.690    3.3877
   24.705    3.5808
   24.720    3.5633
   24.735    3.4755
   24.750    3.4053
   24.765    3.1771
   24.780    3.2649
   24.795    3.3877
   24.810    3.2122
   24.825    3.4580
   24.840    3.6510
   24.855    3.9319
   24.870    3.5808
   24.885    3.5633
   24.900    3.6686
   24.915    3.5457
   24.930    3.4229
   24.945    3.2473
   24.960    4.0372
   24.975    3.7915
   24.990    3.5282
   25.005    3.0893
   25.020    3.4580
   25.035    3.7037
   25.050    3.5457
   25.065    3.4229
   25.080    3.4931
   25.095    3.7213
   25.110    3.6862
   25.125    3.4755
   25.140    4.0372
   25.155    3.3175
   25.170    3.3175
   25.185    3.7564
   25.200    3.6510
   25.215    3.4755
   25.230    3.6686
   25.245    3.5808
   25.260    3.6862
   25.275    3.6862
   25.290    3.4931
   25.305    3.3175
   25.320    3.4580
   25.335    3.3877
   25.350    3.5457
   25.365    3.6862
   25.380    3.5633
   25.395    3.4053
   25.410    3.6159
   25.425    3.2649
   25.440    3.4404
   25.455    4.1074
   25.470    3.6686
   25.485    3.7037
   25.500    3.5457
   25.515    3.3877
   25.530    3.4404
   25.545    3.6335
   25.560    3.4053
   25.575    3.2824
   25.590    3.4053
   25.605    3.2298
   25.620    3.1245
   25.635    3.3877
   25.650    3.4404
   25.665    3.4404
   25.680    3.5106
   25.695    3.3526
   25.710    3.2649
   25.725    3.3526
   25.740    3.5457
   25.755    3.5282
   25.770    3.3526
   25.785    3.1771
   25.800    3.2649
   25.815    3.6510
   25.830    3.4931
   25.845    3.2298
   25.860    3.2298
   25.875    3.4931
   25.890    3.6335
   25.905    3.7037
   25.920    3.4755
   25.935    3.3702
   25.950    3.4755
   25.965    3.5633
   25.980    3.6510
   25.995    3.2649
   26.010    3.4580
   26.025    3.1245
   26.040    3.3702
   26.055    3.1947
   26.070    3.3000
   26.085    3.4580
   26.100    3.5282
   26.115    3.1771
   26.130    3.3175
   26.145    3.1771
   26.160    3.2298
   26.175    3.3000
   26.190    3.2473
   26.205    3.0893
   26.220    3.4229
   26.235    3.3175
   26.250    3.5282
   26.265    3.3351
   26.280    3.7213
   26.295    2.8612
   26.310    3.0542
   26.325    3.3000
   26.340    3.5282
   26.355    3.2824
   26.370    3.3351
   26.385    3.5106
   26.400    3.5106
   26.415    3.2649
   26.430    3.3702
   26.445    3.1596
   26.460    3.3526
   26.475    3.3702
   26.490    3.2298
   26.505    3.4580
   26.520    3.7213
   26.535    3.8617
   26.550    3.7037
   26.565    3.2649
   26.580    3.2824
   26.595    3.4931
   26.610    3.5106
   26.625    3.2824
   26.640    3.4404
   26.655    3.5457
   26.670    3.5106
   26.685    3.4404
   26.700    3.4580
   26.715    3.2824
   26.730    3.2824
   26.745    3.3702
   26.760    3.3526
   26.775    3.2649
   26.790    3.2122
   26.805    3.2473
   26.820    3.1245
   26.835    3.1596
   26.850    3.6159
   26.865    3.4053
   26.880    3.0893
   26.895    3.4580
   26.910    3.3175
   26.925    3.3351
   26.940    3.4053
   26.955    3.7213
   26.970    3.3526
   26.985    3.5282
   27.000    3.5106
   27.015    3.1069
   27.030    3.3175
   27.045    3.3175
   27.060    3.4580
   27.075    3.1947
   27.090    3.0191
   27.105    3.2824
   27.120    3.6335
   27.135    3.3702
   27.150    3.1245
   27.165    3.3000
   27.180    3.1771
   27.195    3.2473
   27.210    3.1771
   27.225    3.3351
   27.240    3.3702
   27.255    3.5282
   27.270    3.1245
   27.285    3.0542
   27.300    3.2649
   27.315    2.9138
   27.330    3.2298
   27.345    3.4053
   27.360    3.6159
   27.375    3.3526
   27.390    3.0893
   27.405    3.2473
   27.420    2.9665
   27.435    3.0893
   27.450    3.2122
   27.465    3.4580
   27.480    2.9138
   27.495    2.9665
   27.510    3.3175
   27.525    3.3877
   27.540    3.2649
   27.555    3.0893
   27.570    3.1420
   27.585    3.5457
   27.600    3.4404
   27.615    3.0191
   27.630    3.2122
   27.645    3.0718
   27.660    3.3526
   27.675    3.3702
   27.690    3.0718
   27.705    3.0893
   27.720    2.9489
   27.735    3.1245
   27.750    3.1771
   27.765    3.3000
   27.780    3.0718
   27.795    3.2122
   27.810    3.4404
   27.825    3.1947
   27.840    2.9665
   27.855    2.9665
   27.870    3.3526
   27.885    3.0718
   27.900    3.1771
   27.915    3.1596
   27.930    3.2122
   27.945    2.9489
   27.960    3.3175
   27.975    3.3351
   27.990    3.1947
   28.005    3.1245
   28.020    3.4755
   28.035    3.2298
   28.050    2.9489
   28.065    3.2473
   28.080    3.0718
   28.095    3.3526
   28.110    2.9489
   28.125    2.6330
   28.140    2.8436
   28.155    3.0191
   28.170    3.2473
   28.185    2.9840
   28.200    3.1420
   28.215    3.3526
   28.230    3.5457
   28.245    3.0016
   28.260    3.2122
   28.275    3.2298
   28.290    2.8612
   28.305    3.5984
   28.320    3.0016
   28.335    3.0016
   28.350    3.2473
   28.365    2.8787
   28.380    2.8436
   28.395    3.0718
   28.410    3.0542
   28.425    3.3526
   28.440    3.1947
   28.455    3.1771
   28.470    3.0718
   28.485    3.2824
   28.500    3.2298
   28.515    3.0542
   28.530    2.9489
   28.545    2.9840
   28.560    3.3175
   28.575    2.9489
   28.590    3.0016
   28.605    2.7909
   28.620    3.1069
   28.635    3.5633
   28.650    2.9314
   28.665    3.0718
   28.680    3.3702
   28.695    3.1771
   28.710    3.2473
   28.725    3.4580
   28.740    3.2473
   28.755    3.1420
   28.770    3.0893
   28.785    3.3000
   28.800    3.0542
   28.815    3.1947
   28.830    2.8612
   28.845    3.0542
   28.860    3.3702
   28.875    3.5282
   28.890    3.2122
   28.905    3.0016
   28.920    3.4229
   28.935    3.3000
   28.950    3.2122
   28.965    3.4229
   28.980    3.1420
   28.995    3.1947
   29.010    3.3702
   29.025    3.3351
   29.040    3.2649
   29.055    3.2298
   29.070    3.5457
   29.085    3.0367
   29.100    3.5808
   29.115    3.2298
   29.130    3.1069
   29.145    3.2122
   29.160    3.1069
   29.175    2.9314
   29.190    3.0893
   29.205    3.5808
   29.220    3.1420
   29.235    2.7558
   29.250    3.1947
   29.265    2.7558
   29.280    2.8436
   29.295    3.0718
   29.310    3.1069
   29.325    3.3526
   29.340    3.3526
   29.355    3.0542
   29.370    3.1771
   29.385    3.0016
   29.400    3.0718
   29.415    3.6862
   29.430    3.3702
   29.445    3.0542
   29.460    3.2824
   29.475    3.0718
   29.490    3.0191
   29.505    3.1771
   29.520    3.3000
   29.535    3.5984
   29.550    2.9138
   29.565    3.3702
   29.580    3.0718
   29.595    3.3526
   29.610    3.1947
   29.625    3.2122
   29.640    3.3000
   29.655    3.2298
   29.670    3.2122
   29.685    3.0367
   29.700    3.3000
   29.715    3.3702
   29.730    3.0542
   29.745    3.1069
   29.760    2.8436
   29.775    2.9665
   29.790    2.7909
   29.805    2.9489
   29.820    3.0718
   29.835    3.0016
   29.850    2.9489
   29.865    3.0191
   29.880    3.1245
   29.895    2.7558
   29.910    3.1069
   29.925    3.1420
   29.940    2.9840
   29.955    3.2122
   29.970    3.1947
   29.985    2.9314
   30.000    2.9138
   30.015    2.9840
   30.030    2.9665
   30.045    3.1069
   30.060    3.0191
   30.075    2.8085
   30.090    3.1771
   30.105    3.0191
   30.120    3.2122
   30.135    3.2298
   30.150    3.2824
   30.165    2.7909
   30.180    2.8787
   30.195    3.1596
   30.210    3.1947
   30.225    3.0367
   30.240    2.9840
   30.255    3.0016
   30.270    2.8436
   30.285    2.9314
   30.300    3.3000
   30.315    3.2473
   30.330    3.0367
   30.345    3.2473
   30.360    3.0016
   30.375    3.0718
   30.390    3.0718
   30.405    3.2122
   30.420    3.1069
   30.435    3.0191
   30.450    3.2824
   30.465    2.9138
   30.480    3.1245
   30.495    3.1420
   30.510    3.3351
   30.525    2.8963
   30.540    2.8963
   30.555    3.0542
   30.570    3.1596
   30.585    3.1771
   30.600    3.1947
   30.615    3.0542
   30.630    3.1947
   30.645    3.1420
   30.660    3.1771
   30.675    2.9840
   30.690    3.1596
   30.705    3.3000
   30.720    3.0191
   30.735    2.8963
   30.750    3.1069
   30.765    3.4053
   30.780    3.1069
   30.795    3.0893
   30.810    3.0893
   30.825    3.1771
   30.840    2.5979
   30.855    2.7032
   30.870    2.8085
   30.885    2.7558
   30.900    3.1771
   30.915    2.9489
   30.930    2.8436
   30.945    3.1245
   30.960    3.0367
   30.975    2.7032
   30.990    2.7909
   31.005    2.9314
   31.020    2.8260
   31.035    2.9840
   31.050    2.6681
   31.065    2.8963
   31.080    3.0718
   31.095    3.1069
   31.110    2.5628
   31.125    2.8612
   31.140    2.5452
   31.155    3.0191
   31.170    3.0367
   31.185    3.1420
   31.200    3.0191
   31.215    3.1420
   31.230    3.1069
   31.245    3.4404
   31.260    2.8963
   31.275    2.8612
   31.290    3.1420
   31.305    3.1947
   31.320    2.8787
   31.335    2.4750
   31.350    2.8436
   31.365    2.7734
   31.380    2.3872
   31.395    2.9665
   31.410    2.8436
   31.425    2.6681
   31.440    3.1420
   31.455    2.9138
   31.470    2.5979
   31.485    2.9138
   31.500    3.1420
   31.515    3.2298
   31.530    2.8085
   31.545    2.6505
   31.560    2.8085
   31.575    2.8612
   31.590    2.8963
   31.605    2.8612
   31.620    3.1596
   31.635    2.9840
   31.650    2.9665
   31.665    3.0191
   31.680    3.0016
   31.695    2.9138
   31.710    3.0191
   31.725    3.0367
   31.740    3.2473
   31.755    3.2122
   31.770    2.8787
   31.785    3.2824
   31.800    3.0191
   31.815    2.8787
   31.830    2.9665
   31.845    3.0542
   31.860    2.7909
   31.875    2.6856
   31.890    3.1596
   31.905    2.9665
   31.920    3.0718
   31.935    2.5276
   31.950    2.6681
   31.965    2.9665
   31.980    2.7207
   31.995    3.0191
   32.010    2.8963
   32.025    2.8612
   32.040    2.8085
   32.055    3.0367
   32.070    2.9840
   32.085    2.7207
   32.100    2.7734
   32.115    2.6154
   32.130    2.8787
   32.145    3.0718
   32.160    3.1069
   32.175    2.8436
   32.190    2.4574
   32.205    2.8963
   32.220    2.9314
   32.235    2.7207
   32.250    2.8085
   32.265    2.6681
   32.280    2.6505
   32.295    2.7207
   32.310    2.7558
   32.325    2.8612
   32.340    2.7558
   32.355    2.8612
   32.370    2.7032
   32.385    2.8787
   32.400    2.5803
   32.415    2.7909
   32.430    2.6856
   32.445    2.4750
   32.460    2.8963
   32.475    2.8260
   32.490    2.6330
   32.505    2.7383
   32.520    2.7909
   32.535    2.9665
   32.550    2.9840
   32.565    2.6505
   32.580    2.6505
   32.595    2.8787
   32.610    3.1069
   32.625    2.9665
   32.640    2.8612
   32.655    2.7383
   32.670    2.5452
   32.685    2.9489
   32.700    2.6505
   32.715    2.4223
   32.730    2.8787
   32.745    2.7032
   32.760    3.0191
   32.775    3.4229
   32.790    2.7383
   32.805    2.8260
   32.820    2.8787
   32.835    3.3000
   32.850    3.1947
   32.865    2.5979
   32.880    2.7558
   32.895    3.1245
   32.910    3.0191
   32.925    2.5979
   32.940    2.5979
   32.955    2.5803
   32.970    2.7909
   32.985    2.8963
   33.000    2.5276
   33.015    2.8963
   33.030    2.9665
   33.045    2.4925
   33.060    2.8085
   33.075    2.7032
   33.090    2.8260
   33.105    2.7558
   33.120    2.7558
   33.135    2.5628
   33.150    2.7909
   33.165    2.6330
   33.180    2.9138
   33.195    2.4925
   33.210    2.4750
   33.225    2.4048
   33.240    2.5452
   33.255    2.4223
   33.270    2.5803
   33.285    3.0542
   33.300    2.8787
   33.315    2.6330
   33.330    3.0191
   33.345    3.0191
   33.360    2.8612
   33.375    3.0542
   33.390    2.4399
   33.405    2.8260
   33.420    2.8260
   33.435    3.0016
   33.450    2.6856
   33.465    2.7207
   33.480    2.5276
   33.495    2.6681
   33.510    2.9840
   33.525    2.8612
   33.540    2.8436
   33.555    3.1069
   33.570    2.7207
   33.585    2.6154
   33.600    2.4574
   33.615    2.5276
   33.630    2.5628
   33.645    2.8787
   33.660    2.4925
   33.675    2.6505
   33.690    2.8787
   33.705    2.7558
   33.720    2.6856
   33.735    2.7207
   33.750    2.8612
   33.765    2.5628
   33.780    2.6505
   33.795    2.5803
   33.810    2.7032
   33.825    2.7383
   33.840    3.0016
   33.855    3.0718
   33.870    2.5803
   33.885    2.8085
   33.900    2.8085
   33.915    2.6154
   33.930    2.7383
   33.945    2.8963
   33.960    2.7032
   33.975    2.5803
   33.990    2.7383
   34.005    3.1420
   34.020    2.9314
   34.035    2.6856
   34.050    2.8612
   34.065    3.0191
   34.080    2.7558
   34.095    2.5803
   34.110    2.5803
   34.125    2.6681
   34.140    2.7909
   34.155    3.2298
   34.170    2.8260
   34.185    2.9314
   34.200    2.6154
   34.215    2.9138
   34.230    3.0542
   34.245    2.7032
   34.260    2.6856
   34.275    2.6154
   34.290    2.9314
   34.305    2.3521
   34.320    2.5628
   34.335    2.3872
   34.350    2.4925
   34.365    2.6505
   34.380    2.8963
   34.395    2.8787
   34.410    2.7909
   34.425    2.7207
   34.440    2.6154
   34.455    2.5452
   34.470    2.7909
   34.485    2.8436
   34.500    2.5452
   34.515    2.6856
   34.530    2.7558
   34.545    2.7909
   34.560    2.5452
   34.575    2.5628
   34.590    2.6154
   34.605    2.8787
   34.620    2.6505
   34.635    2.6681
   34.650    3.0367
   34.665    2.9489
   34.680    2.4750
   34.695    2.8085
   34.710    2.4399
   34.725    2.4925
   34.740    2.7734
   34.755    2.5979
   34.770    2.8963
   34.785    2.5979
   34.800    2.6505
   34.815    2.5276
   34.830    3.0016
   34.845    2.6154
   34.860    2.5101
   34.875    2.5628
   34.890    2.5979
   34.905    2.7207
   34.920    2.8260
   34.935    2.7734
   34.950    3.0893
   34.965    2.9314
   34.980    2.6856
   34.995    2.6856
   35.010    2.4750
   35.025    2.5276
   35.040    2.7383
   35.055    2.9489
   35.070    2.9665
   35.085    2.7909
   35.100    2.7207
   35.115    2.8612
   35.130    2.6505
   35.145    2.5979
   35.160    2.7558
   35.175    2.4925
   35.190    2.6681
   35.205    2.6330
   35.220    2.3521
   35.235    2.3346
   35.250    2.7909
   35.265    2.7207
   35.280    2.7207
   35.295    2.5276
   35.310    2.7734
   35.325    2.8085
   35.340    2.7734
   35.355    2.9489
   35.370    2.6681
   35.385    2.7558
   35.400    2.5628
   35.415    2.4399
   35.430    2.6681
   35.445    2.8085
   35.460    2.6505
   35.475    2.4399
   35.490    2.7032
   35.505    2.4925
   35.520    2.2468
   35.535    2.6681
   35.550    2.5452
   35.565    2.4925
   35.580    2.5452
   35.595    2.6505
   35.610    2.9840
   35.625    2.7032
   35.640    2.5276
   35.655    2.2995
   35.670    2.6154
   35.685    2.5101
   35.700    2.9314
   35.715    2.7734
   35.730    2.7383
   35.745    2.6154
   35.760    2.8963
   35.775    3.0367
   35.790    2.6681
   35.805    2.5101
   35.820    2.6681
   35.835    2.8085
   35.850    2.5452
   35.865    2.7909
   35.880    2.6681
   35.895    2.6505
   35.910    2.7558
   35.925    2.3521
   35.940    2.4750
   35.955    2.8085
   35.970    2.5276
   35.985    2.1239
   36.000    2.7032
   36.015    2.8612
   36.030    2.4048
   36.045    3.0367
   36.060    2.8085
   36.075    2.6154
   36.090    2.8787
   36.105    2.5628
   36.120    2.5101
   36.135    2.5452
   36.150    2.6681
   36.165    2.6154
   36.180    2.6856
   36.195    2.6330
   36.210    2.7383
   36.225    2.5101
   36.240    2.6154
   36.255    2.6330
   36.270    2.6681
   36.285    2.7558
   36.300    2.4925
   36.315    2.4574
   36.330    2.4574
   36.345    2.5979
   36.360    2.4399
   36.375    2.2468
   36.390    2.5452
   36.405    2.6505
   36.420    2.6681
   36.435    2.5628
   36.450    2.6856
   36.465    2.5452
   36.480    2.7558
   36.495    2.5276
   36.510    2.7558
   36.525    2.5276
   36.540    2.3872
   36.555    2.8612
   36.570    2.8085
   36.585    2.5803
   36.600    2.4750
   36.615    2.5628
   36.630    2.7383
   36.645    2.7383
   36.660    2.6330
   36.675    2.5101
   36.690    2.5628
   36.705    2.5276
   36.720    2.5628
   36.735    2.3872
   36.750    2.5101
   36.765    2.4574
   36.780    2.7383
   36.795    2.6154
   36.810    2.4925
   36.825    2.8085
   36.840    2.2468
   36.855    2.1590
   36.870    2.3170
   36.885    2.9840
   36.900    2.7032
   36.915    2.5979
   36.930    2.7207
   36.945    2.7734
   36.960    2.6681
   36.975    2.4750
   36.990    2.5101
   37.005    2.4574
   37.020    2.5276
   37.035    2.5452
   37.050    2.9840
   37.065    2.5803
   37.080    2.6330
   37.095    2.7558
   37.110    2.6856
   37.125    2.4399
   37.140    2.8085
   37.155    2.9489
   37.170    2.5276
   37.185    2.6330
   37.200    2.4399
   37.215    2.4750
   37.230    2.3872
   37.245    2.5452
   37.260    2.5803
   37.275    2.5101
   37.290    2.8436
   37.305    2.8963
   37.320    2.5101
   37.335    2.4223
   37.350    2.4399
   37.365    2.7383
   37.380    2.4750
   37.395    2.5628
   37.410    2.5803
   37.425    2.6856
   37.440    2.5101
   37.455    2.3170
   37.470    2.1415
   37.485    2.6154
   37.500    2.7909
   37.515    2.3697
   37.530    2.3697
   37.545    2.4399
   37.560    2.3521
   37.575    2.5276
   37.590    2.4574
   37.605    2.5452
   37.620    2.7909
   37.635    2.8787
   37.650    2.5979
   37.665    2.7383
   37.680    2.7383
   37.695    2.5979
   37.710    2.7734
   37.725    2.7207
   37.740    2.2292
   37.755    2.4048
   37.770    2.5276
   37.785    2.9489
   37.800    2.8963
   37.815    2.7558
   37.830    2.4048
   37.845    2.5628
   37.860    2.5803
   37.875    2.5452
   37.890    2.7032
   37.905    2.4399
   37.920    2.4574
   37.935    2.3872
   37.950    2.5452
   37.965    2.8436
   37.980    2.5803
   37.995    2.2643
   38.010    2.6330
   38.025    2.6856
   38.040    2.3697
   38.055    2.3521
   38.070    2.5628
   38.085    2.1941
   38.100    2.3697
   38.115    2.3521
   38.130    2.5803
   38.145    2.6330
   38.160    2.5628
   38.175    2.5452
   38.190    2.5979
   38.205    2.4399
   38.220    2.5979
   38.235    2.4223
   38.250    2.9314
   38.265    2.5979
   38.280    2.4750
   38.295    2.1415
   38.310    2.4925
   38.325    2.9665
   38.340    3.0191
   38.355    2.5628
   38.370    2.4048
   38.385    2.4750
   38.400    2.5101
   38.415    2.8436
   38.430    2.5628
   38.445    2.4048
   38.460    2.6856
   38.475    2.4223
   38.490    2.6330
   38.505    2.6330
   38.520    2.5452
   38.535    2.4399
   38.550    2.2117
   38.565    2.4048
   38.580    2.6681
   38.595    2.8436
   38.610    2.4574
   38.625    2.7909
   38.640    2.1941
   38.655    2.2292
   38.670    2.6154
   38.685    2.4750
   38.700    2.5101
   38.715    2.4399
   38.730    2.5628
   38.745    2.5452
   38.760    2.2643
   38.775    2.4048
   38.790    2.3697
   38.805    2.5276
   38.820    2.3872
   38.835    2.4399
   38.850    2.2117
   38.865    2.3697
   38.880    2.2819
   38.895    2.5628
   38.910    2.2468
   38.925    2.5452
   38.940    2.5979
   38.955    2.3872
   38.970    2.4574
   38.985    2.4048
   39.000    2.5452
   39.015    2.4048
   39.030    2.3170
   39.045    2.5101
   39.060    2.4925
   39.075    2.4750
   39.090    2.4750
   39.105    2.6330
   39.120    2.7383
   39.135    2.6681
   39.150    2.5276
   39.165    2.5803
   39.180    2.5803
   39.195    2.5628
   39.210    2.5276
   39.225    2.6330
   39.240    2.3697
   39.255    2.6330
   39.270    2.5979
   39.285    2.2995
   39.300    2.1941
   39.315    2.4925
   39.330    2.6856
   39.345    2.5452
   39.360    2.3872
   39.375    2.9314
   39.390    3.2649
   39.405    2.5452
   39.420    2.5101
   39.435    2.5452
   39.450    2.7032
   39.465    2.7383
   39.480    2.5803
   39.495    2.7383
   39.510    2.3521
   39.525    2.4048
   39.540    2.4223
   39.555    2.3170
   39.570    2.4750
   39.585    2.4925
   39.600    2.7032
   39.615    2.5979
   39.630    2.5979
   39.645    2.5101
   39.660    2.3872
   39.675    2.2643
   39.690    2.6154
   39.705    2.5803
   39.720    2.5101
   39.735    2.4925
   39.750    2.4574
   39.765    2.7207
   39.780    2.8787
   39.795    2.7734
   39.810    2.6505
   39.825    2.6681
   39.840    2.5276
   39.855    2.8085
   39.870    2.4223
   39.885    2.8436
   39.900    2.6856
   39.915    2.5101
   39.930    2.2995
   39.945    2.4925
   39.960    2.5803
   39.975    2.2117
   39.990    2.4750
