    1.500   23.9916
    1.515   24.1390
    1.530   23.8336
    1.545   23.4966
    1.560   22.5487
    1.575   23.0121
    1.590   23.2333
    1.605   21.8325
    1.620   21.7694
    1.635   21.6640
    1.650   21.7378
    1.665   21.4218
    1.680   21.0216
    1.695   21.2954
    1.710   20.4423
    1.725   19.8104
    1.740   19.9473
    1.755   20.0000
    1.770   19.7156
    1.785   19.9684
    1.800   19.0521
    1.815   18.4202
    1.830   18.3886
    1.845   18.3149
    1.860   18.4729
    1.875   18.5255
    1.890   18.7678
    1.905   17.7146
    1.920   17.5040
    1.935   17.5882
    1.950   17.9674
    1.965   17.6514
    1.980   17.3460
    1.995   16.8194
    2.010   16.5034
    2.025   16.1664
    2.040   15.6714
    2.055   15.7873
    2.070   15.9874
    2.085   15.6398
    2.100   15.3765
    2.115   16.3033
    2.130   15.5029
    2.145   15.4924
    2.160   15.2607
    2.175   14.8078
    2.190   14.7551
    2.205   14.7130
    2.220   14.6709
    2.235   14.5445
    2.250   15.0079
    2.265   14.6393
    2.280   14.6603
    2.295   14.3339
    2.310   14.3233
    2.325   14.5866
    2.340   14.1338
    2.355   13.4913
    2.370   13.7125
    2.385   14.1759
    2.400   13.7546
    2.415   14.1548
    2.430   14.5972
    2.445   14.1548
    2.460   14.0074
    2.475   14.2707
    2.490   13.6914
    2.505   13.1227
    2.520   13.5966
    2.535   13.6177
    2.550   13.7019
    2.565   13.3755
    2.580   13.0700
    2.595   13.2701
    2.610   13.3860
    2.625   13.4597
    2.640   12.8489
    2.655   12.9226
    2.670   12.9226
    2.685   12.9858
    2.700   12.9121
    2.715   13.4387
    2.730   13.0490
    2.745   13.3439
    2.760   13.4492
    2.775   13.3860
    2.790   13.0806
    2.805   13.2385
    2.820   13.3017
    2.835   13.2912
    2.850   13.3228
    2.865   13.0068
    2.880   13.1754
    2.895   13.4387
    2.910   13.1648
    2.925   13.6704
    2.940   13.1332
    2.955   13.5650
    2.970   13.3439
    2.985   13.4597
    3.000   13.7967
    3.015   13.4492
    3.030   13.9231
    3.045   13.9231
    3.060   14.3233
    3.075   13.9758
    3.090   14.6077
    3.105   14.7867
    3.120   14.5445
    3.135   14.5129
    3.150   14.6182
    3.165   14.5761
    3.180   15.1343
    3.195   16.4402
    3.210   15.6714
    3.225   15.8294
    3.240   16.8615
    3.255   16.6719
    3.270   16.2823
    3.285   16.4508
    3.300   16.8510
    3.315   17.3038
    3.330   17.4934
    3.345   17.5461
    3.360   17.9147
    3.375   18.0095
    3.390   17.8831
    3.405   18.2728
    3.420   18.8731
    3.435   19.5893
    3.450   20.4423
    3.465   20.7162
    3.480   21.4745
    3.495   21.5061
    3.510   22.3381
    3.525   23.1490
    3.540   23.7599
    3.555   23.7388
    3.570   24.8657
    3.585   24.7183
    3.600   26.0242
    3.615   26.4244
    3.630   28.4887
    3.645   28.8257
    3.660   29.9315
    3.675   31.4271
    3.690   31.3744
    3.705   33.5440
    3.720   35.3344
    3.735   37.2512
    3.750   38.8836
    3.765   41.6008
    3.780   44.6551
    3.795   47.5408
    3.810   50.8162
    3.825   56.0400
    3.840   60.2633
    3.855   65.3923
    3.870   65.9189
    3.885   66.2349
    3.900   58.5782
    3.915   50.4897
    3.930   39.4102
    3.945   30.3318
    3.960   23.0437
    3.975   19.1048
    3.990   16.6614
    4.005   15.6714
    4.020   14.8920
    4.035   13.3123
    4.050   12.8594
    4.065   12.8383
    4.080   11.7009
    4.095   11.8905
    4.110   11.1322
    4.125   11.3112
    4.140   10.7004
    4.155   10.3002
    4.170   10.2370
    4.185   10.1738
    4.200    9.8894
    4.215    9.9631
    4.230   10.1106
    4.245   10.0790
    4.260    9.9526
    4.275    9.2575
    4.290    9.8999
    4.305    9.7736
    4.320    9.7420
    4.335    9.7314
    4.350    9.7420
    4.365    9.4471
    4.380    9.3628
    4.395    9.0574
    4.410    9.4365
    4.425    8.9205
    4.440    9.4155
    4.455    9.5524
    4.470    9.5629
    4.485    9.9631
    4.500    9.4576
    4.515    9.5945
    4.530    9.0785
    4.545    9.4787
    4.560    9.0995
    4.575    8.7941
    4.590    9.1206
    4.605    8.9942
    4.620    8.9942
    4.635    9.7736
    4.650    9.9105
    4.665    8.8678
    4.680    9.0047
    4.695    9.1943
    4.710    8.9100
    4.725    9.2680
    4.740    9.2048
    4.755    9.6893
    4.770    9.9526
    4.785    9.2891
    4.800    9.4681
    4.815    9.3944
    4.830    9.1206
    4.845    9.7525
    4.860    9.8578
    4.875    9.9631
    4.890    9.5524
    4.905    9.9421
    4.920   10.1527
    4.935    9.6051
    4.950    9.6051
    4.965    9.6261
    4.980   10.1843
    4.995   10.4476
    5.010   10.8268
    5.025   10.6161
    5.040   10.9637
    5.055   10.8583
    5.070   11.6904
    5.085   11.2059
    5.100   10.9742
    5.115   10.6793
    5.130   11.4587
    5.145   11.5850
    5.160   11.6904
    5.175   12.1222
    5.190   12.6488
    5.205   13.1332
    5.220   13.0806
    5.235   13.3333
    5.250   13.7230
    5.265   13.4281
    5.280   14.3339
    5.295   14.6919
    5.310   15.3555
    5.325   15.2817
    5.340   15.6819
    5.355   17.5461
    5.370   17.6725
    5.385   17.2722
    5.400   19.3260
    5.415   20.5266
    5.430   21.5061
    5.445   22.5171
    5.460   24.3181
    5.475   26.7825
    5.490   27.2143
    5.505   26.8246
    5.520   24.3286
    5.535   21.7167
    5.550   18.8099
    5.565   15.2291
    5.580   12.6909
    5.595   11.7430
    5.610   10.3423
    5.625   10.0579
    5.640    9.4260
    5.655    9.6577
    5.670    8.8678
    5.685    9.1522
    5.700    8.5203
    5.715    8.8257
    5.730    8.9521
    5.745    8.9310
    5.760    8.9626
    5.775    8.8046
    5.790    8.8152
    5.805    8.1411
    5.820    8.5097
    5.835    8.1095
    5.850    8.3939
    5.865    8.4255
    5.880    8.5203
    5.895    8.2043
    5.910    8.3202
    5.925    8.3623
    5.940    8.3307
    5.955    8.2780
    5.970    7.6145
    5.985    8.3202
    6.000    8.0358
    6.015    8.1411
    6.030    8.3623
    6.045    8.4360
    6.060    8.2886
    6.075    8.7414
    6.090    8.2780
    6.105    8.6256
    6.120    8.2675
    6.135    8.3096
    6.150    8.1517
    6.165    8.3623
    6.180    8.7098
    6.195    8.4992
    6.210    8.6151
    6.225    8.9837
    6.240    8.5097
    6.255    8.1833
    6.270    8.6993
    6.285    8.5413
    6.300    8.5203
    6.315    8.8468
    6.330    8.7098
    6.345    8.6045
    6.360    8.9626
    6.375    8.8678
    6.390    9.0047
    6.405    8.9100
    6.420    9.2891
    6.435    9.2259
    6.450    8.9626
    6.465    9.3523
    6.480    9.5945
    6.495    9.2048
    6.510    9.4365
    6.525   10.0053
    6.540    9.5524
    6.555    9.7104
    6.570   10.2054
    6.585   10.9847
    6.600   10.5213
    6.615   10.7636
    6.630   10.8162
    6.645   11.2375
    6.660   11.5219
    6.675   12.5856
    6.690   12.5118
    6.705   13.4176
    6.720   13.3965
    6.735   12.7646
    6.750   13.5334
    6.765   13.1016
    6.780   12.8173
    6.795   11.5534
    6.810   10.2580
    6.825    9.6472
    6.840    9.3523
    6.855    9.0574
    6.870    8.5729
    6.885    8.7098
    6.900    8.4150
    6.915    8.3939
    6.930    8.6572
    6.945    8.6467
    6.960    8.6361
    6.975    8.3518
    6.990    8.4781
    7.005    8.4360
    7.020    8.3728
    7.035    8.1938
    7.050    8.5308
    7.065    8.8046
    7.080    8.6361
    7.095    8.7941
    7.110    8.2886
    7.125    8.2675
    7.140    7.9726
    7.155    8.4044
    7.170    8.5940
    7.185    8.2991
    7.200    8.5097
    7.215    8.5729
    7.230    8.4992
    7.245    8.0990
    7.260    8.2254
    7.275    8.3623
    7.290    8.6151
    7.305    8.8046
    7.320    8.5413
    7.335    8.6677
    7.350    9.0258
    7.365    8.7730
    7.380    8.4887
    7.395    8.6151
    7.410    8.8889
    7.425    8.5940
    7.440    8.8468
    7.455    8.8046
    7.470    9.3207
    7.485    8.9415
    7.500    8.9310
    7.515    9.2575
    7.530    9.0363
    7.545    9.4365
    7.560    9.4365
    7.575    9.4365
    7.590    9.4471
    7.605    9.6472
    7.620    9.6261
    7.635   10.2686
    7.650    9.8789
    7.665   10.2370
    7.680    9.9737
    7.695   10.1843
    7.710   10.4687
    7.725   10.4160
    7.740   11.0163
    7.755   11.5640
    7.770   12.0169
    7.785   12.3749
    7.800   11.9642
    7.815   11.5745
    7.830   11.2480
    7.845   11.0374
    7.860   10.3949
    7.875    9.8052
    7.890    9.1206
    7.905    8.8468
    7.920    8.8678
    7.935    8.9942
    7.950    8.5203
    7.965    8.9205
    7.980    8.8257
    7.995    8.4887
    8.010    8.6256
    8.025    8.7204
    8.040    8.6151
    8.055    8.5624
    8.070    8.5624
    8.085    8.7309
    8.100    8.2043
    8.115    8.5308
    8.130    8.6467
    8.145    8.6888
    8.160    9.2575
    8.175    8.9415
    8.190    8.4676
    8.205    8.6361
    8.220    8.8994
    8.235    8.5940
    8.250    8.7520
    8.265    8.4781
    8.280    8.8994
    8.295    8.4360
    8.310    8.9626
    8.325    9.0785
    8.340    8.2675
    8.355    8.5097
    8.370    8.6467
    8.385    8.9205
    8.400    8.5519
    8.415    8.7941
    8.430    8.4255
    8.445    8.1095
    8.460    8.6361
    8.475    8.8046
    8.490    8.8994
    8.505    9.2364
    8.520    8.8889
    8.535    8.4992
    8.550    8.7730
    8.565    8.5729
    8.580    8.6993
    8.595    8.9205
    8.610    8.5413
    8.625    8.8994
    8.640    9.0363
    8.655    9.1311
    8.670    9.2786
    8.685    8.9415
    8.700    8.8889
    8.715    9.2786
    8.730    9.1838
    8.745    9.2996
    8.760    9.0785
    8.775    9.0995
    8.790    8.9731
    8.805    8.8362
    8.820    9.0785
    8.835    9.0047
    8.850    8.7204
    8.865    9.1417
    8.880    8.7098
    8.895    9.0258
    8.910    8.5940
    8.925    8.8257
    8.940    8.5729
    8.955    8.9205
    8.970    9.2470
    8.985    8.7414
    9.000    8.9100
    9.015    8.7414
    9.030    8.8784
    9.045    8.8046
    9.060    8.8678
    9.075    8.6361
    9.090    8.7730
    9.105    9.1627
    9.120    9.3102
    9.135    9.4155
    9.150    9.4997
    9.165    9.7420
    9.180    9.4471
    9.195    9.3839
    9.210    9.4155
    9.225    9.2996
    9.240    9.4892
    9.255    9.4365
    9.270    9.4471
    9.285   10.0790
    9.300    9.7420
    9.315   10.0263
    9.330    9.5629
    9.345    9.8157
    9.360   10.2370
    9.375   10.1843
    9.390   10.8268
    9.405   11.2480
    9.420   11.9221
    9.435   12.2380
    9.450   12.5224
    9.465   12.9963
    9.480   12.6698
    9.495   13.4808
    9.510   14.1338
    9.525   15.4502
    9.540   15.7978
    9.555   15.4713
    9.570   14.9447
    9.585   14.7446
    9.600   13.1964
    9.615   12.7751
    9.630   11.5008
    9.645   10.3528
    9.660    9.9737
    9.675    9.4576
    9.690    9.3312
    9.705    9.2680
    9.720    9.4681
    9.735    8.9942
    9.750    9.0258
    9.765    8.8994
    9.780    8.7625
    9.795    8.7836
    9.810    8.8468
    9.825    8.5203
    9.840    8.7730
    9.855    8.9942
    9.870    9.2364
    9.885    9.1943
    9.900    9.1943
    9.915    9.4576
    9.930    8.7836
    9.945    8.9942
    9.960    8.9205
    9.975    8.8468
    9.990    8.7836
   10.005    8.4887
   10.020    9.0574
   10.035    9.1101
   10.050    9.2470
   10.065    9.2154
   10.080    9.2154
   10.095    9.0363
   10.110    9.5629
   10.125    9.4471
   10.140    8.7625
   10.155    9.5945
   10.170    9.7841
   10.185    9.7209
   10.200    9.7630
   10.215    9.7630
   10.230   10.0790
   10.245    9.9421
   10.260   10.2580
   10.275   10.4581
   10.290   11.2059
   10.305   11.1954
   10.320   10.9321
   10.335   11.1848
   10.350   10.6056
   10.365   10.0579
   10.380    9.8262
   10.395    9.2996
   10.410    9.2154
   10.425    9.3312
   10.440    8.7309
   10.455    8.7520
   10.470    8.8994
   10.485    9.0047
   10.500    8.8678
   10.515    9.2364
   10.530    8.8362
   10.545    8.3728
   10.560    8.5624
   10.575    8.6045
   10.590    8.6572
   10.605    8.8152
   10.620    8.5940
   10.635    8.8573
   10.650    8.6572
   10.665    8.6572
   10.680    8.5308
   10.695    8.5624
   10.710    8.5519
   10.725    8.5729
   10.740    8.7625
   10.755    9.2680
   10.770    9.0785
   10.785    9.0047
   10.800    8.5203
   10.815    8.6993
   10.830    8.9205
   10.845    8.9100
   10.860    8.9837
   10.875    9.1943
   10.890    9.4471
   10.905    9.0995
   10.920    9.3839
   10.935    9.5313
   10.950    9.5840
   10.965   10.0369
   10.980   10.1211
   10.995   10.5635
   11.010   10.4476
   11.025   10.7320
   11.040   11.0479
   11.055   10.6898
   11.070   10.4371
   11.085   10.1843
   11.100    9.8473
   11.115    9.4997
   11.130    8.9837
   11.145    8.4571
   11.160    9.0258
   11.175    9.2154
   11.190    8.8362
   11.205    8.5413
   11.220    8.9100
   11.235    9.2575
   11.250    8.5308
   11.265    8.9100
   11.280    8.8468
   11.295    8.5308
   11.310    8.4044
   11.325    8.7204
   11.340    8.7941
   11.355    8.5097
   11.370    8.2675
   11.385    8.5413
   11.400    8.5308
   11.415    8.0569
   11.430    8.4781
   11.445    8.5940
   11.460    8.7520
   11.475    9.0363
   11.490    9.1311
   11.505    8.5729
   11.520    8.5940
   11.535    9.1522
   11.550    9.0258
   11.565    9.1943
   11.580    9.4260
   11.595    9.4997
   11.610    9.4050
   11.625    9.5103
   11.640   10.4687
   11.655   10.1632
   11.670   10.6898
   11.685    9.9631
   11.700   10.2370
   11.715   10.9110
   11.730   10.6793
   11.745   10.6898
   11.760   10.4792
   11.775    9.1943
   11.790    9.0469
   11.805    8.8257
   11.820    8.7414
   11.835    8.5624
   11.850    8.6888
   11.865    8.5413
   11.880    8.0990
   11.895    7.8778
   11.910    8.0358
   11.925    8.0990
   11.940    8.2570
   11.955    8.0674
   11.970    8.3307
   11.985    8.6045
   12.000    8.3834
   12.015    8.3518
   12.030    8.4781
   12.045    8.1201
   12.060    8.1517
   12.075    8.0253
   12.090    8.1411
   12.105    8.1306
   12.120    8.4150
   12.135    7.7093
   12.150    7.9516
   12.165    8.0042
   12.180    8.1727
   12.195    8.2780
   12.210    8.1306
   12.225    8.0779
   12.240    8.3202
   12.255    8.5308
   12.270    8.3202
   12.285    7.7093
   12.300    7.9937
   12.315    8.0569
   12.330    8.2464
   12.345    8.4781
   12.360    8.3939
   12.375    8.0885
   12.390    7.9305
   12.405    7.9621
   12.420    8.2464
   12.435    8.0253
   12.450    7.9937
   12.465    8.2780
   12.480    7.8252
   12.495    7.7620
   12.510    8.1938
   12.525    7.8146
   12.540    7.7093
   12.555    7.7093
   12.570    7.6356
   12.585    7.7199
   12.600    7.5408
   12.615    7.3828
   12.630    7.8041
   12.645    8.5097
   12.660    7.7409
   12.675    8.0358
   12.690    7.8252
   12.705    7.8252
   12.720    7.9621
   12.735    7.8462
   12.750    7.7936
   12.765    8.0885
   12.780    8.1622
   12.795    7.9726
   12.810    8.2254
   12.825    8.1306
   12.840    8.1517
   12.855    8.5203
   12.870    8.5413
   12.885    8.9415
   12.900    9.1943
   12.915    9.4471
   12.930    8.7625
   12.945    8.8046
   12.960    9.4365
   12.975    9.4155
   12.990    9.1206
   13.005    8.6572
   13.020    8.5624
   13.035    8.1306
   13.050    8.3202
   13.065    7.8252
   13.080    7.9831
   13.095    7.9831
   13.110    7.8989
   13.125    7.4250
   13.140    7.8357
   13.155    7.9200
   13.170    7.7093
   13.185    7.7409
   13.200    7.5092
   13.215    7.9200
   13.230    8.1833
   13.245    8.1095
   13.260    8.0885
   13.275    7.8568
   13.290    8.0674
   13.305    8.2254
   13.320    7.7093
   13.335    7.8252
   13.350    7.9094
   13.365    8.0147
   13.380    7.4250
   13.395    8.1306
   13.410    8.1517
   13.425    8.5203
   13.440    8.3623
   13.455    8.3202
   13.470    8.2991
   13.485    8.1833
   13.500    8.1622
   13.515    7.9200
   13.530    8.0253
   13.545    8.5097
   13.560    8.2149
   13.575    8.0358
   13.590    8.0990
   13.605    8.1201
   13.620    7.9831
   13.635    7.9200
   13.650    8.0463
   13.665    8.1201
   13.680    7.5935
   13.695    8.2464
   13.710    7.8989
   13.725    7.5619
   13.740    7.4776
   13.755    7.8357
   13.770    7.4566
   13.785    7.7936
   13.800    7.4882
   13.815    7.8462
   13.830    7.7725
   13.845    7.9516
   13.860    7.8884
   13.875    7.6988
   13.890    7.9305
   13.905    7.9200
   13.920    8.1938
   13.935    7.9831
   13.950    8.0990
   13.965    8.0885
   13.980    7.9937
   13.995    8.4255
   14.010    8.1306
   14.025    8.4781
   14.040    8.3623
   14.055    8.9100
   14.070    9.0679
   14.085    9.0574
   14.100    8.9205
   14.115    8.9942
   14.130    8.7309
   14.145    8.5940
   14.160    8.0779
   14.175    8.2254
   14.190    8.1938
   14.205    8.4992
   14.220    8.0147
   14.235    8.1201
   14.250    8.0674
   14.265    8.1306
   14.280    8.0253
   14.295    8.1833
   14.310    8.0463
   14.325    7.3723
   14.340    7.2986
   14.355    7.6145
   14.370    7.8989
   14.385    8.1727
   14.400    7.6988
   14.415    7.7304
   14.430    7.8884
   14.445    7.7830
   14.460    7.6145
   14.475    7.6040
   14.490    7.7199
   14.505    7.6883
   14.520    7.7304
   14.535    7.5724
   14.550    7.9831
   14.565    7.7514
   14.580    7.3618
   14.595    7.5619
   14.610    7.1406
   14.625    7.6777
   14.640    7.7304
   14.655    7.7409
   14.670    7.2880
   14.685    7.4039
   14.700    7.5303
   14.715    7.7093
   14.730    7.4776
   14.745    7.8041
   14.760    8.0358
   14.775    7.7830
   14.790    7.7830
   14.805    8.0779
   14.820    7.4250
   14.835    7.4250
   14.850    7.6251
   14.865    7.6145
   14.880    7.3723
   14.895    7.5724
   14.910    8.0990
   14.925    8.0779
   14.940    7.9410
   14.955    7.7936
   14.970    7.4144
   14.985    7.4566
   15.000    7.6461
   15.015    7.5303
   15.030    8.0885
   15.045    7.7514
   15.060    7.9831
   15.075    7.6567
   15.090    7.4355
   15.105    7.8357
   15.120    8.4676
   15.135    7.9200
   15.150    7.3934
   15.165    7.7199
   15.180    7.7830
   15.195    7.8041
   15.210    7.5935
   15.225    7.7514
   15.240    7.8252
   15.255    7.5935
   15.270    7.7620
   15.285    7.8357
   15.300    7.6988
   15.315    7.8568
   15.330    8.1201
   15.345    7.2459
   15.360    7.4355
   15.375    7.8252
   15.390    7.5829
   15.405    7.9200
   15.420    7.6567
   15.435    7.8568
   15.450    7.7304
   15.465    7.5197
   15.480    7.8568
   15.495    7.9726
   15.510    7.5724
   15.525    7.6145
   15.540    7.5829
   15.555    7.5197
   15.570    7.4460
   15.585    7.2565
   15.600    7.7514
   15.615    7.6672
   15.630    7.4566
   15.645    7.6672
   15.660    7.9094
   15.675    7.6777
   15.690    7.4987
   15.705    7.8673
   15.720    7.7725
   15.735    7.8146
   15.750    7.5724
   15.765    7.6672
   15.780    7.6988
   15.795    7.8041
   15.810    8.0569
   15.825    7.4987
   15.840    8.0463
   15.855    8.0042
   15.870    7.9937
   15.885    7.5619
   15.900    7.6777
   15.915    7.4882
   15.930    7.8884
   15.945    7.4566
   15.960    7.7514
   15.975    7.6461
   15.990    7.6777
   16.005    7.7093
   16.020    7.5513
   16.035    7.8884
   16.050    8.0569
   16.065    8.0358
   16.080    8.4992
   16.095    8.3096
   16.110    8.0779
   16.125    8.3307
   16.140    8.4466
   16.155    8.4360
   16.170    8.1622
   16.185    7.8568
   16.200    7.8462
   16.215    7.9937
   16.230    7.9726
   16.245    8.4571
   16.260    7.7409
   16.275    7.7725
   16.290    7.8357
   16.305    7.5829
   16.320    8.1201
   16.335    8.5097
   16.350    8.3307
   16.365    7.8778
   16.380    7.3723
   16.395    7.7514
   16.410    7.5619
   16.425    7.8673
   16.440    7.8041
   16.455    7.7725
   16.470    7.8884
   16.485    7.9200
   16.500    8.0253
   16.515    8.0253
   16.530    7.9621
   16.545    8.3834
   16.560    8.0147
   16.575    8.1938
   16.590    8.3834
   16.605    8.4044
   16.620    8.4044
   16.635    8.3096
   16.650    8.2675
   16.665    7.7936
   16.680    7.9094
   16.695    8.1833
   16.710    8.1201
   16.725    7.9094
   16.740    7.8357
   16.755    7.8568
   16.770    7.5092
   16.785    7.5303
   16.800    7.5197
   16.815    7.9305
   16.830    8.3096
   16.845    8.2254
   16.860    8.1411
   16.875    8.0674
   16.890    7.8568
   16.905    7.5829
   16.920    7.7199
   16.935    7.8041
   16.950    8.0463
   16.965    7.8673
   16.980    8.0779
   16.995    8.4992
   17.010    8.6888
   17.025    8.3412
   17.040    8.3307
   17.055    8.9415
   17.070    8.8468
   17.085    8.5940
   17.100    8.6361
   17.115    8.5519
   17.130    8.2780
   17.145    8.0674
   17.160    7.9937
   17.175    7.8462
   17.190    7.8989
   17.205    7.8357
   17.220    7.8462
   17.235    8.1727
   17.250    8.0253
   17.265    7.9516
   17.280    7.9937
   17.295    7.8673
   17.310    7.6040
   17.325    8.0674
   17.340    7.6461
   17.355    7.7093
   17.370    7.6356
   17.385    7.7620
   17.400    7.9410
   17.415    7.8989
   17.430    8.0990
   17.445    7.9410
   17.460    7.9200
   17.475    7.7620
   17.490    8.2464
   17.505    7.8041
   17.520    8.1517
   17.535    8.3307
   17.550    7.8357
   17.565    7.6988
   17.580    7.8252
   17.595    7.8568
   17.610    7.6356
   17.625    7.7620
   17.640    7.7936
   17.655    7.7936
   17.670    7.6988
   17.685    7.6145
   17.700    8.1306
   17.715    8.0674
   17.730    7.8778
   17.745    7.5092
   17.760    7.8989
   17.775    7.5303
   17.790    7.8778
   17.805    7.7304
   17.820    7.9094
   17.835    7.7304
   17.850    7.5303
   17.865    7.4987
   17.880    7.6567
   17.895    7.5513
   17.910    8.0358
   17.925    7.9726
   17.940    7.8041
   17.955    7.7304
   17.970    7.8462
   17.985    7.7409
   18.000    7.9305
   18.015    7.5829
   18.030    7.6461
   18.045    7.6145
   18.060    8.0569
   18.075    7.8568
   18.090    7.5092
   18.105    7.7936
   18.120    8.1411
   18.135    7.7514
   18.150    7.5303
   18.165    7.7409
   18.180    7.9094
   18.195    7.7409
   18.210    7.7304
   18.225    7.6040
   18.240    7.8673
   18.255    7.9831
   18.270    7.5724
   18.285    7.7409
   18.300    7.6461
   18.315    7.8252
   18.330    7.5513
   18.345    7.8673
   18.360    8.0674
   18.375    8.0463
   18.390    7.9937
   18.405    7.7304
   18.420    7.8252
   18.435    7.9621
   18.450    7.9410
   18.465    8.2043
   18.480    8.1306
   18.495    7.7514
   18.510    8.0990
   18.525    7.5303
   18.540    7.5724
   18.555    7.4039
   18.570    7.8041
   18.585    8.5308
   18.600    8.4044
   18.615    7.9305
   18.630    7.8568
   18.645    7.7725
   18.660    7.5408
   18.675    7.7514
   18.690    7.7409
   18.705    7.6040
   18.720    7.6040
   18.735    7.6567
   18.750    8.1095
   18.765    7.6988
   18.780    7.8989
   18.795    7.7304
   18.810    7.9305
   18.825    7.9200
   18.840    8.2675
   18.855    8.2149
   18.870    8.1411
   18.885    8.2991
   18.900    8.3412
   18.915    7.8673
   18.930    8.2254
   18.945    8.3096
   18.960    9.0679
   18.975    9.1206
   18.990    9.1627
   19.005    9.3523
   19.020    9.1943
   19.035    9.1311
   19.050    8.1517
   19.065    8.1517
   19.080    8.0569
   19.095    8.0358
   19.110    8.0253
   19.125    7.9305
   19.140    7.8357
   19.155    7.6883
   19.170    8.0569
   19.185    8.1622
   19.200    8.1095
   19.215    7.9937
   19.230    7.6251
   19.245    7.7830
   19.260    8.0147
   19.275    7.8146
   19.290    7.9094
   19.305    7.7936
   19.320    7.6988
   19.335    7.8778
   19.350    7.6883
   19.365    7.8884
   19.380    7.7304
   19.395    8.3834
   19.410    7.9516
   19.425    7.6883
   19.440    7.6145
   19.455    8.2464
   19.470    8.1622
   19.485    8.0147
   19.500    8.0358
   19.515    8.0779
   19.530    8.0147
   19.545    8.2149
   19.560    8.1201
   19.575    8.1622
   19.590    8.0147
   19.605    8.3096
   19.620    8.1517
   19.635    8.0253
   19.650    8.1517
   19.665    8.1833
   19.680    8.1201
   19.695    7.8041
   19.710    7.9305
   19.725    8.2464
   19.740    7.8252
   19.755    7.7199
   19.770    7.9937
   19.785    8.0885
   19.800    7.7936
   19.815    7.7830
   19.830    7.7830
   19.845    7.5303
   19.860    7.4355
   19.875    7.6461
   19.890    8.2149
   19.905    7.8462
   19.920    7.8041
   19.935    7.5935
   19.950    8.0147
   19.965    7.8778
   19.980    7.6672
   19.995    7.6883
   20.010    8.1306
   20.025    8.0147
   20.040    7.8462
   20.055    8.1095
   20.070    7.8884
   20.085    8.2570
   20.100    7.9937
   20.115    7.8673
   20.130    7.7304
   20.145    8.2254
   20.160    7.8884
   20.175    8.1833
   20.190    7.9621
   20.205    7.6672
   20.220    8.2359
   20.235    8.2886
   20.250    7.9516
   20.265    8.0885
   20.280    8.2149
   20.295    8.2043
   20.310    8.5308
   20.325    8.5835
   20.340    8.7730
   20.355    8.9310
   20.370    8.4150
   20.385    8.8573
   20.400    8.5729
   20.415    8.4992
   20.430    8.1517
   20.445    8.4466
   20.460    8.1938
   20.475    8.2359
   20.490    8.1517
   20.505    8.6572
   20.520    8.4887
   20.535    8.0042
   20.550    7.8252
   20.565    7.9200
   20.580    8.0253
   20.595    8.3412
   20.610    8.1306
   20.625    7.8252
   20.640    7.5935
   20.655    7.8462
   20.670    7.8884
   20.685    8.0885
   20.700    7.9621
   20.715    8.1517
   20.730    8.0358
   20.745    7.6672
   20.760    7.7936
   20.775    8.2464
   20.790    8.0253
   20.805    7.6883
   20.820    7.6883
   20.835    8.0674
   20.850    7.8778
   20.865    7.4039
   20.880    7.7725
   20.895    8.0463
   20.910    7.6567
   20.925    7.7199
   20.940    8.0463
   20.955    7.8146
   20.970    7.9831
   20.985    8.0253
   21.000    7.6040
   21.015    7.8041
   21.030    7.4776
   21.045    7.8041
   21.060    8.3834
   21.075    7.8462
   21.090    7.5619
   21.105    7.9305
   21.120    8.5308
   21.135    7.9726
   21.150    8.3834
   21.165    8.1622
   21.180    8.4571
   21.195    7.8778
   21.210    8.1938
   21.225    8.2991
   21.240    7.8989
   21.255    8.0463
   21.270    8.1622
   21.285    7.8673
   21.300    7.9305
   21.315    8.2464
   21.330    8.5097
   21.345    7.9410
   21.360    8.1517
   21.375    7.6461
   21.390    8.1095
   21.405    8.1727
   21.420    7.8884
   21.435    8.4150
   21.450    7.8568
   21.465    7.7620
   21.480    7.6883
   21.495    7.9516
   21.510    7.7620
   21.525    8.2359
   21.540    7.7830
   21.555    7.7093
   21.570    7.8462
   21.585    7.7093
   21.600    8.3834
   21.615    8.2043
   21.630    8.1833
   21.645    8.1622
   21.660    8.1517
   21.675    8.1938
   21.690    8.1517
   21.705    8.0042
   21.720    7.9200
   21.735    8.1411
   21.750    8.4571
   21.765    8.1622
   21.780    8.4150
   21.795    8.1095
   21.810    7.8884
   21.825    7.9726
   21.840    8.4781
   21.855    8.2359
   21.870    8.1622
   21.885    8.7309
   21.900    8.3518
   21.915    8.2991
   21.930    7.9621
   21.945    8.0779
   21.960    8.1727
   21.975    8.5413
   21.990    8.2886
   22.005    8.1095
   22.020    8.6256
   22.035    8.1938
   22.050    7.9516
   22.065    7.9305
   22.080    8.1411
   22.095    8.3202
   22.110    8.5097
   22.125    7.8568
   22.140    8.4360
   22.155    8.2043
   22.170    8.0147
   22.185    8.2254
   22.200    7.8357
   22.215    8.4360
   22.230    8.1622
   22.245    8.7520
   22.260    8.2570
   22.275    8.6677
   22.290    8.5097
   22.305    8.4044
   22.320    8.1938
   22.335    8.2570
   22.350    8.3412
   22.365    8.0463
   22.380    8.3412
   22.395    8.2570
   22.410    8.1727
   22.425    8.3939
   22.440    8.4466
   22.455    8.5624
   22.470    8.8152
   22.485    8.7204
   22.500    8.9942
   22.515    9.0363
   22.530    8.7730
   22.545    8.6256
   22.560    9.2891
   22.575    8.9837
   22.590    8.4255
   22.605    8.8046
   22.620    8.8889
   22.635    9.0153
   22.650    8.5308
   22.665    8.4781
   22.680    9.0258
   22.695    8.8678
   22.710    8.5097
   22.725    8.0990
   22.740    8.9100
   22.755    8.2254
   22.770    8.3518
   22.785    8.2359
   22.800    8.3939
   22.815    8.3202
   22.830    8.6361
   22.845    8.3939
   22.860    8.7836
   22.875    8.8784
   22.890    8.6467
   22.905    8.6361
   22.920    8.9205
   22.935    9.0258
   22.950    8.8889
   22.965    8.7836
   22.980    8.6888
   22.995    8.7098
   23.010    8.5097
   23.025    8.2149
   23.040    8.5097
   23.055    8.0358
   23.070    8.3834
   23.085    8.4360
   23.100    8.3412
   23.115    8.4150
   23.130    8.6045
   23.145    8.1833
   23.160    8.3202
   23.175    8.4571
   23.190    8.1727
   23.205    8.0990
   23.220    7.9200
   23.235    7.8568
   23.250    8.0253
   23.265    8.3202
   23.280    8.4360
   23.295    8.4992
   23.310    7.9621
   23.325    8.0042
   23.340    7.9831
   23.355    8.2254
   23.370    8.0569
   23.385    7.9621
   23.400    8.0674
   23.415    7.7725
   23.430    8.0358
   23.445    7.5724
   23.460    7.8673
   23.475    8.1201
   23.490    8.0042
   23.505    8.4992
   23.520    7.8568
   23.535    8.2780
   23.550    8.9205
   23.565    8.2254
   23.580    8.5413
   23.595    8.4044
   23.610    8.1727
   23.625    7.8884
   23.640    7.8146
   23.655    7.9094
   23.670    7.8568
   23.685    8.0674
   23.700    7.9516
   23.715    8.1833
   23.730    7.8989
   23.745    7.7725
   23.760    8.0569
   23.775    8.1411
   23.790    8.1517
   23.805    7.9516
   23.820    7.7093
   23.835    8.0674
   23.850    8.2780
   23.865    8.3728
   23.880    7.9094
   23.895    8.0779
   23.910    8.2991
   23.925    8.4676
   23.940    8.2886
   23.955    8.0885
   23.970    7.9200
   23.985    7.9831
   24.000    8.0569
   24.015    8.4571
   24.030    8.0147
   24.045    8.0779
   24.060    8.3412
   24.075    7.9200
   24.090    7.5303
   24.105    8.0990
   24.120    8.1201
   24.135    8.2254
   24.150    7.6251
   24.165    7.4987
   24.180    7.7093
   24.195    7.8568
   24.210    7.6777
   24.225    7.8041
   24.240    7.7093
   24.255    7.6145
   24.270    7.6777
   24.285    7.5513
   24.300    7.7093
   24.315    7.4671
   24.330    7.5197
   24.345    7.5408
   24.360    8.0147
   24.375    8.2254
   24.390    8.1095
   24.405    7.7199
   24.420    7.5513
   24.435    7.7093
   24.450    7.6777
   24.465    8.0042
   24.480    8.0253
   24.495    8.1833
   24.510    7.5092
   24.525    7.6777
   24.540    7.5619
   24.555    7.9305
   24.570    7.7514
   24.585    7.8041
   24.600    7.8568
   24.615    7.7199
   24.630    8.0042
   24.645    7.7620
   24.660    7.6356
   24.675    7.6883
   24.690    7.5513
   24.705    7.5197
   24.720    7.6883
   24.735    7.8252
   24.750    7.9200
   24.765    8.0463
   24.780    7.9621
   24.795    7.8146
   24.810    7.5513
   24.825    7.7830
   24.840    8.2359
   24.855    7.6672
   24.870    7.6251
   24.885    7.7620
   24.900    7.7725
   24.915    7.6251
   24.930    7.6040
   24.945    7.4144
   24.960    8.0253
   24.975    7.6883
   24.990    7.8989
   25.005    8.2570
   25.020    7.9621
   25.035    7.5829
   25.050    7.5935
   25.065    7.9831
   25.080    8.1095
   25.095    7.3407
   25.110    7.8778
   25.125    7.7514
   25.140    7.8568
   25.155    7.8252
   25.170    7.5619
   25.185    7.5408
   25.200    8.0779
   25.215    7.8989
   25.230    7.4987
   25.245    7.6988
   25.260    7.9621
   25.275    8.1833
   25.290    7.5303
   25.305    7.9937
   25.320    7.4460
   25.335    7.3934
   25.350    8.2043
   25.365    7.9305
   25.380    8.1833
   25.395    7.5513
   25.410    7.4671
   25.425    7.8989
   25.440    7.4882
   25.455    7.3407
   25.470    7.8462
   25.485    7.7304
   25.500    7.7409
   25.515    7.6040
   25.530    7.6040
   25.545    7.8989
   25.560    7.7514
   25.575    7.9516
   25.590    7.8673
   25.605    7.4039
   25.620    7.2354
   25.635    7.2143
   25.650    7.8041
   25.665    7.9200
   25.680    8.0253
   25.695    7.6988
   25.710    7.8989
   25.725    7.9094
   25.740    7.7830
   25.755    8.2464
   25.770    8.0990
   25.785    8.3412
   25.800    8.0463
   25.815    7.9726
   25.830    7.8357
   25.845    7.9621
   25.860    7.8778
   25.875    7.8989
   25.890    8.0147
   25.905    7.9305
   25.920    7.9305
   25.935    7.7409
   25.950    7.5303
   25.965    7.6040
   25.980    8.0463
   25.995    8.2254
   26.010    8.1938
   26.025    8.1411
   26.040    7.8673
   26.055    7.6251
   26.070    7.5513
   26.085    7.4039
   26.100    7.9094
   26.115    7.5197
   26.130    7.6988
   26.145    7.3512
   26.160    7.4144
   26.175    7.7199
   26.190    7.7093
   26.205    7.6040
   26.220    7.3407
   26.235    7.6461
   26.250    7.5092
   26.265    7.2775
   26.280    7.6040
   26.295    7.4987
   26.310    7.8462
   26.325    7.3407
   26.340    7.8884
   26.355    7.8884
   26.370    7.6145
   26.385    7.7620
   26.400    7.6988
   26.415    8.1095
   26.430    7.4144
   26.445    7.0774
   26.460    7.5408
   26.475    7.7304
   26.490    7.9305
   26.505    7.5935
   26.520    7.7199
   26.535    7.8252
   26.550    7.8146
   26.565    7.5513
   26.580    7.6040
   26.595    7.6567
   26.610    7.7514
   26.625    7.2354
   26.640    7.1511
   26.655    7.7409
   26.670    7.6883
   26.685    7.5303
   26.700    7.4566
   26.715    7.6251
   26.730    7.9410
   26.745    7.8357
   26.760    7.1511
   26.775    7.4882
   26.790    7.8462
   26.805    7.5829
   26.820    7.2249
   26.835    7.2565
   26.850    6.8562
   26.865    7.2354
   26.880    7.7199
   26.895    7.7304
   26.910    8.0463
   26.925    7.5197
   26.940    7.6356
   26.955    7.3407
   26.970    7.8252
   26.985    7.3934
   27.000    7.8146
   27.015    7.6988
   27.030    7.7830
   27.045    7.5303
   27.060    7.6461
   27.075    7.5092
   27.090    7.5197
   27.105    7.4987
   27.120    7.3934
   27.135    7.2565
   27.150    7.0037
   27.165    7.0458
   27.180    7.1195
   27.195    7.4355
   27.210    7.2775
   27.225    7.5829
   27.240    7.6672
   27.255    7.6251
   27.270    7.9621
   27.285    7.5513
   27.300    7.5197
   27.315    7.2249
   27.330    7.3196
   27.345    7.2249
   27.360    7.2670
   27.375    7.6251
   27.390    7.3723
   27.405    7.6461
   27.420    7.4671
   27.435    7.6672
   27.450    7.1195
   27.465    7.3302
   27.480    7.2143
   27.495    7.8041
   27.510    7.3302
   27.525    8.0569
   27.540    7.3934
   27.555    7.4776
   27.570    7.6777
   27.585    7.9831
   27.600    7.6461
   27.615    7.1827
   27.630    7.4566
   27.645    7.8357
   27.660    7.4566
   27.675    7.6672
   27.690    7.9516
   27.705    7.7830
   27.720    7.2986
   27.735    7.3618
   27.750    7.3091
   27.765    7.2986
   27.780    7.1406
   27.795    7.2670
   27.810    6.9721
   27.825    7.1301
   27.840    7.3618
   27.855    7.1301
   27.870    7.4566
   27.885    7.3618
   27.900    7.4566
   27.915    7.6145
   27.930    7.8989
   27.945    7.8568
   27.960    7.8357
   27.975    7.9831
   27.990    8.0779
   28.005    8.2991
   28.020    8.0779
   28.035    7.9200
   28.050    7.9937
   28.065    7.6777
   28.080    7.4039
   28.095    7.6567
   28.110    8.1306
   28.125    8.0253
   28.140    7.6988
   28.155    7.4039
   28.170    7.7093
   28.185    7.6251
   28.200    7.6461
   28.215    7.5303
   28.230    7.4776
   28.245    7.4460
   28.260    7.5935
   28.275    7.1195
   28.290    7.5513
   28.305    7.4671
   28.320    7.6251
   28.335    7.7199
   28.350    7.8884
   28.365    7.7304
   28.380    7.1406
   28.395    6.9826
   28.410    7.3723
   28.425    7.6461
   28.440    7.6988
   28.455    7.2986
   28.470    7.2038
   28.485    7.0458
   28.500    7.2670
   28.515    7.6145
   28.530    7.1301
   28.545    7.1933
   28.560    7.4671
   28.575    7.1933
   28.590    7.3196
   28.605    7.5935
   28.620    7.4250
   28.635    7.3723
   28.650    6.8878
   28.665    7.1511
   28.680    7.2459
   28.695    7.4460
   28.710    7.4987
   28.725    6.9510
   28.740    7.4250
   28.755    6.8878
   28.770    6.9826
   28.785    7.2143
   28.800    7.0669
   28.815    7.0458
   28.830    7.2670
   28.845    7.4776
   28.860    7.1406
   28.875    7.2880
   28.890    7.4355
   28.905    7.5619
   28.920    7.3302
   28.935    6.9826
   28.950    7.1827
   28.965    7.6567
   28.980    7.5303
   28.995    7.9621
   29.010    7.7409
   29.025    7.7199
   29.040    7.6567
   29.055    7.0985
   29.070    7.0985
   29.085    7.0985
   29.100    7.0142
   29.115    7.3091
   29.130    7.2459
   29.145    7.2354
   29.160    7.3302
   29.175    7.5197
   29.190    6.7299
   29.205    6.9194
   29.220    7.3723
   29.235    7.4671
   29.250    7.7620
   29.265    7.5829
   29.280    7.7725
   29.295    7.4144
   29.310    7.1406
   29.325    6.9405
   29.340    7.3407
   29.355    6.7299
   29.370    6.8562
   29.385    7.3302
   29.400    6.8668
   29.415    7.1090
   29.430    6.9510
   29.445    6.7930
   29.460    7.1933
   29.475    6.9826
   29.490    7.0037
   29.505    6.9932
   29.520    7.4460
   29.535    6.9300
   29.550    6.5929
   29.565    7.0563
   29.580    6.9089
   29.595    7.3934
   29.610    7.0458
   29.625    7.1722
   29.640    6.9405
   29.655    6.5087
   29.670    7.2038
   29.685    7.1406
   29.700    6.7509
   29.715    7.3934
   29.730    7.3407
   29.745    7.0248
   29.760    6.8984
   29.775    6.9510
   29.790    7.2038
   29.805    7.1195
   29.820    7.1933
   29.835    7.3091
   29.850    6.9616
   29.865    7.1195
   29.880    7.2249
   29.895    6.9089
   29.910    6.9932
   29.925    7.2880
   29.940    7.4460
   29.955    6.8668
   29.970    7.1617
   29.985    7.2249
   30.000    6.7404
   30.015    7.2459
   30.030    7.0353
   30.045    7.0142
   30.060    7.1933
   30.075    6.9194
   30.090    6.8141
   30.105    6.8246
   30.120    6.6667
   30.135    6.7193
   30.150    6.7825
   30.165    6.9510
   30.180    6.7720
   30.195    6.9826
   30.210    7.1827
   30.225    7.0248
   30.240    7.2986
   30.255    7.2986
   30.270    7.2670
   30.285    7.1090
   30.300    7.1933
   30.315    7.1827
   30.330    7.1195
   30.345    6.9932
   30.360    7.0669
   30.375    7.1301
   30.390    6.6667
   30.405    7.0037
   30.420    6.9721
   30.435    7.2249
   30.450    7.0879
   30.465    6.9405
   30.480    6.8984
   30.495    6.7404
   30.510    6.7615
   30.525    6.9300
   30.540    7.1090
   30.555    7.1090
   30.570    7.5408
   30.585    6.9616
   30.600    6.9826
   30.615    6.7193
   30.630    7.2038
   30.645    6.9721
   30.660    6.5719
   30.675    6.9300
   30.690    6.8036
   30.705    7.1722
   30.720    7.2143
   30.735    7.0774
   30.750    7.3512
   30.765    7.5303
   30.780    6.9089
   30.795    6.8352
   30.810    7.0774
   30.825    7.0353
   30.840    6.9405
   30.855    6.7930
   30.870    6.7088
   30.885    6.6561
   30.900    6.7615
   30.915    6.7299
   30.930    6.9616
   30.945    7.0669
   30.960    6.7404
   30.975    6.6877
   30.990    7.2565
   31.005    6.9510
   31.020    6.4350
   31.035    6.8562
   31.050    6.8246
   31.065    6.7088
   31.080    6.4560
   31.095    6.6035
   31.110    6.6351
   31.125    6.8668
   31.140    6.5403
   31.155    6.9405
   31.170    6.7193
   31.185    6.6351
   31.200    6.6140
   31.215    7.0563
   31.230    6.8984
   31.245    6.6772
   31.260    6.6035
   31.275    6.5824
   31.290    6.6245
   31.305    6.5403
   31.320    6.6772
   31.335    6.5824
   31.350    6.8984
   31.365    6.7615
   31.380    6.7404
   31.395    7.2354
   31.410    6.9721
   31.425    7.1301
   31.440    6.7404
   31.455    6.9826
   31.470    6.8878
   31.485    6.6983
   31.500    7.2565
   31.515    6.9089
   31.530    6.6140
   31.545    7.0985
   31.560    6.6561
   31.575    6.7404
   31.590    6.4244
   31.605    6.7615
   31.620    6.7509
   31.635    6.7720
   31.650    6.5929
   31.665    6.6035
   31.680    6.8878
   31.695    6.9721
   31.710    7.1406
   31.725    7.2143
   31.740    7.0353
   31.755    7.2143
   31.770    7.1406
   31.785    6.7088
   31.800    7.0037
   31.815    6.7825
   31.830    6.7615
   31.845    7.2775
   31.860    6.9932
   31.875    7.1722
   31.890    6.9932
   31.905    7.0458
   31.920    6.8457
   31.935    6.6772
   31.950    6.9510
   31.965    7.2775
   31.980    7.0985
   31.995    7.3196
   32.010    7.6461
   32.025    7.9516
   32.040    7.5513
   32.055    7.8568
   32.070    8.1411
   32.085    7.8146
   32.100    8.1095
   32.115    7.9726
   32.130    8.0042
   32.145    7.7620
   32.160    7.6672
   32.175    7.4987
   32.190    7.5935
   32.205    7.2354
   32.220    6.9300
   32.235    7.3091
   32.250    6.4455
   32.265    6.7299
   32.280    6.7509
   32.295    6.5087
   32.310    6.6667
   32.325    6.2665
   32.340    6.3296
   32.355    6.6877
   32.370    6.6772
   32.385    6.5719
   32.400    7.1511
   32.415    6.6877
   32.430    6.9616
   32.445    6.4876
   32.460    6.2243
   32.475    6.7404
   32.490    6.7825
   32.505    6.4771
   32.520    6.7720
   32.535    6.8878
   32.550    6.9826
   32.565    6.0453
   32.580    6.3507
   32.595    6.6035
   32.610    6.6351
   32.625    6.7088
   32.640    6.6035
   32.655    6.4455
   32.670    6.5613
   32.685    6.7615
   32.700    6.3718
   32.715    6.3823
   32.730    6.8668
   32.745    6.9405
   32.760    6.5719
   32.775    6.4350
   32.790    6.6667
   32.805    6.5508
   32.820    6.5929
   32.835    6.8141
   32.850    6.3402
   32.865    6.5613
   32.880    6.7193
   32.895    6.5824
   32.910    6.5192
   32.925    6.4982
   32.940    6.8773
   32.955    7.1301
   32.970    6.6561
   32.985    6.7720
   33.000    6.8984
   33.015    6.9194
   33.030    6.3823
   33.045    6.6561
   33.060    6.5929
   33.075    6.4771
   33.090    6.5613
   33.105    6.5192
   33.120    6.2243
   33.135    6.4771
   33.150    6.4455
   33.165    6.6140
   33.180    6.3402
   33.195    6.2138
   33.210    6.5403
   33.225    6.4455
   33.240    6.4244
   33.255    6.4244
   33.270    6.3718
   33.285    6.6245
   33.300    6.6456
   33.315    6.7509
   33.330    6.0874
   33.345    6.2349
   33.360    6.4455
   33.375    6.4350
   33.390    6.7193
   33.405    6.5298
   33.420    6.4982
   33.435    6.2559
   33.450    6.2243
   33.465    6.3507
   33.480    6.2243
   33.495    6.4034
   33.510    6.0664
   33.525    6.4139
   33.540    6.3296
   33.555    6.3191
   33.570    6.3191
   33.585    6.1401
   33.600    6.2138
   33.615    6.2981
   33.630    6.7720
   33.645    6.5298
   33.660    6.7193
   33.675    6.6456
   33.690    6.5719
   33.705    6.6877
   33.720    6.7404
   33.735    6.4455
   33.750    6.9089
   33.765    6.4876
   33.780    7.2986
   33.795    7.3828
   33.810    7.0037
   33.825    7.4987
   33.840    7.0879
   33.855    6.8984
   33.870    7.3196
   33.885    7.0985
   33.900    7.0037
   33.915    7.1827
   33.930    6.8668
   33.945    7.0353
   33.960    7.1195
   33.975    6.7825
   33.990    6.7930
   34.005    7.2880
   34.020    7.0248
   34.035    6.8562
   34.050    6.7404
   34.065    6.1295
   34.080    6.1401
   34.095    6.4034
   34.110    5.9926
   34.125    6.0137
   34.140    6.4139
   34.155    6.4350
   34.170    6.4771
   34.185    6.0664
   34.200    6.6035
   34.215    6.5929
   34.230    6.5508
   34.245    6.2454
   34.260    6.4455
   34.275    6.5192
   34.290    6.5087
   34.305    6.4350
   34.320    6.4876
   34.335    6.4982
   34.350    6.5824
   34.365    6.2770
   34.380    6.5613
   34.395    6.4139
   34.410    6.3612
   34.425    6.3086
   34.440    6.3296
   34.455    6.6351
   34.470    6.5613
   34.485    6.4139
   34.500    6.4350
   34.515    6.4350
   34.530    6.3823
   34.545    6.3191
   34.560    6.5192
   34.575    6.2665
   34.590    6.3086
   34.605    6.2875
   34.620    6.0453
   34.635    6.4876
   34.650    6.5087
   34.665    6.4560
   34.680    6.3402
   34.695    6.3612
   34.710    6.3823
   34.725    5.9926
   34.740    6.0137
   34.755    6.3718
   34.770    6.3191
   34.785    6.4666
   34.800    6.0453
   34.815    6.1506
   34.830    6.2243
   34.845    6.6983
   34.860    6.3718
   34.875    6.5298
   34.890    6.0664
   34.905    6.5403
   34.920    6.4350
   34.935    6.1927
   34.950    6.0874
   34.965    6.5929
   34.980    6.3296
   34.995    6.4455
   35.010    6.4560
   35.025    6.3823
   35.040    6.6456
   35.055    6.9616
   35.070    6.0769
   35.085    6.4139
   35.100    6.3612
   35.115    6.4244
   35.130    6.2875
   35.145    6.2033
   35.160    6.3086
   35.175    6.4982
   35.190    6.0137
   35.205    6.4876
   35.220    6.2454
   35.235    6.3402
   35.250    6.2138
   35.265    6.2243
   35.280    6.5192
   35.295    6.5087
   35.310    6.1717
   35.325    6.1717
   35.340    6.2454
   35.355    6.2349
   35.370    6.1506
   35.385    6.1611
   35.400    6.2243
   35.415    6.1611
   35.430    6.5087
   35.445    6.3823
   35.460    6.3191
   35.475    6.5824
   35.490    6.3191
   35.505    6.0979
   35.520    5.9716
   35.535    6.0137
   35.550    6.2243
   35.565    6.1295
   35.580    6.3191
   35.595    6.6351
   35.610    6.4666
   35.625    6.3823
   35.640    6.0137
   35.655    5.8662
   35.670    5.8978
   35.685    6.2665
   35.700    6.2770
   35.715    6.0032
   35.730    6.0769
   35.745    6.0137
   35.760    6.1506
   35.775    6.4350
   35.790    6.2665
   35.805    6.3507
   35.820    6.1401
   35.835    6.3402
   35.850    6.1401
   35.865    6.0979
   35.880    5.7715
   35.895    6.2454
   35.910    6.1506
   35.925    6.4666
   35.940    6.6667
   35.955    6.2875
   35.970    6.2665
   35.985    6.1927
   36.000    6.0664
   36.015    6.2665
   36.030    6.4034
   36.045    6.4982
   36.060    5.9189
   36.075    6.1190
   36.090    6.0453
   36.105    6.1611
   36.120    5.8978
   36.135    6.2138
   36.150    6.2559
   36.165    6.1190
   36.180    6.4350
   36.195    6.5929
   36.210    6.1717
   36.225    6.4244
   36.240    6.4350
   36.255    6.2454
   36.270    5.7293
   36.285    6.1506
   36.300    6.0453
   36.315    6.2243
   36.330    5.9189
   36.345    6.0769
   36.360    6.0558
   36.375    6.3612
   36.390    6.0874
   36.405    5.7083
   36.420    6.4560
   36.435    6.2454
   36.450    5.8978
   36.465    6.2770
   36.480    5.9294
   36.495    6.1822
   36.510    6.2559
   36.525    5.9926
   36.540    6.1927
   36.555    5.9926
   36.570    6.4771
   36.585    6.4455
   36.600    6.0979
   36.615    6.1085
   36.630    6.2875
   36.645    5.9821
   36.660    5.9716
   36.675    5.7820
   36.690    5.9189
   36.705    6.2033
   36.720    6.5087
   36.735    6.3296
   36.750    6.6351
   36.765    6.0348
   36.780    5.9084
   36.795    5.9610
   36.810    6.2559
   36.825    6.5824
   36.840    6.1295
   36.855    6.1085
   36.870    5.8136
   36.885    6.2243
   36.900    6.2665
   36.915    6.2454
   36.930    6.0664
   36.945    5.9821
   36.960    5.8768
   36.975    5.8031
   36.990    5.7399
   37.005    5.5187
   37.020    6.2349
   37.035    6.1401
   37.050    6.0348
   37.065    5.9610
   37.080    6.4455
   37.095    5.8241
   37.110    5.6872
   37.125    5.9926
   37.140    5.9926
   37.155    6.5613
   37.170    6.2033
   37.185    6.1295
   37.200    6.2665
   37.215    6.1295
   37.230    6.0453
   37.245    6.0979
   37.260    6.2875
   37.275    6.1927
   37.290    6.1506
   37.305    6.3296
   37.320    6.1717
   37.335    6.1190
   37.350    5.8978
   37.365    6.2559
   37.380    6.0242
   37.395    5.9821
   37.410    6.0558
   37.425    5.8873
   37.440    6.0664
   37.455    6.0769
   37.470    6.0769
   37.485    6.0979
   37.500    6.2770
   37.515    6.2243
   37.530    6.3191
   37.545    6.0769
   37.560    6.0137
   37.575    6.1927
   37.590    6.2138
   37.605    6.2875
   37.620    6.0874
   37.635    6.0032
   37.650    6.2033
   37.665    6.0348
   37.680    6.2665
   37.695    6.4982
   37.710    6.5613
   37.725    6.4350
   37.740    6.3086
   37.755    6.1717
   37.770    6.1295
   37.785    5.9610
   37.800    6.0453
   37.815    5.9505
   37.830    5.9716
   37.845    5.9716
   37.860    6.0453
   37.875    5.8662
   37.890    6.0874
   37.905    6.0769
   37.920    5.9716
   37.935    6.3402
   37.950    6.4350
   37.965    6.1611
   37.980    5.6451
   37.995    6.2454
   38.010    6.2243
   38.025    5.8768
   38.040    6.0664
   38.055    6.2349
   38.070    6.0558
   38.085    6.0137
   38.100    6.1506
   38.115    6.0769
   38.130    6.2138
   38.145    5.9821
   38.160    6.1927
   38.175    5.9505
   38.190    6.1295
   38.205    5.8241
   38.220    5.9084
   38.235    5.9084
   38.250    5.8768
   38.265    5.9084
   38.280    5.7715
   38.295    6.0348
   38.310    6.1506
   38.325    6.3191
   38.340    6.1506
   38.355    6.0874
   38.370    6.2138
   38.385    6.0664
   38.400    6.2138
   38.415    6.4034
   38.430    6.3823
   38.445    5.8662
   38.460    6.2349
   38.475    6.5613
   38.490    6.1190
   38.505    6.2559
   38.520    6.1822
   38.535    6.2454
   38.550    6.4244
   38.565    6.4771
   38.580    6.5403
   38.595    6.4876
   38.610    6.4560
   38.625    6.2981
   38.640    6.2138
   38.655    6.4666
   38.670    6.4666
   38.685    6.5824
   38.700    6.4771
   38.715    5.9294
   38.730    5.8136
   38.745    6.3402
   38.760    6.1611
   38.775    6.4560
   38.790    5.8347
   38.805    5.9821
   38.820    5.9716
   38.835    5.7820
   38.850    5.9400
   38.865    6.2349
   38.880    6.1295
   38.895    6.1611
   38.910    6.4350
   38.925    6.1190
   38.940    6.2243
   38.955    6.2454
   38.970    6.2665
   38.985    6.0453
   39.000    5.9610
   39.015    5.9716
   39.030    6.2770
   39.045    5.6556
   39.060    5.7925
   39.075    6.2770
   39.090    6.4455
   39.105    6.1506
   39.120    6.2349
   39.135    6.2033
   39.150    6.0453
   39.165    5.8978
   39.180    6.1190
   39.195    6.4560
   39.210    5.9294
   39.225    6.1506
   39.240    6.1506
   39.255    5.8347
   39.270    6.2349
   39.285    6.3823
   39.300    6.1717
   39.315    5.9505
   39.330    6.5087
   39.345    6.2033
   39.360    6.2665
   39.375    6.0664
   39.390    6.2981
   39.405    6.2770
   39.420    6.1295
   39.435    5.8873
   39.450    5.7188
   39.465    6.2770
   39.480    5.9400
   39.495    5.9926
   39.510    6.1611
   39.525    6.1506
   39.540    6.2349
   39.555    5.8768
   39.570    6.0664
   39.585    5.8873
   39.600    5.8031
   39.615    5.5187
   39.630    6.3086
   39.645    6.0874
   39.660    5.9926
   39.675    6.1401
   39.690    6.1190
   39.705    5.7820
   39.720    6.1085
   39.735    6.2349
   39.750    6.3718
   39.765    6.0664
   39.780    6.2349
   39.795    6.0558
   39.810    6.0032
   39.825    6.0453
   39.840    5.6661
   39.855    5.8452
   39.870    5.7925
   39.885    5.8241
   39.900    5.8136
   39.915    5.7609
   39.930    5.5082
   39.945    6.5192
   39.960    6.0979
   39.975    5.8136
   39.990    6.0453
