    1.500   16.7667
    1.515   16.9984
    1.530   16.5456
    1.545   16.2717
    1.560   16.5666
    1.575   16.4086
    1.590   15.9031
    1.605   15.7662
    1.620   16.1980
    1.635   16.6614
    1.650   14.9447
    1.665   14.8710
    1.680   15.1975
    1.695   15.1343
    1.710   15.5556
    1.725   15.1764
    1.740   14.8394
    1.755   14.8710
    1.770   14.5972
    1.785   14.5550
    1.800   14.3971
    1.815   13.8494
    1.830   13.9231
    1.845   13.9652
    1.860   14.1443
    1.875   13.9231
    1.890   13.6598
    1.905   13.5124
    1.920   13.7335
    1.935   13.1754
    1.950   12.5540
    1.965   12.4065
    1.980   12.8383
    1.995   12.2591
    2.010   12.5856
    2.025   12.4803
    2.040   12.2064
    2.055   12.6804
    2.070   11.9221
    2.085   11.9537
    2.100   11.7746
    2.115   11.5956
    2.130   11.4376
    2.145   11.5745
    2.160   11.1638
    2.175   11.1322
    2.190   11.3533
    2.205   11.2270
    2.220   10.8689
    2.235   11.1532
    2.250   10.8899
    2.265   10.6056
    2.280   10.3739
    2.295   10.5951
    2.310   10.5108
    2.325   10.2264
    2.340   10.4371
    2.355   10.0263
    2.370    9.8999
    2.385   10.0579
    2.400   10.0790
    2.415    9.9842
    2.430    9.9210
    2.445    9.8684
    2.460    9.6051
    2.475    9.8999
    2.490    9.3207
    2.505    9.3944
    2.520    9.4576
    2.535    9.2891
    2.550    9.4681
    2.565    9.1627
    2.580    8.9626
    2.595    8.7204
    2.610    8.8994
    2.625    8.5729
    2.640    8.5729
    2.655    9.0153
    2.670    8.8468
    2.685    8.8994
    2.700    8.6256
    2.715    8.3096
    2.730    8.2780
    2.745    8.4992
    2.760    8.4360
    2.775    8.2886
    2.790    8.1095
    2.805    7.8884
    2.820    7.8673
    2.835    8.1411
    2.850    8.1306
    2.865    7.9200
    2.880    7.8357
    2.895    7.8252
    2.910    7.9831
    2.925    7.8357
    2.940    7.6672
    2.955    7.5935
    2.970    7.4776
    2.985    7.5092
    3.000    7.4250
    3.015    7.5935
    3.030    7.3302
    3.045    7.1301
    3.060    7.0458
    3.075    7.2986
    3.090    7.1511
    3.105    7.5197
    3.120    7.2565
    3.135    7.2354
    3.150    7.0353
    3.165    7.1406
    3.180    6.8668
    3.195    6.6772
    3.210    7.3302
    3.225    6.9721
    3.240    7.0353
    3.255    6.4666
    3.270    6.4982
    3.285    6.5508
    3.300    6.5403
    3.315    6.4244
    3.330    6.7720
    3.345    6.5192
    3.360    6.3928
    3.375    6.6667
    3.390    6.3507
    3.405    6.3718
    3.420    6.2981
    3.435    6.2875
    3.450    6.4666
    3.465    6.8141
    3.480    6.5929
    3.495    6.5824
    3.510    6.8878
    3.525    6.6245
    3.540    6.1401
    3.555    5.9716
    3.570    6.2981
    3.585    5.9610
    3.600    5.8557
    3.615    6.0769
    3.630    6.0137
    3.645    5.7609
    3.660    5.9716
    3.675    6.4560
    3.690    6.1927
    3.705    6.0453
    3.720    6.0453
    3.735    5.8347
    3.750    5.8557
    3.765    5.8662
    3.780    6.0558
    3.795    6.0558
    3.810    5.9821
    3.825    5.9926
    3.840    5.7188
    3.855    5.8873
    3.870    6.2243
    3.885    6.0137
    3.900    5.9610
    3.915    5.8557
    3.930    5.5187
    3.945    5.8347
    3.960    5.5714
    3.975    5.8136
    3.990    5.6556
    4.005    5.7399
    4.020    6.0769
    4.035    5.7820
    4.050    5.2449
    4.065    5.7399
    4.080    6.1401
    4.095    5.7925
    4.110    5.4660
    4.125    5.7504
    4.140    5.7188
    4.155    5.6451
    4.170    5.0237
    4.185    5.5398
    4.200    5.9189
    4.215    5.9189
    4.230    5.9926
    4.245    5.3186
    4.260    5.6029
    4.275    5.5398
    4.290    5.6029
    4.305    5.4450
    4.320    5.7715
    4.335    5.4871
    4.350    5.5398
    4.365    4.9184
    4.380    5.5819
    4.395    5.6977
    4.410    5.2554
    4.425    5.2343
    4.440    5.4028
    4.455    5.1711
    4.470    5.2659
    4.485    5.2133
    4.500    5.0974
    4.515    4.9394
    4.530    5.2343
    4.545    5.5292
    4.560    5.0342
    4.575    5.1290
    4.590    5.4555
    4.605    5.4134
    4.620    5.5292
    4.635    5.1501
    4.650    5.1817
    4.665    5.2870
    4.680    5.2449
    4.695    5.3607
    4.710    5.3397
    4.725    5.3186
    4.740    5.4134
    4.755    5.2659
    4.770    5.0132
    4.785    5.0342
    4.800    5.1606
    4.815    5.6556
    4.830    5.7293
    4.845    5.5082
    4.860    5.1501
    4.875    5.1395
    4.890    5.2659
    4.905    4.8025
    4.920    5.0237
    4.935    5.0869
    4.950    5.0026
    4.965    4.8025
    4.980    4.9289
    4.995    4.7499
    5.010    5.1711
    5.025    5.0974
    5.040    5.0974
    5.055    4.6761
    5.070    5.0026
    5.085    5.0026
    5.100    4.9394
    5.115    5.3607
    5.130    4.9289
    5.145    5.1501
    5.160    5.2659
    5.175    5.1080
    5.190    4.8131
    5.205    5.1080
    5.220    4.6867
    5.235    4.6551
    5.250    4.7920
    5.265    4.9921
    5.280    4.9078
    5.295    5.0342
    5.310    4.7288
    5.325    4.6551
    5.340    4.4866
    5.355    4.8657
    5.370    4.6761
    5.385    4.4550
    5.400    4.4971
    5.415    4.9078
    5.430    4.8447
    5.445    4.6340
    5.460    4.7077
    5.475    4.6656
    5.490    4.7393
    5.505    4.4234
    5.520    4.3918
    5.535    4.8868
    5.550    5.0132
    5.565    5.0448
    5.580    4.9394
    5.595    4.8131
    5.610    5.1817
    5.625    5.0553
    5.640    4.6130
    5.655    4.9078
    5.670    4.8552
    5.685    4.8341
    5.700    4.8131
    5.715    4.8763
    5.730    4.7077
    5.745    4.4550
    5.760    4.4760
    5.775    4.5708
    5.790    4.6867
    5.805    5.0764
    5.820    4.6867
    5.835    4.5182
    5.850    4.4655
    5.865    4.9605
    5.880    4.6867
    5.895    4.7815
    5.910    4.7393
    5.925    4.6761
    5.940    4.5182
    5.955    4.6024
    5.970    4.5814
    5.985    4.9394
    6.000    4.6972
    6.015    4.5919
    6.030    4.5814
    6.045    4.5392
    6.060    4.5498
    6.075    4.4444
    6.090    4.5708
    6.105    4.3602
    6.120    4.8131
    6.135    4.4971
    6.150    4.3918
    6.165    4.4550
    6.180    4.3286
    6.195    4.6867
    6.210    4.4023
    6.225    4.4655
    6.240    4.6761
    6.255    4.7393
    6.270    4.4760
    6.285    4.5498
    6.300    4.5708
    6.315    4.2127
    6.330    4.5182
    6.345    4.3918
    6.360    4.1811
    6.375    4.6130
    6.390    4.9921
    6.405    4.7077
    6.420    4.2443
    6.435    4.4234
    6.450    4.8341
    6.465    4.5919
    6.480    4.3181
    6.495    4.5287
    6.510    4.2338
    6.525    4.5498
    6.540    4.3707
    6.555    4.5182
    6.570    4.2654
    6.585    4.4023
    6.600    4.3707
    6.615    4.3918
    6.630    4.5182
    6.645    4.5708
    6.660    4.4023
    6.675    4.5603
    6.690    4.6551
    6.705    4.5919
    6.720    4.3391
    6.735    4.5392
    6.750    4.5498
    6.765    4.5919
    6.780    4.4971
    6.795    4.6340
    6.810    4.6761
    6.825    4.6867
    6.840    4.7499
    6.855    4.5392
    6.870    4.3181
    6.885    4.4866
    6.900    4.5603
    6.915    4.7288
    6.930    4.5708
    6.945    4.5603
    6.960    4.2549
    6.975    4.2338
    6.990    4.5814
    7.005    4.3286
    7.020    4.7499
    7.035    4.6972
    7.050    4.7499
    7.065    4.5182
    7.080    4.7499
    7.095    4.6867
    7.110    4.8657
    7.125    4.5182
    7.140    4.2443
    7.155    4.5076
    7.170    4.4444
    7.185    4.4655
    7.200    4.7709
    7.215    4.6024
    7.230    4.4655
    7.245    4.7288
    7.260    4.5603
    7.275    4.7077
    7.290    4.7709
    7.305    4.9605
    7.320    4.7077
    7.335    4.7499
    7.350    4.4655
    7.365    4.7288
    7.380    4.7815
    7.395    4.3497
    7.410    4.1496
    7.425    4.3602
    7.440    4.4866
    7.455    4.3391
    7.470    4.4339
    7.485    4.4339
    7.500    4.6340
    7.515    4.7920
    7.530    4.6235
    7.545    4.3286
    7.560    4.5919
    7.575    4.5076
    7.590    4.3813
    7.605    4.6235
    7.620    4.4760
    7.635    4.5919
    7.650    4.6972
    7.665    4.5603
    7.680    4.4971
    7.695    4.3497
    7.710    4.6130
    7.725    4.5603
    7.740    4.5287
    7.755    4.5708
    7.770    4.4339
    7.785    4.7709
    7.800    4.2549
    7.815    4.2022
    7.830    4.5603
    7.845    4.5498
    7.860    4.6235
    7.875    4.4971
    7.890    4.5603
    7.905    4.8131
    7.920    4.6761
    7.935    4.6024
    7.950    4.4655
    7.965    4.3602
    7.980    4.2549
    7.995    4.5814
    8.010    4.5287
    8.025    4.6445
    8.040    4.5182
    8.055    4.6024
    8.070    4.2759
    8.085    4.6445
    8.100    4.5814
    8.115    4.7604
    8.130    4.3391
    8.145    4.2549
    8.160    4.7077
    8.175    4.5603
    8.190    4.6551
    8.205    4.4550
    8.220    4.6340
    8.235    4.4655
    8.250    4.6551
    8.265    4.5392
    8.280    4.8025
    8.295    4.9921
    8.310    4.5814
    8.325    4.3286
    8.340    4.7077
    8.355    4.5603
    8.370    4.5919
    8.385    4.4866
    8.400    4.3286
    8.415    4.2865
    8.430    4.4339
    8.445    4.3918
    8.460    4.2338
    8.475    4.8025
    8.490    4.4023
    8.505    4.5392
    8.520    4.7288
    8.535    4.6235
    8.550    4.7288
    8.565    4.4760
    8.580    4.3497
    8.595    4.6551
    8.610    4.4128
    8.625    4.4866
    8.640    4.7920
    8.655    4.5076
    8.670    4.1496
    8.685    4.3497
    8.700    4.4655
    8.715    4.3286
    8.730    4.5392
    8.745    4.4444
    8.760    4.5919
    8.775    4.5814
    8.790    4.4128
    8.805    4.2865
    8.820    4.4339
    8.835    4.6551
    8.850    4.5076
    8.865    4.4655
    8.880    4.4234
    8.895    4.3391
    8.910    4.1811
    8.925    4.2549
    8.940    4.1706
    8.955    4.4128
    8.970    4.2127
    8.985    4.2233
    9.000    4.2865
    9.015    4.5814
    9.030    4.1706
    9.045    4.4339
    9.060    4.4128
    9.075    4.4339
    9.090    4.3075
    9.105    4.2127
    9.120    4.8763
    9.135    4.6235
    9.150    4.5392
    9.165    4.4023
    9.180    4.0653
    9.195    4.3391
    9.210    4.2127
    9.225    4.3391
    9.240    4.5287
    9.255    4.7499
    9.270    4.4128
    9.285    4.1074
    9.300    4.3391
    9.315    4.1496
    9.330    4.1601
    9.345    4.0758
    9.360    4.1601
    9.375    4.0653
    9.390    4.4550
    9.405    4.3602
    9.420    4.0337
    9.435    4.1285
    9.450    4.2759
    9.465    4.1706
    9.480    4.2127
    9.495    4.2022
    9.510    4.1917
    9.525    4.3075
    9.540    4.4655
    9.555    4.0653
    9.570    4.0864
    9.585    4.3181
    9.600    4.7077
    9.615    4.2865
    9.630    4.3918
    9.645    4.4760
    9.660    4.4234
    9.675    4.1390
    9.690    4.2759
    9.705    4.2127
    9.720    4.3497
    9.735    3.9494
    9.750    3.9916
    9.765    4.4023
    9.780    4.5814
    9.795    4.2127
    9.810    4.2654
    9.825    4.1285
    9.840    4.1496
    9.855    4.1285
    9.870    4.1285
    9.885    4.1706
    9.900    4.0864
    9.915    4.4023
    9.930    4.2233
    9.945    4.0969
    9.960    4.2233
    9.975    4.1180
    9.990    4.0864
   10.005    4.1601
   10.020    3.9705
   10.035    4.2022
   10.050    4.2865
   10.065    4.4444
   10.080    4.1390
   10.095    4.1074
   10.110    4.3707
   10.125    4.2549
   10.140    4.3075
   10.155    4.2233
   10.170    4.2127
   10.185    4.2654
   10.200    4.3181
   10.215    4.1390
   10.230    4.3286
   10.245    4.5603
   10.260    4.0232
   10.275    4.3918
   10.290    4.1917
   10.305    4.0232
   10.320    4.2865
   10.335    4.2549
   10.350    4.2970
   10.365    4.3813
   10.380    4.4234
   10.395    4.0653
   10.410    3.9600
   10.425    4.3602
   10.440    4.0758
   10.455    4.1706
   10.470    3.9284
   10.485    4.2233
   10.500    4.4234
   10.515    4.1811
   10.530    4.1074
   10.545    3.9284
   10.560    3.6756
   10.575    4.0864
   10.590    4.0232
   10.605    4.0126
   10.620    4.0969
   10.635    4.0969
   10.650    4.1180
   10.665    4.1706
   10.680    4.1706
   10.695    4.0758
   10.710    4.2127
   10.725    4.1074
   10.740    3.9494
   10.755    4.1285
   10.770    4.3918
   10.785    3.7915
   10.800    4.1496
   10.815    4.1917
   10.830    4.0864
   10.845    4.0232
   10.860    4.0021
   10.875    4.4339
   10.890    4.2233
   10.905    4.0758
   10.920    3.7915
   10.935    3.9916
   10.950    4.1601
   10.965    4.4128
   10.980    4.1180
   10.995    3.8968
   11.010    3.9916
   11.025    4.1706
   11.040    4.0232
   11.055    3.6862
   11.070    3.9284
   11.085    4.0758
   11.100    4.0548
   11.115    3.8968
   11.130    4.0021
   11.145    4.0758
   11.160    4.3075
   11.175    4.1811
   11.190    4.0442
   11.205    4.0232
   11.220    4.1811
   11.235    4.2338
   11.250    4.1180
   11.265    3.9705
   11.280    4.2654
   11.295    4.1811
   11.310    4.1180
   11.325    3.8863
   11.340    4.1496
   11.355    4.2233
   11.370    4.1390
   11.385    3.9389
   11.400    3.8336
   11.415    4.3075
   11.430    4.2233
   11.445    4.0548
   11.460    4.1074
   11.475    3.9810
   11.490    4.1811
   11.505    3.7177
   11.520    3.6862
   11.535    3.8968
   11.550    3.8652
   11.565    3.8441
   11.580    4.1601
   11.595    3.9494
   11.610    3.9073
   11.625    3.5703
   11.640    3.8863
   11.655    4.0021
   11.670    4.0126
   11.685    3.7493
   11.700    3.6651
   11.715    3.9494
   11.730    4.0337
   11.745    3.9494
   11.760    4.1180
   11.775    4.1706
   11.790    3.9284
   11.805    4.0126
   11.820    4.1285
   11.835    3.9916
   11.850    3.8441
   11.865    4.0126
   11.880    4.2127
   11.895    3.8441
   11.910    3.8547
   11.925    4.1390
   11.940    4.3075
   11.955    3.9179
   11.970    4.0442
   11.985    3.7704
   12.000    3.8547
   12.015    4.0021
   12.030    3.8020
   12.045    3.9494
   12.060    3.8125
   12.075    3.8441
   12.090    3.9600
   12.105    3.9494
   12.120    3.9179
   12.135    4.1285
   12.150    3.8757
   12.165    3.9600
   12.180    3.8020
   12.195    3.9389
   12.210    3.4439
   12.225    3.4755
   12.240    3.8125
   12.255    4.0548
   12.270    3.9389
   12.285    3.8336
   12.300    3.9600
   12.315    3.7177
   12.330    3.8863
   12.345    3.8020
   12.360    3.8336
   12.375    3.6124
   12.390    4.2759
   12.405    3.9494
   12.420    3.8231
   12.435    3.9284
   12.450    4.0126
   12.465    3.8336
   12.480    4.0126
   12.495    3.7388
   12.510    3.9916
   12.525    3.8020
   12.540    3.5808
   12.555    3.8441
   12.570    3.6651
   12.585    3.8968
   12.600    4.0864
   12.615    3.9494
   12.630    3.9916
   12.645    3.6440
   12.660    3.6756
   12.675    4.0021
   12.690    4.0442
   12.705    3.9810
   12.720    4.0442
   12.735    3.7388
   12.750    3.6019
   12.765    4.0232
   12.780    3.9810
   12.795    3.9600
   12.810    3.6546
   12.825    3.6862
   12.840    3.9705
   12.855    4.0442
   12.870    4.3075
   12.885    3.7809
   12.900    3.7388
   12.915    3.9600
   12.930    4.0021
   12.945    4.0442
   12.960    4.0548
   12.975    3.7493
   12.990    3.8125
   13.005    3.8968
   13.020    3.9389
   13.035    4.0232
   13.050    4.0337
   13.065    3.8231
   13.080    3.5492
   13.095    3.8125
   13.110    3.9073
   13.125    3.8757
   13.140    3.8652
   13.155    3.9916
   13.170    3.5492
   13.185    3.7283
   13.200    3.7072
   13.215    3.5808
   13.230    3.9494
   13.245    4.0021
   13.260    4.0442
   13.275    3.6862
   13.290    3.6967
   13.305    3.9389
   13.320    3.8125
   13.335    3.9494
   13.350    3.8863
   13.365    3.6967
   13.380    3.6019
   13.395    4.0653
   13.410    4.0442
   13.425    3.8968
   13.440    3.7599
   13.455    3.9494
   13.470    4.0232
   13.485    3.9389
   13.500    3.9073
   13.515    4.1601
   13.530    3.6230
   13.545    3.7704
   13.560    4.0758
   13.575    3.9073
   13.590    3.8231
   13.605    3.7283
   13.620    3.7283
   13.635    3.7283
   13.650    3.8336
   13.665    3.6756
   13.680    4.2022
   13.695    4.1180
   13.710    3.9916
   13.725    4.1917
   13.740    3.9705
   13.755    3.9389
   13.770    4.0758
   13.785    4.0442
   13.800    3.9600
   13.815    3.8547
   13.830    3.6440
   13.845    4.0864
   13.860    3.6967
   13.875    4.0969
   13.890    3.9179
   13.905    4.3075
   13.920    4.0442
   13.935    3.8125
   13.950    3.7493
   13.965    3.6862
   13.980    3.9810
   13.995    3.8757
   14.010    3.7599
   14.025    4.2759
   14.040    3.9600
   14.055    3.7388
   14.070    3.7599
   14.085    3.6019
   14.100    3.8863
   14.115    4.0021
   14.130    3.7072
   14.145    3.8231
   14.160    3.5176
   14.175    3.6019
   14.190    3.6967
   14.205    3.8020
   14.220    3.9705
   14.235    3.8863
   14.250    4.1706
   14.265    4.2127
   14.280    4.1390
   14.295    4.0021
   14.310    3.9389
   14.325    4.1180
   14.340    3.7704
   14.355    3.7072
   14.370    3.8441
   14.385    4.1706
   14.400    4.1601
   14.415    4.0758
   14.430    3.9179
   14.445    3.9179
   14.460    3.6546
   14.475    3.7915
   14.490    4.0232
   14.505    3.8547
   14.520    4.0442
   14.535    4.1390
   14.550    3.8968
   14.565    4.0864
   14.580    3.8968
   14.595    3.7283
   14.610    3.9284
   14.625    3.8863
   14.640    3.6651
   14.655    3.8125
   14.670    3.9810
   14.685    4.0337
   14.700    3.7915
   14.715    3.7599
   14.730    4.0126
   14.745    3.4334
   14.760    3.6967
   14.775    3.6546
   14.790    4.0969
   14.805    4.2338
   14.820    3.7915
   14.835    3.7599
   14.850    3.7493
   14.865    4.0021
   14.880    3.9179
   14.895    3.9810
   14.910    4.0653
   14.925    3.7493
   14.940    3.8441
   14.955    3.9916
   14.970    3.8863
   14.985    3.8547
   15.000    3.9705
   15.015    3.9705
   15.030    4.0653
   15.045    3.8231
   15.060    4.0232
   15.075    4.1811
   15.090    4.1811
   15.105    3.8231
   15.120    3.9284
   15.135    3.9705
   15.150    3.8652
   15.165    3.7493
   15.180    3.7388
   15.195    4.1811
   15.210    4.0548
   15.225    3.9600
   15.240    4.0653
   15.255    4.0969
   15.270    4.1390
   15.285    3.9916
   15.300    3.8020
   15.315    4.1390
   15.330    3.9810
   15.345    4.0548
   15.360    3.9179
   15.375    4.0126
   15.390    4.1180
   15.405    3.9705
   15.420    3.8547
   15.435    4.2443
   15.450    4.2443
   15.465    3.9073
   15.480    3.9494
   15.495    3.9389
   15.510    3.7072
   15.525    3.7809
   15.540    4.0232
   15.555    4.0337
   15.570    3.7809
   15.585    3.8336
   15.600    3.8968
   15.615    3.9916
   15.630    3.9179
   15.645    3.7388
   15.660    3.8336
   15.675    4.1390
   15.690    4.0758
   15.705    4.1601
   15.720    3.7283
   15.735    3.7704
   15.750    3.6124
   15.765    4.0442
   15.780    3.7704
   15.795    3.8020
   15.810    4.1811
   15.825    4.1285
   15.840    3.9073
   15.855    4.3918
   15.870    3.7283
   15.885    4.0864
   15.900    3.8441
   15.915    3.8020
   15.930    3.8652
   15.945    3.6230
   15.960    3.5914
   15.975    3.8231
   15.990    4.0653
   16.005    3.8757
   16.020    3.8231
   16.035    3.6019
   16.050    3.7177
   16.065    3.8441
   16.080    4.0232
   16.095    4.0232
   16.110    3.8020
   16.125    3.9600
   16.140    3.7388
   16.155    3.6967
   16.170    3.9810
   16.185    4.1917
   16.200    3.9705
   16.215    4.1390
   16.230    3.8231
   16.245    3.9284
   16.260    4.0337
   16.275    4.3286
   16.290    4.2549
   16.305    4.1180
   16.320    4.0548
   16.335    3.9494
   16.350    3.9705
   16.365    4.0232
   16.380    3.9705
   16.395    3.9600
   16.410    4.2233
   16.425    3.8336
   16.440    3.8125
   16.455    3.9705
   16.470    4.2127
   16.485    4.2443
   16.500    4.0021
   16.515    3.9916
   16.530    3.9179
   16.545    3.9284
   16.560    4.1074
   16.575    4.1285
   16.590    4.0969
   16.605    3.8336
   16.620    3.8863
   16.635    3.8020
   16.650    3.8757
   16.665    3.6862
   16.680    3.9284
   16.695    3.8652
   16.710    3.9073
   16.725    4.1074
   16.740    3.8863
   16.755    4.1180
   16.770    3.9810
   16.785    4.0337
   16.800    4.0548
   16.815    4.1390
   16.830    3.7177
   16.845    4.0337
   16.860    3.9916
   16.875    4.0021
   16.890    4.1706
   16.905    4.2865
   16.920    4.0653
   16.935    3.9810
   16.950    4.3497
   16.965    4.1811
   16.980    4.2759
   16.995    4.0442
   17.010    4.0548
   17.025    4.2759
   17.040    4.1074
   17.055    4.2759
   17.070    4.0442
   17.085    4.1706
   17.100    4.0548
   17.115    4.1180
   17.130    4.1706
   17.145    4.0969
   17.160    3.9600
   17.175    3.9705
   17.190    4.1917
   17.205    3.9073
   17.220    3.8757
   17.235    4.1390
   17.250    4.0021
   17.265    4.0442
   17.280    4.0969
   17.295    4.0758
   17.310    4.0864
   17.325    4.0021
   17.340    4.2443
   17.355    4.1917
   17.370    4.0126
   17.385    3.7599
   17.400    3.7493
   17.415    4.0232
   17.430    4.0548
   17.445    4.2654
   17.460    4.3075
   17.475    4.4023
   17.490    4.1390
   17.505    3.9494
   17.520    4.0653
   17.535    4.2865
   17.550    3.9705
   17.565    3.9916
   17.580    3.9494
   17.595    4.0442
   17.610    3.9284
   17.625    3.7177
   17.640    4.1917
   17.655    3.8652
   17.670    3.9600
   17.685    4.1390
   17.700    4.1285
   17.715    4.0337
   17.730    4.0021
   17.745    4.1496
   17.760    4.2233
   17.775    4.3602
   17.790    4.3602
   17.805    4.2338
   17.820    4.2022
   17.835    4.5182
   17.850    4.1074
   17.865    4.0232
   17.880    4.2443
   17.895    4.1706
   17.910    4.0442
   17.925    4.1917
   17.940    4.1180
   17.955    3.8231
   17.970    3.9389
   17.985    3.8757
   18.000    4.2022
   18.015    4.0653
   18.030    4.3286
   18.045    4.1706
   18.060    4.4971
   18.075    4.0548
   18.090    4.5814
   18.105    4.5919
   18.120    4.2338
   18.135    4.1074
   18.150    4.0126
   18.165    4.2443
   18.180    4.4234
   18.195    4.0653
   18.210    3.6967
   18.225    4.0337
   18.240    4.1390
   18.255    3.9810
   18.270    4.1285
   18.285    4.2759
   18.300    4.5919
   18.315    4.2549
   18.330    4.0864
   18.345    4.1180
   18.360    4.0653
   18.375    4.0337
   18.390    4.2022
   18.405    3.9073
   18.420    4.0337
   18.435    4.2022
   18.450    4.2233
   18.465    4.2338
   18.480    4.1706
   18.495    4.1074
   18.510    4.2865
   18.525    4.0758
   18.540    3.9389
   18.555    4.2549
   18.570    4.1496
   18.585    4.1180
   18.600    3.7915
   18.615    4.0337
   18.630    4.2549
   18.645    3.8652
   18.660    4.1917
   18.675    3.9600
   18.690    4.1917
   18.705    4.4444
   18.720    4.1390
   18.735    4.1811
   18.750    4.0653
   18.765    4.1601
   18.780    3.8336
   18.795    4.2759
   18.810    4.2338
   18.825    3.9494
   18.840    4.0864
   18.855    4.4339
   18.870    4.2759
   18.885    4.4655
   18.900    4.2127
   18.915    4.2654
   18.930    4.2338
   18.945    4.2338
   18.960    4.4128
   18.975    4.3918
   18.990    4.2865
   19.005    4.0969
   19.020    4.3707
   19.035    4.6972
   19.050    4.4234
   19.065    4.2865
   19.080    4.0864
   19.095    4.0758
   19.110    4.0864
   19.125    4.0653
   19.140    4.4444
   19.155    4.0864
   19.170    4.0337
   19.185    4.1496
   19.200    4.1390
   19.215    4.2127
   19.230    4.2338
   19.245    3.8547
   19.260    4.3075
   19.275    4.2759
   19.290    4.4655
   19.305    4.4550
   19.320    4.5708
   19.335    4.7183
   19.350    4.5182
   19.365    4.0442
   19.380    4.1917
   19.395    4.6656
   19.410    4.4655
   19.425    4.5919
   19.440    4.4128
   19.455    3.9810
   19.470    3.9916
   19.485    4.2865
   19.500    4.2549
   19.515    4.1706
   19.530    4.4023
   19.545    4.4866
   19.560    4.1601
   19.575    4.1074
   19.590    4.1180
   19.605    4.4128
   19.620    4.3497
   19.635    4.1811
   19.650    4.3813
   19.665    4.2654
   19.680    4.4971
   19.695    4.1811
   19.710    3.8968
   19.725    4.3286
   19.740    4.2233
   19.755    4.2022
   19.770    4.5392
   19.785    4.4550
   19.800    4.4128
   19.815    4.1074
   19.830    4.2970
   19.845    4.2233
   19.860    4.2233
   19.875    4.4339
   19.890    4.1811
   19.905    4.1811
   19.920    4.3286
   19.935    4.4128
   19.950    4.3707
   19.965    4.1811
   19.980    4.0864
   19.995    4.2127
   20.010    4.2233
   20.025    4.1706
   20.040    4.4866
   20.055    4.0969
   20.070    3.9073
   20.085    3.7599
   20.100    4.4655
   20.115    4.2338
   20.130    4.2233
   20.145    4.1601
   20.160    4.2022
   20.175    4.1811
   20.190    4.1074
   20.205    4.3391
   20.220    4.0969
   20.235    4.3181
   20.250    4.4128
   20.265    4.6445
   20.280    4.3181
   20.295    4.3497
   20.310    4.2022
   20.325    4.2970
   20.340    4.5076
   20.355    4.0232
   20.370    4.2970
   20.385    4.0758
   20.400    4.1917
   20.415    4.2549
   20.430    4.2549
   20.445    4.3918
   20.460    4.0864
   20.475    4.3181
   20.490    4.2865
   20.505    4.3813
   20.520    4.2127
   20.535    4.4444
   20.550    4.3707
   20.565    4.4971
   20.580    4.2654
   20.595    4.0548
   20.610    4.2127
   20.625    4.3602
   20.640    4.4866
   20.655    4.2338
   20.670    4.4971
   20.685    4.2759
   20.700    4.0442
   20.715    4.0232
   20.730    4.0758
   20.745    4.2127
   20.760    4.4971
   20.775    4.1601
   20.790    4.1811
   20.805    4.3602
   20.820    4.3391
   20.835    4.0442
   20.850    3.9073
   20.865    4.4234
   20.880    4.5603
   20.895    4.2654
   20.910    4.1390
   20.925    4.1601
   20.940    4.2549
   20.955    4.3075
   20.970    4.5392
   20.985    4.3918
   21.000    4.1917
   21.015    4.1706
   21.030    4.1917
   21.045    4.2233
   21.060    4.5814
   21.075    4.4023
   21.090    4.4971
   21.105    4.4444
   21.120    4.4339
   21.135    4.3602
   21.150    4.2865
   21.165    4.0758
   21.180    4.1180
   21.195    4.0548
   21.210    4.2022
   21.225    4.5603
   21.240    4.4866
   21.255    4.3391
   21.270    4.6972
   21.285    4.1285
   21.300    4.2233
   21.315    4.2338
   21.330    4.3075
   21.345    4.5498
   21.360    4.1180
   21.375    4.4760
   21.390    4.2022
   21.405    4.3075
   21.420    4.3602
   21.435    4.5919
   21.450    4.2338
   21.465    4.2970
   21.480    4.4128
   21.495    4.1601
   21.510    4.3497
   21.525    4.1180
   21.540    3.9810
   21.555    4.0758
   21.570    4.6235
   21.585    4.6235
   21.600    4.1917
   21.615    4.2127
   21.630    4.0021
   21.645    4.4128
   21.660    4.4023
   21.675    4.0969
   21.690    4.2233
   21.705    4.1706
   21.720    4.4550
   21.735    4.3391
   21.750    3.9916
   21.765    4.2233
   21.780    4.1601
   21.795    4.4128
   21.810    4.2127
   21.825    4.4444
   21.840    4.5392
   21.855    4.2970
   21.870    4.3181
   21.885    4.4023
   21.900    4.3602
   21.915    4.1285
   21.930    4.2022
   21.945    4.2970
   21.960    4.2338
   21.975    4.1917
   21.990    4.3707
   22.005    4.5076
   22.020    4.2654
   22.035    4.4339
   22.050    4.6235
   22.065    4.4550
   22.080    4.1706
   22.095    4.1811
   22.110    4.6972
   22.125    4.4339
   22.140    4.6024
   22.155    4.3918
   22.170    4.2022
   22.185    4.1811
   22.200    4.2022
   22.215    4.3707
   22.230    4.3707
   22.245    4.0232
   22.260    4.2443
   22.275    4.3391
   22.290    4.3602
   22.305    4.5919
   22.320    4.3918
   22.335    4.0442
   22.350    4.3497
   22.365    4.3075
   22.380    4.3918
   22.395    4.4444
   22.410    4.4128
   22.425    4.2022
   22.440    4.4234
   22.455    4.4023
   22.470    4.1496
   22.485    4.4550
   22.500    4.5814
   22.515    4.3602
   22.530    4.2338
   22.545    4.3918
   22.560    4.1285
   22.575    4.4971
   22.590    4.4760
   22.605    4.3286
   22.620    4.5287
   22.635    4.4550
   22.650    4.4023
   22.665    4.1811
   22.680    4.1706
   22.695    4.1180
   22.710    4.2970
   22.725    4.1285
   22.740    4.0442
   22.755    4.3286
   22.770    4.2654
   22.785    4.2549
   22.800    4.3497
   22.815    4.0864
   22.830    3.9179
   22.845    3.9600
   22.860    4.0126
   22.875    3.9916
   22.890    3.8231
   22.905    4.0758
   22.920    4.0864
   22.935    4.1285
   22.950    4.3286
   22.965    4.3497
   22.980    4.4760
   22.995    4.2549
   23.010    3.9916
   23.025    4.2549
   23.040    4.2654
   23.055    4.2549
   23.070    4.3497
   23.085    3.9916
   23.100    4.2759
   23.115    4.1285
   23.130    4.0653
   23.145    4.2970
   23.160    4.2654
   23.175    4.3602
   23.190    4.3497
   23.205    4.3286
   23.220    4.2549
   23.235    4.2549
   23.250    4.2233
   23.265    4.1180
   23.280    4.3391
   23.295    4.2970
   23.310    4.0548
   23.325    4.1390
   23.340    4.3813
   23.355    4.1811
   23.370    3.8336
   23.385    4.1180
   23.400    4.4234
   23.415    4.3286
   23.430    3.9073
   23.445    3.9073
   23.460    4.1285
   23.475    4.0337
   23.490    4.0864
   23.505    4.0232
   23.520    4.3075
   23.535    4.0337
   23.550    3.9284
   23.565    4.1496
   23.580    3.9705
   23.595    4.1180
   23.610    4.4550
   23.625    4.0969
   23.640    3.9810
   23.655    4.0758
   23.670    4.0232
   23.685    3.9494
   23.700    3.9810
   23.715    4.1180
   23.730    3.9916
   23.745    3.9179
   23.760    4.3918
   23.775    3.9810
   23.790    4.2654
   23.805    4.1917
   23.820    3.9494
   23.835    4.0548
   23.850    4.0232
   23.865    4.2549
   23.880    4.2970
   23.895    4.0232
   23.910    4.1180
   23.925    4.3497
   23.940    4.2549
   23.955    3.9916
   23.970    4.1496
   23.985    4.4339
   24.000    3.8863
   24.015    3.9284
   24.030    3.9179
   24.045    4.3391
   24.060    4.1496
   24.075    4.1601
   24.090    4.2443
   24.105    4.0548
   24.120    4.0126
   24.135    3.9600
   24.150    4.2233
   24.165    4.2338
   24.180    4.0442
   24.195    4.4128
   24.210    4.2443
   24.225    3.9810
   24.240    4.1074
   24.255    3.8863
   24.270    4.1180
   24.285    4.0021
   24.300    4.0337
   24.315    3.8336
   24.330    3.9494
   24.345    4.2022
   24.360    4.0653
   24.375    3.8968
   24.390    4.0548
   24.405    4.1390
   24.420    4.1285
   24.435    4.1706
   24.450    4.1285
   24.465    3.9494
   24.480    3.9494
   24.495    3.8652
   24.510    4.0442
   24.525    3.9810
   24.540    3.8125
   24.555    3.8441
   24.570    3.9705
   24.585    3.7493
   24.600    3.7809
   24.615    3.7599
   24.630    3.7283
   24.645    3.9389
   24.660    3.9179
   24.675    3.4544
   24.690    3.6546
   24.705    3.5703
   24.720    3.8863
   24.735    3.9810
   24.750    3.8441
   24.765    3.9810
   24.780    3.8441
   24.795    3.7704
   24.810    3.7599
   24.825    3.8968
   24.840    3.6967
   24.855    3.6756
   24.870    4.0232
   24.885    4.1074
   24.900    3.9284
   24.915    4.2759
   24.930    3.8336
   24.945    3.8757
   24.960    3.8020
   24.975    3.8863
   24.990    3.8757
   25.005    4.1074
   25.020    4.1180
   25.035    3.7809
   25.050    3.7283
   25.065    4.1180
   25.080    3.8336
   25.095    3.6651
   25.110    3.6546
   25.125    3.5914
   25.140    3.6440
   25.155    3.6756
   25.170    4.0548
   25.185    4.1496
   25.200    4.1917
   25.215    3.7809
   25.230    3.4123
   25.245    3.6862
   25.260    3.8968
   25.275    4.0337
   25.290    3.9389
   25.305    3.8968
   25.320    3.8125
   25.335    3.5703
   25.350    3.7599
   25.365    3.8336
   25.380    4.0864
   25.395    4.2865
   25.410    3.7493
   25.425    3.7704
   25.440    3.9389
   25.455    3.9494
   25.470    3.7388
   25.485    3.9389
   25.500    3.7915
   25.515    4.1390
   25.530    3.6967
   25.545    3.4123
   25.560    3.8231
   25.575    3.8863
   25.590    3.9179
   25.605    4.0758
   25.620    3.6967
   25.635    3.9073
   25.650    4.1706
   25.665    3.8336
   25.680    3.8125
   25.695    3.8441
   25.710    3.8231
   25.725    3.7599
   25.740    3.8547
   25.755    3.9705
   25.770    3.5808
   25.785    3.6335
   25.800    3.6967
   25.815    3.6756
   25.830    3.6756
   25.845    3.6019
   25.860    3.8125
   25.875    3.4439
   25.890    4.0126
   25.905    3.9284
   25.920    3.9179
   25.935    3.7072
   25.950    3.5492
   25.965    3.6651
   25.980    3.7599
   25.995    3.6019
   26.010    3.9389
   26.025    3.9179
   26.040    3.7283
   26.055    3.8125
   26.070    3.4439
   26.085    3.6124
   26.100    3.5387
   26.115    4.0021
   26.130    3.7809
   26.145    3.7177
   26.160    3.8231
   26.175    3.9284
   26.190    4.0126
   26.205    4.0021
   26.220    3.7493
   26.235    3.8757
   26.250    3.7283
   26.265    3.5387
   26.280    3.6546
   26.295    4.0232
   26.310    3.8757
   26.325    3.7388
   26.340    3.9494
   26.355    3.7072
   26.370    3.6862
   26.385    4.0442
   26.400    3.8441
   26.415    3.8863
   26.430    3.9600
   26.445    3.9600
   26.460    3.6756
   26.475    3.6651
   26.490    3.4123
   26.505    3.6230
   26.520    3.7177
   26.535    3.7599
   26.550    3.8441
   26.565    3.6862
   26.580    3.6651
   26.595    3.5387
   26.610    3.6124
   26.625    3.4755
   26.640    3.5492
   26.655    3.7177
   26.670    3.5176
   26.685    3.6862
   26.700    3.6440
   26.715    3.4123
   26.730    3.7177
   26.745    3.6546
   26.760    3.5176
   26.775    3.6756
   26.790    3.5598
   26.805    3.7388
   26.820    3.8020
   26.835    3.5387
   26.850    3.5071
   26.865    3.7599
   26.880    3.5914
   26.895    3.4544
   26.910    3.6335
   26.925    3.3807
   26.940    3.4334
   26.955    3.4860
   26.970    3.4544
   26.985    3.5703
   27.000    3.2965
   27.015    3.6230
   27.030    3.5282
   27.045    3.6756
   27.060    3.8336
   27.075    3.9179
   27.090    3.7177
   27.105    3.7283
   27.120    3.7915
   27.135    3.5703
   27.150    3.6546
   27.165    3.5282
   27.180    3.6230
   27.195    3.4334
   27.210    3.8020
   27.225    3.8231
   27.240    3.7915
   27.255    3.4018
   27.270    3.5914
   27.285    3.5808
   27.300    3.8441
   27.315    3.3913
   27.330    3.4439
   27.345    3.3807
   27.360    3.4860
   27.375    3.3175
   27.390    3.6440
   27.405    3.4755
   27.420    3.2965
   27.435    3.4860
   27.450    3.3913
   27.465    3.2754
   27.480    3.3913
   27.495    3.6019
   27.510    3.4650
   27.525    3.5914
   27.540    3.6335
   27.555    3.6230
   27.570    3.5071
   27.585    3.2543
   27.600    3.4018
   27.615    3.5703
   27.630    3.2122
   27.645    3.4018
   27.660    3.3913
   27.675    3.6967
   27.690    3.5598
   27.705    3.6440
   27.720    3.8231
   27.735    3.4334
   27.750    3.3386
   27.765    3.7809
   27.780    3.6440
   27.795    3.3386
   27.810    3.3386
   27.825    3.3597
   27.840    3.0753
   27.855    3.4439
   27.870    3.1596
   27.885    3.3597
   27.900    3.5387
   27.915    3.5282
   27.930    3.3386
   27.945    3.3807
   27.960    3.7283
   27.975    3.7388
   27.990    3.7283
   28.005    3.7177
   28.020    3.8547
   28.035    3.6019
   28.050    3.4018
   28.065    3.6440
   28.080    3.6967
   28.095    3.4544
   28.110    3.3807
   28.125    3.3913
   28.140    3.3491
   28.155    3.1596
   28.170    3.1806
   28.185    3.5914
   28.200    3.2965
   28.215    3.2333
   28.230    3.5071
   28.245    3.4439
   28.260    3.5808
   28.275    3.4860
   28.290    3.2333
   28.305    3.5598
   28.320    3.3491
   28.335    3.3386
   28.350    3.3175
   28.365    3.4544
   28.380    3.3913
   28.395    3.4860
   28.410    3.5071
   28.425    3.2543
   28.440    3.4123
   28.455    3.4544
   28.470    3.4650
   28.485    3.3070
   28.500    3.2122
   28.515    3.2754
   28.530    3.3281
   28.545    3.3913
   28.560    3.3491
   28.575    3.3175
   28.590    3.2122
   28.605    3.1596
   28.620    3.3807
   28.635    3.2859
   28.650    3.1174
   28.665    3.1069
   28.680    3.3386
   28.695    3.0858
   28.710    3.4229
   28.725    3.2122
   28.740    3.3281
   28.755    3.4439
   28.770    3.2017
   28.785    3.4755
   28.800    3.3597
   28.815    3.1912
   28.830    3.1280
   28.845    3.4755
   28.860    3.2754
   28.875    3.4650
   28.890    3.4860
   28.905    3.4229
   28.920    3.4123
   28.935    3.4860
   28.950    3.5387
   28.965    3.4966
   28.980    3.5176
   28.995    3.3491
   29.010    3.4229
   29.025    3.4966
   29.040    3.4229
   29.055    3.2859
   29.070    3.3281
   29.085    3.3175
   29.100    3.2859
   29.115    3.3597
   29.130    3.3913
   29.145    3.7388
   29.160    3.4229
   29.175    3.4966
   29.190    3.5703
   29.205    3.2649
   29.220    2.9700
   29.235    3.2017
   29.250    3.3386
   29.265    3.2965
   29.280    3.3281
   29.295    3.3597
   29.310    3.2859
   29.325    3.1490
   29.340    3.1069
   29.355    3.5598
   29.370    3.1701
   29.385    3.3491
   29.400    3.3913
   29.415    3.2965
   29.430    3.4229
   29.445    3.1174
   29.460    3.3491
   29.475    2.9279
   29.490    3.1174
   29.505    2.9595
   29.520    3.0226
   29.535    3.1490
   29.550    3.0437
   29.565    3.0964
   29.580    2.9805
   29.595    3.1596
   29.610    3.2859
   29.625    3.0858
   29.640    3.2017
   29.655    3.1174
   29.670    2.8331
   29.685    3.2017
   29.700    3.1701
   29.715    3.2333
   29.730    3.5808
   29.745    3.2543
   29.760    3.2333
   29.775    3.0016
   29.790    2.9068
   29.805    2.9173
   29.820    2.9700
   29.835    3.4334
   29.850    3.5703
   29.865    3.4966
   29.880    3.0542
   29.895    2.9805
   29.910    3.0858
   29.925    3.0858
   29.940    3.0753
   29.955    3.3913
   29.970    3.4966
   29.985    3.0648
   30.000    3.0332
   30.015    2.8647
   30.030    3.0753
   30.045    3.1596
   30.060    3.0016
   30.075    3.0016
   30.090    3.0542
   30.105    3.3386
   30.120    2.9068
   30.135    3.0648
   30.150    3.0437
   30.165    3.0964
   30.180    3.1806
   30.195    3.0542
   30.210    3.0332
   30.225    3.0858
   30.240    3.2543
   30.255    3.3281
   30.270    3.0332
   30.285    3.0542
   30.300    3.3386
   30.315    3.1174
   30.330    3.2649
   30.345    3.0332
   30.360    3.0121
   30.375    3.1280
   30.390    3.1490
   30.405    2.9910
   30.420    3.3070
   30.435    3.2017
   30.450    3.2754
   30.465    3.2017
   30.480    3.0332
   30.495    3.0437
   30.510    3.1490
   30.525    3.0226
   30.540    3.2438
   30.555    3.2227
   30.570    3.2965
   30.585    2.8963
   30.600    2.9805
   30.615    3.0542
   30.630    3.0753
   30.645    2.9068
   30.660    3.1385
   30.675    3.2122
   30.690    2.9910
   30.705    3.3807
   30.720    3.3386
   30.735    3.2017
   30.750    3.0437
   30.765    2.9173
   30.780    3.0542
   30.795    2.9489
   30.810    2.9700
   30.825    3.0226
   30.840    2.8857
   30.855    3.0648
   30.870    3.2017
   30.885    2.9595
   30.900    3.2227
   30.915    3.0121
   30.930    2.9910
   30.945    3.3597
   30.960    3.0964
   30.975    3.2965
   30.990    3.1069
   31.005    2.9068
   31.020    2.9384
   31.035    3.0332
   31.050    3.0226
   31.065    3.2859
   31.080    3.2543
   31.095    2.8120
   31.110    2.8541
   31.125    2.8647
   31.140    3.0016
   31.155    2.8225
   31.170    2.8120
   31.185    3.0121
   31.200    3.2122
   31.215    2.9279
   31.230    2.8752
   31.245    2.8647
   31.260    2.9173
   31.275    3.0332
   31.290    2.9595
   31.305    3.1069
   31.320    2.8647
   31.335    3.1490
   31.350    3.1701
   31.365    2.9595
   31.380    2.8963
   31.395    2.8752
   31.410    2.9068
   31.425    2.9068
   31.440    3.0332
   31.455    3.0121
   31.470    2.8436
   31.485    3.0858
   31.500    2.9805
   31.515    3.2017
   31.530    3.0753
   31.545    3.1280
   31.560    3.1701
   31.575    2.8963
   31.590    3.0437
   31.605    3.0542
   31.620    3.0858
   31.635    3.3175
   31.650    3.0964
   31.665    3.1490
   31.680    2.9489
   31.695    3.0332
   31.710    3.0016
   31.725    2.9173
   31.740    2.8015
   31.755    2.8225
   31.770    3.0753
   31.785    3.1385
   31.800    3.2122
   31.815    2.9279
   31.830    2.6646
   31.845    2.9173
   31.860    3.2543
   31.875    2.9068
   31.890    3.0648
   31.905    3.2438
   31.920    3.1280
   31.935    3.0648
   31.950    3.0858
   31.965    2.8857
   31.980    3.1912
   31.995    3.0648
   32.010    2.8541
   32.025    3.1280
   32.040    3.2649
   32.055    3.3913
   32.070    3.4018
   32.085    3.2333
   32.100    3.1069
   32.115    3.0542
   32.130    3.3281
   32.145    3.3175
   32.160    3.2859
   32.175    2.8752
   32.190    3.0121
   32.205    2.9279
   32.220    3.0332
   32.235    2.9384
   32.250    3.1280
   32.265    2.8120
   32.280    2.9068
   32.295    2.8857
   32.310    2.9489
   32.325    2.9384
   32.340    2.8015
   32.355    2.9910
   32.370    3.0332
   32.385    2.6330
   32.400    2.6856
   32.415    2.5382
   32.430    2.7804
   32.445    2.9910
   32.460    2.8857
   32.475    2.6014
   32.490    2.9279
   32.505    2.8120
   32.520    2.8331
   32.535    2.8436
   32.550    2.5908
   32.565    2.9068
   32.580    2.7699
   32.595    2.9068
   32.610    2.8120
   32.625    2.9595
   32.640    2.6540
   32.655    2.6856
   32.670    2.7909
   32.685    2.7699
   32.700    2.5592
   32.715    2.6751
   32.730    2.6224
   32.745    2.6435
   32.760    2.7383
   32.775    3.0437
   32.790    2.7593
   32.805    2.7067
   32.820    2.7067
   32.835    2.7699
   32.850    3.0332
   32.865    2.6962
   32.880    2.6962
   32.895    2.8331
   32.910    2.7699
   32.925    2.8225
   32.940    2.8015
   32.955    2.6856
   32.970    2.8436
   32.985    2.6119
   33.000    2.3802
   33.015    2.6435
   33.030    2.8225
   33.045    2.7593
   33.060    2.6962
   33.075    2.6330
   33.090    2.7278
   33.105    2.7067
   33.120    2.3486
   33.135    2.5066
   33.150    2.4329
   33.165    2.4013
   33.180    2.6856
   33.195    2.9173
   33.210    2.7488
   33.225    2.5592
   33.240    2.6751
   33.255    2.5592
   33.270    2.4645
   33.285    2.5276
   33.300    2.6751
   33.315    2.7172
   33.330    2.6330
   33.345    2.7488
   33.360    2.6751
   33.375    2.5171
   33.390    2.4961
   33.405    2.6435
   33.420    2.6962
   33.435    2.7488
   33.450    2.7383
   33.465    2.8225
   33.480    2.9279
   33.495    2.7172
   33.510    2.6856
   33.525    2.5487
   33.540    2.8647
   33.555    2.6014
   33.570    2.4855
   33.585    2.6751
   33.600    2.4539
   33.615    2.4750
   33.630    2.4223
   33.645    2.5592
   33.660    2.5592
   33.675    2.6962
   33.690    2.6856
   33.705    2.4855
   33.720    2.6014
   33.735    2.5803
   33.750    2.8015
   33.765    2.7172
   33.780    2.9068
   33.795    2.7488
   33.810    2.7172
   33.825    2.6962
   33.840    2.6119
   33.855    2.6751
   33.870    2.7593
   33.885    2.7593
   33.900    2.8120
   33.915    2.3697
   33.930    2.6119
   33.945    2.8015
   33.960    2.6962
   33.975    2.8436
   33.990    2.7804
   34.005    2.6540
   34.020    2.4329
   34.035    2.4434
   34.050    2.5803
   34.065    2.3486
   34.080    2.4961
   34.095    2.4118
   34.110    2.4118
   34.125    2.2328
   34.140    2.2222
   34.155    2.3381
   34.170    2.3907
   34.185    2.5803
   34.200    2.2749
   34.215    2.4855
   34.230    2.4013
   34.245    2.4750
   34.260    2.6119
   34.275    2.6540
   34.290    2.8541
   34.305    2.6540
   34.320    2.4750
   34.335    2.4118
   34.350    2.5171
   34.365    2.5698
   34.380    2.5171
   34.395    2.5698
   34.410    2.6962
   34.425    2.5592
   34.440    2.3802
   34.455    2.5276
   34.470    2.3486
   34.485    2.5382
   34.500    2.3170
   34.515    2.3065
   34.530    2.3275
   34.545    2.4013
   34.560    2.3802
   34.575    2.4013
   34.590    2.3591
   34.605    2.4118
   34.620    2.2643
   34.635    2.4329
   34.650    2.4223
   34.665    2.4223
   34.680    2.4223
   34.695    2.4645
   34.710    2.5066
   34.725    2.5171
   34.740    2.3697
   34.755    2.2959
   34.770    2.3275
   34.785    2.4329
   34.800    2.4539
   34.815    2.5171
   34.830    2.3170
   34.845    2.6014
   34.860    2.4013
   34.875    2.4645
   34.890    2.5382
   34.905    2.3802
   34.920    2.3591
   34.935    2.2012
   34.950    2.4750
   34.965    2.1590
   34.980    2.2854
   34.995    2.4750
   35.010    2.7172
   35.025    2.3065
   35.040    2.2959
   35.055    2.3802
   35.070    2.5487
   35.085    2.3065
   35.100    2.2959
   35.115    2.3381
   35.130    2.3907
   35.145    2.3591
   35.160    2.4855
   35.175    2.1801
   35.190    2.2643
   35.205    2.5382
   35.220    2.4434
   35.235    2.2854
   35.250    2.3591
   35.265    2.2749
   35.280    2.4223
   35.295    2.2643
   35.310    2.2117
   35.325    2.1801
   35.340    2.2643
   35.355    2.0642
   35.370    2.3275
   35.385    2.3907
   35.400    2.1801
   35.415    2.4645
   35.430    2.3697
   35.445    2.4013
   35.460    2.4434
   35.475    2.3907
   35.490    2.3907
   35.505    2.3381
   35.520    2.2959
   35.535    2.2012
   35.550    2.1590
   35.565    2.3275
   35.580    2.5276
   35.595    2.2012
   35.610    2.2433
   35.625    2.2117
   35.640    2.2959
   35.655    2.5803
   35.670    2.2328
   35.685    2.5803
   35.700    2.3802
   35.715    2.1801
   35.730    2.2959
   35.745    2.2749
   35.760    2.4434
   35.775    2.1064
   35.790    2.2117
   35.805    2.4539
   35.820    2.4750
   35.835    2.3697
   35.850    2.4013
   35.865    2.5066
   35.880    2.2643
   35.895    2.3802
   35.910    2.4013
   35.925    2.3697
   35.940    2.2222
   35.955    2.4645
   35.970    2.2328
   35.985    2.2854
   36.000    2.2854
   36.015    2.3591
   36.030    2.2328
   36.045    2.3275
   36.060    2.2854
   36.075    2.3275
   36.090    2.3381
   36.105    2.1590
   36.120    2.4750
   36.135    2.2433
   36.150    2.2117
   36.165    2.3170
   36.180    2.3486
   36.195    2.2749
   36.210    2.3486
   36.225    2.2012
   36.240    2.0221
   36.255    2.1906
   36.270    2.2433
   36.285    2.4013
   36.300    2.2959
   36.315    2.2749
   36.330    2.3591
   36.345    2.4329
   36.360    2.2854
   36.375    2.1906
   36.390    2.2012
   36.405    2.3170
   36.420    2.3697
   36.435    2.2959
   36.450    2.2854
   36.465    1.9589
   36.480    2.0958
   36.495    2.0853
   36.510    2.1169
   36.525    2.2012
   36.540    2.4013
   36.555    2.0958
   36.570    2.1801
   36.585    2.2012
   36.600    2.1696
   36.615    2.6119
   36.630    2.2854
   36.645    2.1590
   36.660    2.2328
   36.675    2.4539
   36.690    2.2959
   36.705    2.2328
   36.720    2.1169
   36.735    2.2854
   36.750    2.1380
   36.765    2.3486
   36.780    2.2222
   36.795    2.2538
   36.810    2.0642
   36.825    2.2012
   36.840    2.3170
   36.855    2.1169
   36.870    2.2538
   36.885    2.2012
   36.900    2.3170
   36.915    2.2538
   36.930    2.1485
   36.945    2.1696
   36.960    2.3065
   36.975    2.2012
   36.990    2.3065
   37.005    2.0853
   37.020    2.2117
   37.035    2.2222
   37.050    2.2222
   37.065    2.1380
   37.080    2.3275
   37.095    2.2117
   37.110    2.0537
   37.125    2.0116
   37.140    2.1064
   37.155    2.0432
   37.170    2.2959
   37.185    1.9273
   37.200    1.9695
   37.215    2.1590
   37.230    2.1169
   37.245    2.2643
   37.260    2.1906
   37.275    2.0748
   37.290    2.0853
   37.305    1.9905
   37.320    2.0432
   37.335    2.1696
   37.350    2.3381
   37.365    2.0642
   37.380    1.9379
   37.395    2.0011
   37.410    2.1380
   37.425    2.2433
   37.440    2.3065
   37.455    2.0326
   37.470    2.1274
   37.485    2.2538
   37.500    2.1590
   37.515    2.0748
   37.530    2.1380
   37.545    2.2117
   37.560    2.0326
   37.575    2.1169
   37.590    2.3381
   37.605    2.2643
   37.620    2.1380
   37.635    2.0853
   37.650    1.9063
   37.665    1.8747
   37.680    2.0326
   37.695    2.3065
   37.710    2.3275
   37.725    2.2538
   37.740    2.1169
   37.755    2.0011
   37.770    1.9063
   37.785    1.9695
   37.800    2.2433
   37.815    2.2643
   37.830    2.3802
   37.845    2.2433
   37.860    2.1485
   37.875    2.2959
   37.890    2.4329
   37.905    1.9589
   37.920    2.0748
   37.935    2.0432
   37.950    2.2117
   37.965    1.9484
   37.980    2.0116
   37.995    1.9273
   38.010    2.3275
   38.025    2.0432
   38.040    1.9695
   38.055    2.2222
   38.070    2.0958
   38.085    2.0748
   38.100    2.1906
   38.115    2.0748
   38.130    2.0537
   38.145    2.2222
   38.160    2.2012
   38.175    2.0853
   38.190    2.0221
   38.205    2.0642
   38.220    2.1274
   38.235    2.2222
   38.250    2.1801
   38.265    1.9800
   38.280    2.2117
   38.295    2.1485
   38.310    2.2117
   38.325    2.0116
   38.340    2.0958
   38.355    2.3170
   38.370    2.3486
   38.385    2.0221
   38.400    2.0537
   38.415    1.9273
   38.430    2.1064
   38.445    2.3802
   38.460    2.1169
   38.475    2.1696
   38.490    2.1590
   38.505    2.1485
   38.520    2.2222
   38.535    2.3802
   38.550    2.2538
   38.565    2.2959
   38.580    2.1590
   38.595    2.0748
   38.610    2.3170
   38.625    2.2117
   38.640    2.1064
   38.655    2.0326
   38.670    2.2012
   38.685    2.0221
   38.700    2.2854
   38.715    2.3065
   38.730    2.1169
   38.745    2.0432
   38.760    1.9800
   38.775    2.1906
   38.790    2.3697
   38.805    1.9800
   38.820    2.1696
   38.835    2.1906
   38.850    2.2959
   38.865    2.0958
   38.880    1.8220
   38.895    2.0432
   38.910    2.0642
   38.925    2.0221
   38.940    2.0116
   38.955    2.2222
   38.970    2.2012
   38.985    2.2012
   39.000    1.9168
   39.015    1.8957
   39.030    1.8641
   39.045    2.0011
   39.060    2.1696
   39.075    2.1380
   39.090    1.9168
   39.105    1.8536
   39.120    1.9800
   39.135    2.1590
   39.150    1.8325
   39.165    1.7483
   39.180    1.9695
   39.195    1.9589
   39.210    2.0432
   39.225    1.8536
   39.240    1.9905
   39.255    1.9905
   39.270    2.1380
   39.285    2.0642
   39.300    2.1274
   39.315    2.2117
   39.330    2.1696
   39.345    1.9379
   39.360    1.9379
   39.375    2.0642
   39.390    2.1169
   39.405    2.2538
   39.420    2.0432
   39.435    2.0326
   39.450    2.1801
   39.465    2.2643
   39.480    2.0432
   39.495    1.9695
   39.510    2.0116
   39.525    1.9695
   39.540    1.7588
   39.555    2.0116
   39.570    2.1169
   39.585    2.3065
   39.600    2.1696
   39.615    2.0642
   39.630    2.0853
   39.645    2.1274
   39.660    2.3170
   39.675    1.9905
   39.690    2.0116
   39.705    2.0011
   39.720    2.0853
   39.735    2.1485
   39.750    1.9589
   39.765    2.1801
   39.780    2.1485
   39.795    2.0011
   39.810    1.9063
   39.825    2.0326
   39.840    2.0011
   39.855    2.0326
   39.870    2.1801
   39.885    2.0537
   39.900    1.9379
   39.915    1.7483
   39.930    1.9905
   39.945    1.9905
   39.960    1.8747
   39.975    1.9695
   39.990    2.1274
