    1.500   23.6335
    1.515   23.2438
    1.530   24.0232
    1.545   23.0753
    1.560   22.5803
    1.575   22.5382
    1.590   22.2644
    1.605   21.7272
    1.620   21.1164
    1.635   21.2006
    1.650   21.2954
    1.665   21.4323
    1.680   21.0216
    1.695   21.4218
    1.710   20.9373
    1.725   20.8110
    1.740   20.4423
    1.755   19.9579
    1.770   20.0632
    1.785   19.8947
    1.800   19.8736
    1.815   19.5998
    1.830   18.8836
    1.845   19.1153
    1.860   18.6519
    1.875   18.2728
    1.890   19.3892
    1.905   18.6098
    1.920   18.7467
    1.935   18.5993
    1.950   18.1359
    1.965   17.5987
    1.980   17.3565
    1.995   17.2407
    2.010   17.8304
    2.025   17.5671
    2.040   17.7146
    2.055   17.1459
    2.070   17.1353
    2.085   17.5145
    2.100   17.1985
    2.115   17.0616
    2.130   16.9668
    2.145   17.0511
    2.160   17.2196
    2.175   17.0195
    2.190   16.3244
    2.205   16.6509
    2.220   16.5034
    2.235   15.8715
    2.250   16.1453
    2.265   15.8399
    2.280   15.6082
    2.295   16.2191
    2.310   15.9663
    2.325   15.9979
    2.340   15.9452
    2.355   15.5977
    2.370   15.5240
    2.385   15.5450
    2.400   14.9868
    2.415   15.8294
    2.430   16.2085
    2.445   15.9558
    2.460   15.9768
    2.475   16.1559
    2.490   16.0716
    2.505   15.7557
    2.520   15.6293
    2.535   15.3028
    2.550   15.2185
    2.565   15.0290
    2.580   15.5345
    2.595   15.4081
    2.610   15.5766
    2.625   15.3133
    2.640   15.6187
    2.655   14.8710
    2.670   15.5240
    2.685   15.5240
    2.700   15.8504
    2.715   15.1237
    2.730   15.2817
    2.745   15.9452
    2.760   15.9347
    2.775   15.9242
    2.790   16.0190
    2.805   15.8820
    2.820   15.4924
    2.835   15.7135
    2.850   15.5556
    2.865   15.5029
    2.880   15.8820
    2.895   15.9663
    2.910   16.3454
    2.925   16.3033
    2.940   16.2612
    2.955   16.4613
    2.970   16.5561
    2.985   16.4824
    3.000   16.5034
    3.015   16.4086
    3.030   16.5140
    3.045   16.1559
    3.060   17.3565
    3.075   17.0300
    3.090   16.8194
    3.105   17.9042
    3.120   17.9463
    3.135   17.5145
    3.150   17.3986
    3.165   18.1148
    3.180   18.3465
    3.195   18.1359
    3.210   18.1991
    3.225   18.5571
    3.240   19.1469
    3.255   19.4945
    3.270   19.4523
    3.285   19.7156
    3.300   20.4529
    3.315   20.7372
    3.330   21.2112
    3.345   21.7378
    3.360   20.8636
    3.375   20.7899
    3.390   21.9695
    3.405   22.8647
    3.420   23.5282
    3.435   24.0442
    3.450   23.6546
    3.465   25.0553
    3.480   25.7609
    3.495   25.3713
    3.510   27.0563
    3.525   27.4355
    3.540   28.9100
    3.555   28.8468
    3.570   29.4681
    3.585   30.4265
    3.600   31.2480
    3.615   32.5540
    3.630   32.9121
    3.645   34.1759
    3.660   35.4081
    3.675   36.6298
    3.690   38.4518
    3.705   39.3260
    3.720   42.2749
    3.735   44.5603
    3.750   46.5087
    3.765   49.7736
    3.780   52.7857
    3.795   54.6604
    3.810   60.2949
    3.825   63.8968
    3.840   69.7525
    3.855   78.1359
    3.870   87.1301
    3.885   95.8189
    3.900  101.8326
    3.915  102.3275
    3.930   94.3444
    3.945   78.4834
    3.960   58.1991
    3.975   39.1785
    3.990   25.2870
    4.005   18.8731
    4.020   15.3555
    4.035   13.9652
    4.050   12.7541
    4.065   11.5429
    4.080   11.5850
    4.095   11.5429
    4.110   10.8478
    4.125   11.1638
    4.140   10.5845
    4.155   10.3107
    4.170    9.9315
    4.185    9.9947
    4.200   10.1211
    4.215    9.9315
    4.230    9.8999
    4.245   10.0474
    4.260   10.0790
    4.275    9.7420
    4.290    9.3523
    4.305    9.6577
    4.320    9.1206
    4.335    9.2996
    4.350    9.2996
    4.365    9.4997
    4.380    9.5735
    4.395    9.4260
    4.410    9.3312
    4.425    8.9521
    4.440    8.8362
    4.455    9.2680
    4.470    9.1417
    4.485    9.2154
    4.500    9.4155
    4.515    9.3628
    4.530    8.9626
    4.545    9.6893
    4.560    9.2154
    4.575    9.4576
    4.590    9.9210
    4.605    9.3312
    4.620    9.2048
    4.635    9.4155
    4.650    8.9942
    4.665    9.2364
    4.680    9.1417
    4.695    9.0995
    4.710    9.0574
    4.725    9.2259
    4.740    9.4892
    4.755    9.5945
    4.770    9.7314
    4.785    9.2680
    4.800    9.3944
    4.815    9.7841
    4.830    9.5103
    4.845    9.6367
    4.860    9.9105
    4.875    9.2786
    4.890    9.3734
    4.905    9.6367
    4.920    9.7841
    4.935    9.5524
    4.950    9.5524
    4.965   10.1422
    4.980   10.3423
    4.995   10.3739
    5.010   10.2791
    5.025   10.3633
    5.040   11.2586
    5.055   10.8689
    5.070   10.8478
    5.085   11.2375
    5.100   11.5429
    5.115   10.9110
    5.130   11.1111
    5.145   11.5324
    5.160   11.7536
    5.175   12.0063
    5.190   12.1432
    5.205   12.6488
    5.220   12.2801
    5.235   12.6277
    5.250   13.7441
    5.265   13.9021
    5.280   13.9442
    5.295   14.2601
    5.310   15.0290
    5.325   14.7657
    5.340   16.0927
    5.355   16.5034
    5.370   16.5140
    5.385   16.9984
    5.400   18.1885
    5.415   20.0316
    5.430   20.8110
    5.445   21.9695
    5.460   23.5071
    5.475   25.4344
    5.490   28.0885
    5.505   30.8162
    5.520   32.2275
    5.535   33.7546
    5.550   31.2270
    5.565   27.8041
    5.580   22.2749
    5.595   16.4297
    5.610   12.9542
    5.625   10.8899
    5.640    9.5103
    5.655    9.1943
    5.670    8.9100
    5.685    8.7520
    5.700    8.7309
    5.715    8.8362
    5.730    8.6151
    5.745    8.2886
    5.760    8.2149
    5.775    7.7725
    5.790    7.8989
    5.805    8.2149
    5.820    8.4992
    5.835    7.8778
    5.850    8.3834
    5.865    7.6567
    5.880    7.8252
    5.895    7.6251
    5.910    7.6988
    5.925    7.8357
    5.940    7.9410
    5.955    8.0779
    5.970    7.7093
    5.985    7.5619
    6.000    7.7199
    6.015    7.9937
    6.030    7.9305
    6.045    7.8357
    6.060    7.9937
    6.075    7.5724
    6.090    7.3828
    6.105    8.0358
    6.120    8.0358
    6.135    8.2254
    6.150    8.2991
    6.165    7.9305
    6.180    7.9831
    6.195    8.3202
    6.210    8.2570
    6.225    8.1201
    6.240    7.9516
    6.255    7.7830
    6.270    7.7093
    6.285    8.0569
    6.300    7.9937
    6.315    8.3834
    6.330    7.9831
    6.345    7.8462
    6.360    8.1938
    6.375    8.1622
    6.390    8.3307
    6.405    8.4360
    6.420    8.3939
    6.435    8.2886
    6.450    7.8778
    6.465    8.7836
    6.480    8.7730
    6.495    8.4781
    6.510    8.2043
    6.525    8.6572
    6.540    8.5413
    6.555    8.8889
    6.570    8.5624
    6.585    8.6888
    6.600    8.7625
    6.615    8.9100
    6.630    9.3102
    6.645    9.6788
    6.660    9.4576
    6.675    9.6051
    6.690    9.9315
    6.705   10.3739
    6.720   10.6582
    6.735   10.7214
    6.750   11.8062
    6.765   11.4060
    6.780   11.6272
    6.795   11.5850
    6.810   11.4060
    6.825   10.3739
    6.840    9.2259
    6.855    8.3939
    6.870    7.9621
    6.885    7.7093
    6.900    7.9305
    6.915    7.8884
    6.930    7.9621
    6.945    8.2359
    6.960    7.8041
    6.975    7.6145
    6.990    7.3618
    7.005    7.8989
    7.020    7.8568
    7.035    7.3723
    7.050    7.9726
    7.065    7.7514
    7.080    7.6251
    7.095    7.4460
    7.110    7.4671
    7.125    7.9516
    7.140    8.2570
    7.155    8.0042
    7.170    8.3412
    7.185    7.9621
    7.200    7.4144
    7.215    7.6461
    7.230    7.7304
    7.245    7.6567
    7.260    7.8357
    7.275    7.6040
    7.290    7.6251
    7.305    7.8568
    7.320    8.0358
    7.335    7.8462
    7.350    8.3728
    7.365    8.1095
    7.380    8.0147
    7.395    8.1938
    7.410    8.3096
    7.425    8.3096
    7.440    8.1201
    7.455    8.4571
    7.470    8.3834
    7.485    8.3307
    7.500    8.1833
    7.515    8.6256
    7.530    8.5729
    7.545    9.0469
    7.560    8.5519
    7.575    8.0885
    7.590    8.2991
    7.605    8.8889
    7.620    9.3944
    7.635    9.4892
    7.650    9.2575
    7.665    9.1311
    7.680    9.7209
    7.695   10.0369
    7.710   10.4265
    7.725   10.5108
    7.740   11.1848
    7.755   12.2907
    7.770   11.9642
    7.785   12.9542
    7.800   13.3860
    7.815   13.6704
    7.830   13.6493
    7.845   13.3333
    7.860   12.6066
    7.875   11.6798
    7.890   10.6477
    7.905    9.2154
    7.920    8.5097
    7.935    8.5624
    7.950    8.0358
    7.965    8.0569
    7.980    7.9410
    7.995    7.9516
    8.010    7.8778
    8.025    7.5619
    8.040    7.4671
    8.055    7.4250
    8.070    7.9831
    8.085    7.8884
    8.100    7.6251
    8.115    7.6777
    8.130    7.7199
    8.145    8.1833
    8.160    8.1201
    8.175    7.8146
    8.190    8.0253
    8.205    7.7620
    8.220    7.6883
    8.235    8.0253
    8.250    7.9831
    8.265    8.0147
    8.280    7.8673
    8.295    7.8041
    8.310    7.9410
    8.325    8.0990
    8.340    7.8673
    8.355    7.8778
    8.370    8.0463
    8.385    7.7620
    8.400    8.1411
    8.415    8.0990
    8.430    7.7725
    8.445    7.8041
    8.460    7.5513
    8.475    8.1938
    8.490    8.0463
    8.505    7.7725
    8.520    7.4882
    8.535    7.7725
    8.550    8.3307
    8.565    8.3728
    8.580    8.0990
    8.595    8.2043
    8.610    7.9094
    8.625    8.2886
    8.640    8.4676
    8.655    8.2149
    8.670    8.4466
    8.685    8.4571
    8.700    8.3939
    8.715    8.6467
    8.730    8.6467
    8.745    8.4887
    8.760    8.6361
    8.775    8.3623
    8.790    8.2570
    8.805    8.0253
    8.820    8.1727
    8.835    7.9200
    8.850    8.0253
    8.865    8.3518
    8.880    7.5935
    8.895    7.8673
    8.910    7.8252
    8.925    8.4255
    8.940    7.5935
    8.955    7.6883
    8.970    7.8252
    8.985    8.1622
    9.000    8.0990
    9.015    8.1833
    9.030    8.1411
    9.045    7.7199
    9.060    8.2043
    9.075    8.1411
    9.090    8.3728
    9.105    8.6888
    9.120    8.1411
    9.135    8.3096
    9.150    8.9205
    9.165    8.9521
    9.180    9.0363
    9.195    8.7414
    9.210    8.4571
    9.225    8.5203
    9.240    8.9626
    9.255    9.3628
    9.270    9.1627
    9.285    9.0469
    9.300    9.1206
    9.315    9.2891
    9.330    9.6261
    9.345    9.8684
    9.360    9.6893
    9.375   10.0053
    9.390   10.3949
    9.405   10.9005
    9.420   11.7957
    9.435   11.6482
    9.450   12.1643
    9.465   12.9121
    9.480   13.3860
    9.495   14.5972
    9.510   15.4292
    9.525   15.6714
    9.540   16.8720
    9.555   18.7994
    9.570   20.6951
    9.585   20.8636
    9.600   20.6530
    9.615   19.4207
    9.630   18.2728
    9.645   15.2712
    9.660   13.1543
    9.675   10.9953
    9.690    9.8157
    9.705    9.0574
    9.720    8.9837
    9.735    8.8257
    9.750    8.2359
    9.765    8.4466
    9.780    8.4992
    9.795    8.2675
    9.810    8.1938
    9.825    8.0147
    9.840    8.0569
    9.855    8.4466
    9.870    8.1306
    9.885    8.7098
    9.900    8.2254
    9.915    8.7836
    9.930    8.8257
    9.945    7.9516
    9.960    8.0990
    9.975    8.1095
    9.990    8.2675
   10.005    8.0885
   10.020    8.3623
   10.035    8.3834
   10.050    8.2359
   10.065    8.4887
   10.080    8.4466
   10.095    8.6151
   10.110    8.7836
   10.125    8.7625
   10.140    8.4887
   10.155    8.8468
   10.170    9.0047
   10.185    9.0469
   10.200    8.7730
   10.215    9.0574
   10.230    9.2048
   10.245    8.6993
   10.260    8.8573
   10.275    9.4471
   10.290    9.7736
   10.305   10.1527
   10.320   10.2686
   10.335   10.9215
   10.350   11.1954
   10.365   11.1322
   10.380   10.8162
   10.395   10.3949
   10.410   10.0895
   10.425    9.4681
   10.440    8.6467
   10.455    8.4571
   10.470    8.8362
   10.485    8.3834
   10.500    8.1201
   10.515    8.5835
   10.530    8.3939
   10.545    8.4255
   10.560    7.7304
   10.575    7.6777
   10.590    8.1306
   10.605    8.4466
   10.620    8.1095
   10.635    8.1201
   10.650    8.1833
   10.665    8.0253
   10.680    8.0463
   10.695    7.8884
   10.710    7.7830
   10.725    8.1306
   10.740    8.2359
   10.755    7.7409
   10.770    7.8673
   10.785    7.7936
   10.800    8.3728
   10.815    8.0253
   10.830    8.2675
   10.845    8.6467
   10.860    8.5729
   10.875    8.1833
   10.890    8.8678
   10.905    8.6677
   10.920    8.6151
   10.935    8.8152
   10.950    8.8784
   10.965    9.0153
   10.980    9.0995
   10.995    9.4155
   11.010   10.2896
   11.025   10.6898
   11.040   10.9005
   11.055   11.0795
   11.070   11.1532
   11.085   11.9958
   11.100   11.7009
   11.115   10.5003
   11.130    9.6261
   11.145    9.2575
   11.160    9.0258
   11.175    8.1727
   11.190    7.7725
   11.205    8.0042
   11.220    8.2570
   11.235    7.9094
   11.250    7.9516
   11.265    8.1517
   11.280    7.7620
   11.295    7.8778
   11.310    7.8146
   11.325    7.6251
   11.340    7.5513
   11.355    7.4776
   11.370    7.6251
   11.385    7.9094
   11.400    7.7304
   11.415    7.6672
   11.430    7.4460
   11.445    7.5935
   11.460    7.8357
   11.475    7.8462
   11.490    7.8778
   11.505    7.8462
   11.520    7.9937
   11.535    8.2043
   11.550    8.1938
   11.565    7.9621
   11.580    8.2149
   11.595    8.1622
   11.610    8.3939
   11.625    8.2359
   11.640    8.3518
   11.655    8.8573
   11.670    8.8889
   11.685    9.4997
   11.700    9.8789
   11.715    9.5103
   11.730    9.8262
   11.745   10.6372
   11.760    9.9947
   11.775   10.1001
   11.790    9.6682
   11.805    9.3102
   11.820    9.0995
   11.835    8.4150
   11.850    7.8462
   11.865    7.7304
   11.880    7.5408
   11.895    7.4882
   11.910    7.2775
   11.925    7.3934
   11.940    7.4039
   11.955    7.7409
   11.970    7.9621
   11.985    7.1406
   12.000    7.3723
   12.015    7.1406
   12.030    7.6145
   12.045    7.1722
   12.060    7.2565
   12.075    7.3302
   12.090    7.7830
   12.105    7.6040
   12.120    7.2459
   12.135    7.0353
   12.150    6.9300
   12.165    7.3618
   12.180    7.5724
   12.195    7.5092
   12.210    7.2354
   12.225    7.4460
   12.240    7.2670
   12.255    7.3723
   12.270    7.4882
   12.285    7.3302
   12.300    7.3302
   12.315    7.4882
   12.330    7.3618
   12.345    7.8989
   12.360    7.6356
   12.375    7.4671
   12.390    7.5303
   12.405    7.6777
   12.420    7.4671
   12.435    7.6883
   12.450    7.6883
   12.465    7.5935
   12.480    7.1722
   12.495    6.8352
   12.510    7.0458
   12.525    7.1511
   12.540    7.1511
   12.555    6.9089
   12.570    6.9300
   12.585    6.6561
   12.600    6.6772
   12.615    7.3091
   12.630    7.3828
   12.645    7.2354
   12.660    6.9932
   12.675    7.0142
   12.690    7.4460
   12.705    7.5408
   12.720    7.2249
   12.735    6.9932
   12.750    7.0985
   12.765    6.6561
   12.780    6.9089
   12.795    7.0037
   12.810    7.1301
   12.825    7.2038
   12.840    7.3196
   12.855    7.3828
   12.870    7.7830
   12.885    7.6356
   12.900    7.9094
   12.915    7.6777
   12.930    7.5935
   12.945    7.8146
   12.960    8.4044
   12.975    8.5203
   12.990    8.7836
   13.005    8.8257
   13.020    8.5835
   13.035    8.6467
   13.050    8.0885
   13.065    7.8146
   13.080    7.8568
   13.095    7.2249
   13.110    7.0563
   13.125    7.3302
   13.140    6.8773
   13.155    6.9089
   13.170    6.7509
   13.185    7.2670
   13.200    6.5613
   13.215    6.9932
   13.230    6.9405
   13.245    7.1301
   13.260    7.0563
   13.275    7.3828
   13.290    6.8457
   13.305    6.9826
   13.320    6.8984
   13.335    6.8036
   13.350    7.1617
   13.365    6.7930
   13.380    7.0985
   13.395    7.0669
   13.410    6.9932
   13.425    7.1511
   13.440    7.0879
   13.455    7.2880
   13.470    7.2354
   13.485    7.2249
   13.500    7.5092
   13.515    7.4671
   13.530    7.3302
   13.545    7.4882
   13.560    7.6040
   13.575    7.6145
   13.590    7.6988
   13.605    7.7514
   13.620    7.5935
   13.635    7.2038
   13.650    7.0458
   13.665    7.2249
   13.680    7.2880
   13.695    7.1090
   13.710    7.0669
   13.725    7.2143
   13.740    7.0142
   13.755    7.1722
   13.770    6.9721
   13.785    6.7720
   13.800    6.8668
   13.815    6.7720
   13.830    6.5824
   13.845    6.9721
   13.860    7.2565
   13.875    7.3934
   13.890    7.4250
   13.905    6.9616
   13.920    6.9826
   13.935    6.7615
   13.950    6.7404
   13.965    7.5619
   13.980    7.6251
   13.995    7.0563
   14.010    7.2986
   14.025    7.7304
   14.040    7.3512
   14.055    7.8146
   14.070    7.6461
   14.085    8.0253
   14.100    8.4676
   14.115    8.2780
   14.130    8.7836
   14.145    9.2575
   14.160    8.1938
   14.175    8.3728
   14.190    7.9937
   14.205    7.5619
   14.220    7.1617
   14.235    7.2143
   14.250    6.7930
   14.265    6.7825
   14.280    6.8036
   14.295    7.0563
   14.310    6.7825
   14.325    7.0248
   14.340    7.0037
   14.355    7.0142
   14.370    6.7825
   14.385    6.7193
   14.400    6.7509
   14.415    6.6456
   14.430    6.8141
   14.445    7.3828
   14.460    6.7930
   14.475    6.8457
   14.490    6.6245
   14.505    6.7509
   14.520    6.6561
   14.535    7.1195
   14.550    6.9826
   14.565    6.7088
   14.580    7.0142
   14.595    7.2670
   14.610    7.0037
   14.625    6.4034
   14.640    6.5508
   14.655    7.2143
   14.670    7.0458
   14.685    6.7404
   14.700    6.7299
   14.715    6.4139
   14.730    6.6035
   14.745    6.9300
   14.760    6.7193
   14.775    7.0248
   14.790    6.6140
   14.805    7.0774
   14.820    6.7193
   14.835    6.5613
   14.850    6.6456
   14.865    6.8562
   14.880    6.8668
   14.895    7.0563
   14.910    6.7299
   14.925    6.6772
   14.940    6.8036
   14.955    6.9510
   14.970    6.6351
   14.985    6.5824
   15.000    6.7404
   15.015    7.0774
   15.030    6.7088
   15.045    7.0669
   15.060    6.9932
   15.075    6.9510
   15.090    6.6035
   15.105    6.9932
   15.120    6.9194
   15.135    7.0037
   15.150    6.9194
   15.165    6.8668
   15.180    6.9826
   15.195    7.3091
   15.210    7.3934
   15.225    7.4250
   15.240    6.9721
   15.255    6.7193
   15.270    7.1511
   15.285    6.8668
   15.300    6.7088
   15.315    7.0879
   15.330    6.8562
   15.345    6.2349
   15.360    6.7720
   15.375    6.7509
   15.390    6.8246
   15.405    6.9932
   15.420    6.8773
   15.435    7.0353
   15.450    6.6035
   15.465    6.4876
   15.480    7.0037
   15.495    6.4455
   15.510    6.8352
   15.525    6.7930
   15.540    6.8668
   15.555    6.5824
   15.570    6.7088
   15.585    7.1933
   15.600    6.8036
   15.615    7.0563
   15.630    6.8773
   15.645    6.6877
   15.660    6.4455
   15.675    6.2243
   15.690    6.2981
   15.705    6.4876
   15.720    6.7825
   15.735    6.3402
   15.750    6.8036
   15.765    7.0037
   15.780    6.8141
   15.795    6.8036
   15.810    6.6351
   15.825    6.7404
   15.840    6.8141
   15.855    7.1827
   15.870    6.5403
   15.885    6.9826
   15.900    6.7825
   15.915    6.8668
   15.930    6.5087
   15.945    6.3402
   15.960    6.8668
   15.975    6.8036
   15.990    6.9405
   16.005    7.0458
   16.020    6.8773
   16.035    6.7615
   16.050    6.6456
   16.065    7.3934
   16.080    6.8141
   16.095    6.6140
   16.110    7.3302
   16.125    7.5829
   16.140    7.2459
   16.155    7.4882
   16.170    7.5092
   16.185    7.8357
   16.200    7.2038
   16.215    7.4776
   16.230    7.5829
   16.245    7.0458
   16.260    6.9300
   16.275    6.7193
   16.290    6.6035
   16.305    7.2143
   16.320    7.0353
   16.335    6.9405
   16.350    6.4771
   16.365    6.2875
   16.380    6.8457
   16.395    6.7404
   16.410    6.7825
   16.425    6.6140
   16.440    7.0037
   16.455    7.4566
   16.470    6.8457
   16.485    7.0248
   16.500    6.8036
   16.515    6.7615
   16.530    6.9300
   16.545    7.0879
   16.560    6.8562
   16.575    6.9826
   16.590    6.8141
   16.605    6.9089
   16.620    6.5087
   16.635    6.9510
   16.650    7.0879
   16.665    7.0563
   16.680    7.0248
   16.695    7.2565
   16.710    7.1301
   16.725    6.9089
   16.740    6.9405
   16.755    6.8668
   16.770    6.8246
   16.785    6.9194
   16.800    7.0142
   16.815    7.1511
   16.830    6.8457
   16.845    6.7088
   16.860    7.0248
   16.875    6.9616
   16.890    6.5192
   16.905    6.9194
   16.920    7.5513
   16.935    7.2459
   16.950    7.3618
   16.965    7.4566
   16.980    7.2880
   16.995    7.2038
   17.010    7.8146
   17.025    7.6251
   17.040    7.8252
   17.055    8.0885
   17.070    8.4466
   17.085    8.3518
   17.100    8.6572
   17.115    8.7836
   17.130    8.6572
   17.145    8.0885
   17.160    8.0674
   17.175    8.3728
   17.190    7.9305
   17.205    7.2459
   17.220    7.1301
   17.235    7.2670
   17.250    6.9194
   17.265    6.9510
   17.280    7.0774
   17.295    6.9932
   17.310    6.8141
   17.325    6.6245
   17.340    6.8668
   17.355    6.7404
   17.370    6.9616
   17.385    7.1195
   17.400    6.5824
   17.415    6.3402
   17.430    6.8878
   17.445    6.7615
   17.460    7.1406
   17.475    6.8141
   17.490    6.8457
   17.505    7.1722
   17.520    6.8457
   17.535    7.2143
   17.550    6.9721
   17.565    7.4144
   17.580    7.2143
   17.595    7.1195
   17.610    7.1090
   17.625    7.1511
   17.640    6.7930
   17.655    7.2775
   17.670    7.0774
   17.685    7.0563
   17.700    6.8668
   17.715    6.5298
   17.730    6.8878
   17.745    6.9300
   17.760    6.9616
   17.775    6.9405
   17.790    7.0985
   17.805    7.2143
   17.820    6.9300
   17.835    6.7088
   17.850    6.7088
   17.865    6.7193
   17.880    7.1406
   17.895    7.1195
   17.910    6.9194
   17.925    6.5824
   17.940    6.8878
   17.955    7.1511
   17.970    7.1617
   17.985    7.3618
   18.000    7.0879
   18.015    7.0985
   18.030    7.1722
   18.045    6.9300
   18.060    7.3934
   18.075    6.8668
   18.090    7.2880
   18.105    6.7193
   18.120    6.8668
   18.135    7.0563
   18.150    7.1722
   18.165    6.7615
   18.180    6.9932
   18.195    6.6351
   18.210    6.7193
   18.225    6.8878
   18.240    6.7720
   18.255    7.0248
   18.270    7.1406
   18.285    6.8878
   18.300    6.8878
   18.315    7.0037
   18.330    7.2143
   18.345    7.2670
   18.360    6.9194
   18.375    7.0458
   18.390    7.2670
   18.405    6.7720
   18.420    7.3828
   18.435    7.2775
   18.450    7.0248
   18.465    7.3618
   18.480    7.0985
   18.495    7.0037
   18.510    6.6772
   18.525    7.0353
   18.540    6.9826
   18.555    6.9089
   18.570    6.9300
   18.585    6.5192
   18.600    6.2665
   18.615    6.8457
   18.630    6.5824
   18.645    6.8352
   18.660    6.8141
   18.675    7.1827
   18.690    6.8352
   18.705    6.7299
   18.720    6.5613
   18.735    6.8668
   18.750    6.5087
   18.765    6.6351
   18.780    7.2143
   18.795    6.5298
   18.810    6.7720
   18.825    6.9405
   18.840    6.9405
   18.855    6.6983
   18.870    6.7720
   18.885    7.1722
   18.900    6.6140
   18.915    7.1511
   18.930    7.1090
   18.945    7.3302
   18.960    6.9089
   18.975    6.8457
   18.990    6.9510
   19.005    7.0563
   19.020    6.9300
   19.035    7.0037
   19.050    7.0879
   19.065    7.1090
   19.080    7.0458
   19.095    7.4566
   19.110    6.9826
   19.125    6.6667
   19.140    7.0879
   19.155    7.0037
   19.170    6.6351
   19.185    6.8562
   19.200    7.0248
   19.215    6.4876
   19.230    6.4771
   19.245    6.9826
   19.260    6.8036
   19.275    6.8036
   19.290    6.7509
   19.305    6.5613
   19.320    6.8352
   19.335    7.3196
   19.350    6.7720
   19.365    6.9300
   19.380    6.5192
   19.395    6.8562
   19.410    6.7509
   19.425    7.1195
   19.440    6.8246
   19.455    6.6772
   19.470    6.8036
   19.485    6.8878
   19.500    6.8562
   19.515    6.7615
   19.530    7.0879
   19.545    7.0774
   19.560    7.3196
   19.575    7.1301
   19.590    7.3091
   19.605    7.7304
   19.620    7.4882
   19.635    7.1827
   19.650    7.5513
   19.665    7.4566
   19.680    7.1195
   19.695    7.0669
   19.710    7.4460
   19.725    7.4355
   19.740    7.1511
   19.755    7.0353
   19.770    7.1617
   19.785    6.8352
   19.800    6.9616
   19.815    6.5087
   19.830    6.8457
   19.845    6.4244
   19.860    7.1301
   19.875    6.8457
   19.890    7.0669
   19.905    7.0563
   19.920    6.7193
   19.935    6.7825
   19.950    7.4144
   19.965    6.9405
   19.980    6.9194
   19.995    6.5298
   20.010    6.8773
   20.025    7.3512
   20.040    7.0353
   20.055    7.0248
   20.070    7.1090
   20.085    7.1933
   20.100    6.8984
   20.115    6.9826
   20.130    7.1511
   20.145    7.5619
   20.160    7.2038
   20.175    7.2038
   20.190    7.0248
   20.205    6.9194
   20.220    7.0353
   20.235    6.9721
   20.250    6.7615
   20.265    7.0353
   20.280    7.1511
   20.295    7.2143
   20.310    7.0037
   20.325    7.4039
   20.340    7.6672
   20.355    7.2143
   20.370    7.7304
   20.385    7.5724
   20.400    7.9200
   20.415    7.5829
   20.430    7.7830
   20.445    7.8778
   20.460    8.0885
   20.475    7.9937
   20.490    7.7725
   20.505    7.4671
   20.520    7.4460
   20.535    7.2249
   20.550    7.2249
   20.565    7.1406
   20.580    7.2565
   20.595    6.9510
   20.610    7.3407
   20.625    7.2670
   20.640    7.5303
   20.655    7.1617
   20.670    7.1617
   20.685    7.1617
   20.700    7.0248
   20.715    6.7509
   20.730    6.7930
   20.745    6.9194
   20.760    6.9721
   20.775    6.7720
   20.790    6.9616
   20.805    6.6351
   20.820    6.8773
   20.835    7.2880
   20.850    7.0037
   20.865    7.1090
   20.880    6.9932
   20.895    6.6983
   20.910    7.2670
   20.925    7.3723
   20.940    7.1933
   20.955    7.1617
   20.970    6.9932
   20.985    7.1722
   21.000    7.0037
   21.015    7.0248
   21.030    7.3196
   21.045    7.3512
   21.060    7.0142
   21.075    7.2565
   21.090    7.3091
   21.105    7.2565
   21.120    7.3407
   21.135    6.9089
   21.150    7.2249
   21.165    6.7615
   21.180    6.5929
   21.195    7.3934
   21.210    7.4144
   21.225    6.7193
   21.240    6.8878
   21.255    7.0669
   21.270    7.1301
   21.285    6.5824
   21.300    7.0774
   21.315    7.0248
   21.330    7.3618
   21.345    7.0669
   21.360    7.1933
   21.375    6.9510
   21.390    7.1301
   21.405    6.7404
   21.420    7.0879
   21.435    6.7615
   21.450    7.0669
   21.465    6.7088
   21.480    6.6245
   21.495    7.2249
   21.510    7.6251
   21.525    7.3196
   21.540    7.2670
   21.555    7.1511
   21.570    6.8246
   21.585    7.1933
   21.600    7.0248
   21.615    7.0985
   21.630    7.0458
   21.645    7.2565
   21.660    7.2775
   21.675    7.4355
   21.690    7.1406
   21.705    7.2986
   21.720    7.2459
   21.735    7.0774
   21.750    7.2143
   21.765    6.7930
   21.780    7.2565
   21.795    7.4355
   21.810    6.8562
   21.825    7.1301
   21.840    7.6777
   21.855    7.2775
   21.870    7.7830
   21.885    7.6672
   21.900    7.6040
   21.915    7.4776
   21.930    7.5092
   21.945    7.8778
   21.960    7.6567
   21.975    7.4144
   21.990    7.5513
   22.005    7.4355
   22.020    7.0142
   22.035    7.3302
   22.050    7.5092
   22.065    7.7936
   22.080    7.6040
   22.095    7.2565
   22.110    7.4671
   22.125    7.1301
   22.140    6.7509
   22.155    7.0353
   22.170    7.4566
   22.185    8.1517
   22.200    7.3302
   22.215    7.2670
   22.230    7.5724
   22.245    7.6672
   22.260    7.4250
   22.275    7.2038
   22.290    7.3091
   22.305    7.8041
   22.320    7.8041
   22.335    7.6040
   22.350    7.4987
   22.365    7.6145
   22.380    7.5197
   22.395    7.1195
   22.410    7.1722
   22.425    7.4671
   22.440    7.5935
   22.455    7.3618
   22.470    7.6988
   22.485    7.9621
   22.500    7.7199
   22.515    7.6567
   22.530    8.0779
   22.545    8.1095
   22.560    8.5308
   22.575    8.7730
   22.590    9.2575
   22.605    8.8573
   22.620    8.9626
   22.635    8.5729
   22.650    8.4887
   22.665    8.4255
   22.680    8.4781
   22.695    7.9831
   22.710    8.2043
   22.725    7.6883
   22.740    7.6777
   22.755    7.5724
   22.770    7.4671
   22.785    7.5408
   22.800    7.2986
   22.815    7.4671
   22.830    7.7830
   22.845    7.5935
   22.860    8.3518
   22.875    8.0042
   22.890    8.2780
   22.905    7.9621
   22.920    8.3834
   22.935    8.5519
   22.950    8.6045
   22.965    8.6783
   22.980    8.6572
   22.995    8.7414
   23.010    8.6783
   23.025    7.9831
   23.040    7.8041
   23.055    7.9305
   23.070    7.4671
   23.085    7.5935
   23.100    7.3091
   23.115    7.3302
   23.130    7.5092
   23.145    7.4987
   23.160    7.4566
   23.175    7.5408
   23.190    7.4776
   23.205    7.5724
   23.220    7.6567
   23.235    7.6777
   23.250    7.5303
   23.265    7.6461
   23.280    7.4355
   23.295    7.2880
   23.310    7.4250
   23.325    7.8041
   23.340    7.4671
   23.355    7.6251
   23.370    7.7199
   23.385    7.3934
   23.400    6.8352
   23.415    7.2354
   23.430    7.5829
   23.445    7.6251
   23.460    7.0985
   23.475    7.3407
   23.490    7.4039
   23.505    6.9932
   23.520    7.5303
   23.535    7.3407
   23.550    7.6777
   23.565    6.9826
   23.580    6.9826
   23.595    7.5092
   23.610    7.3196
   23.625    7.0563
   23.640    6.8878
   23.655    7.2880
   23.670    7.5513
   23.685    7.4566
   23.700    7.3618
   23.715    6.9721
   23.730    7.0037
   23.745    7.2354
   23.760    6.8668
   23.775    6.9510
   23.790    7.0985
   23.805    7.6040
   23.820    7.2670
   23.835    7.1090
   23.850    7.5092
   23.865    7.7514
   23.880    6.9616
   23.895    7.3828
   23.910    7.5829
   23.925    7.1406
   23.940    7.6777
   23.955    7.8357
   23.970    7.8146
   23.985    7.5619
   24.000    7.7725
   24.015    7.7620
   24.030    7.2880
   24.045    6.9089
   24.060    7.4671
   24.075    7.6461
   24.090    6.7825
   24.105    7.2986
   24.120    7.3302
   24.135    7.2565
   24.150    7.0353
   24.165    6.7404
   24.180    7.1722
   24.195    7.1195
   24.210    6.4982
   24.225    7.2986
   24.240    6.9932
   24.255    6.6877
   24.270    7.0458
   24.285    7.0774
   24.300    7.3723
   24.315    7.0353
   24.330    7.3091
   24.345    6.8773
   24.360    7.3302
   24.375    7.1406
   24.390    7.3091
   24.405    7.3196
   24.420    6.7825
   24.435    7.0985
   24.450    7.2670
   24.465    6.8878
   24.480    7.3196
   24.495    7.0669
   24.510    6.8878
   24.525    7.0774
   24.540    6.8457
   24.555    6.9932
   24.570    7.2038
   24.585    6.9300
   24.600    7.0458
   24.615    7.2354
   24.630    6.8668
   24.645    6.8773
   24.660    6.9932
   24.675    7.1511
   24.690    7.3828
   24.705    6.8878
   24.720    6.6561
   24.735    6.9932
   24.750    6.7299
   24.765    7.0142
   24.780    6.6772
   24.795    6.9616
   24.810    7.2143
   24.825    6.9089
   24.840    7.1301
   24.855    7.0879
   24.870    7.0563
   24.885    7.0563
   24.900    7.0563
   24.915    7.2670
   24.930    7.5513
   24.945    7.1301
   24.960    7.0669
   24.975    6.8773
   24.990    6.7299
   25.005    7.2670
   25.020    6.7088
   25.035    6.7193
   25.050    6.8141
   25.065    6.9089
   25.080    6.8668
   25.095    6.8036
   25.110    6.9405
   25.125    7.0142
   25.140    6.9194
   25.155    6.8141
   25.170    7.2670
   25.185    7.2354
   25.200    7.1090
   25.215    7.1406
   25.230    7.0563
   25.245    6.8878
   25.260    7.1301
   25.275    7.2565
   25.290    7.5619
   25.305    7.0669
   25.320    6.9616
   25.335    6.7509
   25.350    7.2143
   25.365    6.8984
   25.380    7.0879
   25.395    6.8562
   25.410    7.2249
   25.425    6.8773
   25.440    6.8562
   25.455    6.6035
   25.470    6.7615
   25.485    7.1617
   25.500    7.0563
   25.515    6.9826
   25.530    6.9194
   25.545    7.3091
   25.560    7.0879
   25.575    6.8984
   25.590    6.8352
   25.605    7.1827
   25.620    7.3934
   25.635    7.4671
   25.650    7.4355
   25.665    7.6356
   25.680    6.9194
   25.695    6.7825
   25.710    6.6245
   25.725    6.8878
   25.740    7.0879
   25.755    7.1933
   25.770    7.4039
   25.785    6.9932
   25.800    7.3196
   25.815    7.1933
   25.830    7.9305
   25.845    7.8146
   25.860    7.7304
   25.875    8.0569
   25.890    7.8673
   25.905    7.6672
   25.920    7.5935
   25.935    7.8252
   25.950    7.6145
   25.965    7.3828
   25.980    7.4460
   25.995    7.3618
   26.010    7.1195
   26.025    6.9826
   26.040    6.8246
   26.055    6.6456
   26.070    6.8562
   26.085    6.6772
   26.100    6.4876
   26.115    6.6456
   26.130    6.9089
   26.145    6.9089
   26.160    6.9932
   26.175    6.6983
   26.190    6.9194
   26.205    6.8878
   26.220    6.7930
   26.235    6.7930
   26.250    6.7509
   26.265    6.5087
   26.280    6.5508
   26.295    6.6456
   26.310    6.4982
   26.325    6.6561
   26.340    6.9089
   26.355    6.8984
   26.370    7.0879
   26.385    6.9932
   26.400    7.0248
   26.415    7.2986
   26.430    6.9405
   26.445    7.0353
   26.460    6.9089
   26.475    6.8457
   26.490    6.8878
   26.505    6.7930
   26.520    6.4139
   26.535    6.8141
   26.550    6.9089
   26.565    6.7404
   26.580    6.6245
   26.595    6.7404
   26.610    6.9194
   26.625    6.8773
   26.640    6.8984
   26.655    6.8036
   26.670    6.2454
   26.685    6.9510
   26.700    6.9510
   26.715    6.6456
   26.730    6.9932
   26.745    7.0353
   26.760    6.4455
   26.775    6.3612
   26.790    6.6877
   26.805    6.4139
   26.820    6.4139
   26.835    6.8984
   26.850    6.8141
   26.865    6.5298
   26.880    7.1827
   26.895    6.8562
   26.910    6.6351
   26.925    6.7193
   26.940    6.8457
   26.955    6.5403
   26.970    6.8878
   26.985    7.3196
   27.000    6.4244
   27.015    7.0563
   27.030    6.8141
   27.045    7.3934
   27.060    7.0458
   27.075    6.9510
   27.090    6.9089
   27.105    7.1617
   27.120    7.0669
   27.135    6.8457
   27.150    6.6561
   27.165    7.0037
   27.180    6.7404
   27.195    6.7509
   27.210    6.6456
   27.225    6.4034
   27.240    6.6140
   27.255    6.5719
   27.270    6.6245
   27.285    6.7193
   27.300    6.6772
   27.315    7.0037
   27.330    6.5824
   27.345    6.6877
   27.360    6.7930
   27.375    6.3718
   27.390    6.4982
   27.405    6.5824
   27.420    6.5719
   27.435    6.5403
   27.450    6.7930
   27.465    6.4455
   27.480    6.5192
   27.495    6.5824
   27.510    6.4560
   27.525    6.5719
   27.540    6.6983
   27.555    6.6561
   27.570    6.6456
   27.585    6.5087
   27.600    6.6772
   27.615    7.0142
   27.630    6.7930
   27.645    6.8878
   27.660    6.5508
   27.675    6.4560
   27.690    6.7509
   27.705    6.8984
   27.720    6.7088
   27.735    6.5508
   27.750    6.5824
   27.765    6.4350
   27.780    6.5508
   27.795    6.7088
   27.810    6.5929
   27.825    6.5508
   27.840    6.7825
   27.855    6.6667
   27.870    6.4455
   27.885    6.4666
   27.900    6.8352
   27.915    6.5824
   27.930    6.2559
   27.945    6.4560
   27.960    6.7193
   27.975    6.6877
   27.990    6.7825
   28.005    6.9300
   28.020    6.9721
   28.035    6.6351
   28.050    6.9932
   28.065    7.1301
   28.080    6.7299
   28.095    6.8352
   28.110    6.4666
   28.125    6.7825
   28.140    6.8773
   28.155    6.5929
   28.170    6.6561
   28.185    6.7088
   28.200    6.7193
   28.215    6.9405
   28.230    6.7193
   28.245    6.8984
   28.260    6.7088
   28.275    7.2775
   28.290    7.0774
   28.305    7.0669
   28.320    6.8773
   28.335    6.7404
   28.350    6.5298
   28.365    6.7193
   28.380    6.9510
   28.395    6.4034
   28.410    6.5719
   28.425    6.7930
   28.440    6.4139
   28.455    6.4560
   28.470    6.7509
   28.485    6.9510
   28.500    6.7404
   28.515    6.7930
   28.530    6.7720
   28.545    6.5087
   28.560    6.4244
   28.575    6.5403
   28.590    6.3928
   28.605    6.5403
   28.620    6.6983
   28.635    6.1085
   28.650    6.1295
   28.665    6.4455
   28.680    6.5929
   28.695    6.1717
   28.710    6.0558
   28.725    6.3718
   28.740    6.5403
   28.755    6.6667
   28.770    6.1822
   28.785    6.5192
   28.800    6.5824
   28.815    6.5403
   28.830    6.2981
   28.845    6.3823
   28.860    6.1295
   28.875    6.3612
   28.890    6.3086
   28.905    6.0664
   28.920    6.2665
   28.935    6.2875
   28.950    6.3296
   28.965    6.1611
   28.980    6.4350
   28.995    6.3086
   29.010    6.1927
   29.025    6.4666
   29.040    6.6351
   29.055    6.3086
   29.070    6.1822
   29.085    6.4244
   29.100    6.6035
   29.115    6.4244
   29.130    6.4982
   29.145    6.1295
   29.160    6.2243
   29.175    6.3507
   29.190    6.5192
   29.205    6.2770
   29.220    5.9926
   29.235    6.2349
   29.250    6.4139
   29.265    6.3823
   29.280    6.0558
   29.295    6.7299
   29.310    6.5403
   29.325    6.1506
   29.340    6.0769
   29.355    6.4666
   29.370    6.7509
   29.385    6.6245
   29.400    6.5403
   29.415    6.3718
   29.430    6.2665
   29.445    6.3296
   29.460    6.3402
   29.475    6.4982
   29.490    6.3086
   29.505    5.9084
   29.520    6.3086
   29.535    6.1927
   29.550    6.1822
   29.565    6.1506
   29.580    6.5192
   29.595    6.1295
   29.610    5.7820
   29.625    6.2243
   29.640    6.3612
   29.655    5.9926
   29.670    6.0242
   29.685    6.1085
   29.700    6.0874
   29.715    6.0453
   29.730    6.4771
   29.745    6.3191
   29.760    5.9821
   29.775    6.0348
   29.790    6.2033
   29.805    6.3718
   29.820    6.3402
   29.835    6.3928
   29.850    6.5087
   29.865    6.2349
   29.880    6.1085
   29.895    6.1822
   29.910    6.0137
   29.925    6.3402
   29.940    6.4350
   29.955    6.2981
   29.970    5.7609
   29.985    6.0769
   30.000    6.2770
   30.015    6.0558
   30.030    5.9716
   30.045    5.9400
   30.060    5.8873
   30.075    5.7925
   30.090    5.6661
   30.105    6.0874
   30.120    5.8031
   30.135    5.9821
   30.150    6.1717
   30.165    6.1822
   30.180    6.0769
   30.195    6.2454
   30.210    5.9294
   30.225    6.3928
   30.240    6.4982
   30.255    6.0664
   30.270    5.9926
   30.285    5.7609
   30.300    6.2770
   30.315    5.9610
   30.330    6.0769
   30.345    5.7925
   30.360    5.9926
   30.375    5.7609
   30.390    6.0032
   30.405    6.0874
   30.420    5.9610
   30.435    5.9926
   30.450    5.9294
   30.465    6.1190
   30.480    6.3191
   30.495    6.3086
   30.510    5.9821
   30.525    5.7925
   30.540    5.8347
   30.555    5.7820
   30.570    5.9505
   30.585    5.9716
   30.600    6.0137
   30.615    5.8241
   30.630    5.9716
   30.645    6.2559
   30.660    6.1822
   30.675    6.4139
   30.690    5.9084
   30.705    5.9926
   30.720    6.0032
   30.735    6.4350
   30.750    5.9294
   30.765    6.0874
   30.780    6.3928
   30.795    6.4560
   30.810    6.2454
   30.825    5.8873
   30.840    6.2033
   30.855    5.9084
   30.870    5.6029
   30.885    5.6872
   30.900    6.1190
   30.915    5.7925
   30.930    5.8136
   30.945    5.8452
   30.960    5.7399
   30.975    6.0032
   30.990    6.1190
   31.005    6.0664
   31.020    5.9084
   31.035    5.9610
   31.050    6.0558
   31.065    6.1822
   31.080    5.8557
   31.095    5.7609
   31.110    5.9400
   31.125    6.0032
   31.140    5.9505
   31.155    5.6556
   31.170    5.7715
   31.185    5.4871
   31.200    5.6661
   31.215    5.8241
   31.230    6.1401
   31.245    6.0453
   31.260    5.7399
   31.275    5.9084
   31.290    5.9400
   31.305    5.8662
   31.320    5.8557
   31.335    5.8873
   31.350    6.2454
   31.365    5.7293
   31.380    5.9189
   31.395    5.9821
   31.410    5.9926
   31.425    6.3086
   31.440    6.1401
   31.455    5.8873
   31.470    5.9084
   31.485    6.1295
   31.500    6.0769
   31.515    5.8347
   31.530    5.7820
   31.545    6.0664
   31.560    5.7083
   31.575    5.9189
   31.590    6.1401
   31.605    5.8136
   31.620    5.7925
   31.635    6.1506
   31.650    5.7820
   31.665    5.8873
   31.680    5.9716
   31.695    5.8557
   31.710    6.1927
   31.725    5.9821
   31.740    6.3612
   31.755    6.0453
   31.770    6.0032
   31.785    6.1085
   31.800    5.8347
   31.815    5.7820
   31.830    5.7504
   31.845    5.6767
   31.860    5.8662
   31.875    5.9821
   31.890    5.8241
   31.905    5.9400
   31.920    5.8347
   31.935    6.0453
   31.950    6.0032
   31.965    5.9505
   31.980    6.0137
   31.995    5.7293
   32.010    5.8557
   32.025    5.9505
   32.040    5.8136
   32.055    6.0664
   32.070    6.2454
   32.085    5.8873
   32.100    5.9610
   32.115    6.2665
   32.130    6.0137
   32.145    6.0137
   32.160    6.1506
   32.175    5.7504
   32.190    5.8452
   32.205    5.8662
   32.220    5.7083
   32.235    5.8347
   32.250    5.8452
   32.265    5.6345
   32.280    6.0453
   32.295    5.9716
   32.310    5.6767
   32.325    5.5292
   32.340    5.8662
   32.355    5.5082
   32.370    5.8347
   32.385    5.9294
   32.400    5.9505
   32.415    5.3397
   32.430    5.5608
   32.445    5.3712
   32.460    5.4766
   32.475    5.8978
   32.490    5.5819
   32.505    5.4871
   32.520    5.3923
   32.535    5.6977
   32.550    5.7293
   32.565    5.4766
   32.580    5.7715
   32.595    5.7925
   32.610    5.3502
   32.625    5.3186
   32.640    5.8347
   32.655    5.9294
   32.670    5.8136
   32.685    5.8136
   32.700    5.9189
   32.715    5.7820
   32.730    5.5082
   32.745    5.5503
   32.760    5.7820
   32.775    5.3502
   32.790    5.4239
   32.805    5.4660
   32.820    5.6029
   32.835    5.7188
   32.850    5.3923
   32.865    5.2554
   32.880    5.1395
   32.895    5.2870
   32.910    5.6872
   32.925    5.6451
   32.940    5.9610
   32.955    6.2665
   32.970    5.6345
   32.985    5.8136
   33.000    5.9189
   33.015    5.5398
   33.030    5.7083
   33.045    5.9084
   33.060    5.9084
   33.075    5.6556
   33.090    5.5187
   33.105    5.5503
   33.120    5.3923
   33.135    5.6872
   33.150    5.4028
   33.165    5.6345
   33.180    5.6977
   33.195    5.8241
   33.210    5.8136
   33.225    5.6872
   33.240    5.8347
   33.255    5.5292
   33.270    5.4028
   33.285    5.8031
   33.300    5.4555
   33.315    5.8662
   33.330    5.5819
   33.345    5.6872
   33.360    6.1190
   33.375    5.7715
   33.390    5.3186
   33.405    5.7083
   33.420    5.6240
   33.435    5.7293
   33.450    5.7293
   33.465    5.7820
   33.480    5.3081
   33.495    5.3818
   33.510    5.3291
   33.525    5.8241
   33.540    5.3186
   33.555    5.2975
   33.570    5.4239
   33.585    5.4134
   33.600    5.7083
   33.615    5.5924
   33.630    5.8031
   33.645    5.2870
   33.660    5.3081
   33.675    5.5503
   33.690    5.7715
   33.705    5.2870
   33.720    5.5187
   33.735    5.6556
   33.750    5.7293
   33.765    5.6767
   33.780    5.7399
   33.795    5.6977
   33.810    5.5608
   33.825    5.7083
   33.840    5.5714
   33.855    5.8873
   33.870    6.0453
   33.885    5.8978
   33.900    5.7820
   33.915    5.9926
   33.930    5.6451
   33.945    5.8136
   33.960    5.5187
   33.975    5.4028
   33.990    5.2343
   34.005    5.3607
   34.020    5.6556
   34.035    6.3612
   34.050    5.8241
   34.065    5.6451
   34.080    5.3818
   34.095    5.5924
   34.110    5.5292
   34.125    5.4134
   34.140    5.5819
   34.155    5.2343
   34.170    5.5082
   34.185    5.4344
   34.200    5.6135
   34.215    5.6451
   34.230    5.3186
   34.245    5.1922
   34.260    5.4555
   34.275    5.6872
   34.290    5.1922
   34.305    5.0869
   34.320    5.4555
   34.335    5.3186
   34.350    5.4239
   34.365    5.4344
   34.380    5.4871
   34.395    5.2870
   34.410    5.3712
   34.425    5.6556
   34.440    5.5292
   34.455    5.4028
   34.470    5.2238
   34.485    5.1395
   34.500    5.4871
   34.515    5.0026
   34.530    5.0132
   34.545    5.1606
   34.560    5.1501
   34.575    5.0132
   34.590    5.2554
   34.605    5.0132
   34.620    5.2765
   34.635    5.3397
   34.650    5.4344
   34.665    5.1606
   34.680    5.4028
   34.695    5.3502
   34.710    5.5608
   34.725    5.3607
   34.740    5.0553
   34.755    5.4976
   34.770    5.0026
   34.785    5.5503
   34.800    5.6029
   34.815    5.7504
   34.830    5.6345
   34.845    5.3818
   34.860    5.1606
   34.875    5.2238
   34.890    5.5082
   34.905    5.1606
   34.920    5.3502
   34.935    5.4871
   34.950    5.1395
   34.965    5.3923
   34.980    5.3291
   34.995    5.4028
   35.010    5.4239
   35.025    5.3923
   35.040    5.3818
   35.055    5.4660
   35.070    5.2975
   35.085    5.2133
   35.100    5.0132
   35.115    4.9816
   35.130    5.2554
   35.145    5.1080
   35.160    4.9289
   35.175    4.6761
   35.190    5.0869
   35.205    5.0026
   35.220    5.1395
   35.235    5.5398
   35.250    5.4028
   35.265    5.2870
   35.280    4.9816
   35.295    5.2133
   35.310    5.1817
   35.325    5.3607
   35.340    5.4450
   35.355    5.5187
   35.370    5.6135
   35.385    4.8552
   35.400    5.1817
   35.415    5.3291
   35.430    5.0869
   35.445    4.9921
   35.460    5.2343
   35.475    5.3186
   35.490    5.1080
   35.505    4.8552
   35.520    5.1080
   35.535    5.0764
   35.550    5.1395
   35.565    4.8973
   35.580    5.4871
   35.595    5.4450
   35.610    5.1080
   35.625    5.2133
   35.640    5.1290
   35.655    5.0869
   35.670    5.1606
   35.685    5.3081
   35.700    4.9816
   35.715    5.0342
   35.730    4.9500
   35.745    5.0448
   35.760    5.3607
   35.775    5.2870
   35.790    5.1711
   35.805    5.1395
   35.820    5.2659
   35.835    5.1185
   35.850    5.4239
   35.865    5.4871
   35.880    5.1395
   35.895    5.3397
   35.910    5.0553
   35.925    4.8131
   35.940    4.8025
   35.955    5.3186
   35.970    5.1290
   35.985    5.1922
   36.000    4.9921
   36.015    5.1606
   36.030    5.3397
   36.045    5.2765
   36.060    5.0132
   36.075    5.2449
   36.090    5.3923
   36.105    5.1080
   36.120    5.2659
   36.135    5.4660
   36.150    5.7083
   36.165    5.5608
   36.180    5.4344
   36.195    5.3502
   36.210    5.2659
   36.225    5.1501
   36.240    5.2133
   36.255    4.9500
   36.270    5.0132
   36.285    5.1185
   36.300    5.0658
   36.315    5.4766
   36.330    5.1501
   36.345    5.0026
   36.360    5.2343
   36.375    5.0342
   36.390    5.2238
   36.405    5.2659
   36.420    5.0237
   36.435    5.1290
   36.450    5.3607
   36.465    5.1185
   36.480    5.3081
   36.495    5.3502
   36.510    4.9710
   36.525    4.9289
   36.540    5.2027
   36.555    5.2449
   36.570    4.8763
   36.585    5.4555
   36.600    5.3607
   36.615    5.4450
   36.630    5.0974
   36.645    4.5919
   36.660    5.3818
   36.675    5.5187
   36.690    4.9184
   36.705    5.1395
   36.720    5.0553
   36.735    5.0764
   36.750    5.3186
   36.765    5.0342
   36.780    5.1395
   36.795    5.3397
   36.810    5.5924
   36.825    5.2238
   36.840    5.1080
   36.855    4.9394
   36.870    4.7499
   36.885    4.9816
   36.900    5.0237
   36.915    4.9394
   36.930    4.9710
   36.945    5.3607
   36.960    5.3186
   36.975    4.8868
   36.990    5.0237
   37.005    5.3397
   37.020    5.2343
   37.035    5.2133
   37.050    4.9816
   37.065    5.1080
   37.080    5.4344
   37.095    5.6872
   37.110    5.5082
   37.125    5.0237
   37.140    5.5082
   37.155    5.0869
   37.170    5.1185
   37.185    5.1290
   37.200    5.3502
   37.215    5.1606
   37.230    5.1817
   37.245    5.1922
   37.260    5.1185
   37.275    5.0448
   37.290    4.9710
   37.305    4.9605
   37.320    4.8131
   37.335    4.6867
   37.350    5.1501
   37.365    5.0553
   37.380    5.1501
   37.395    5.1080
   37.410    5.0026
   37.425    4.9289
   37.440    5.0658
   37.455    5.1606
   37.470    5.0448
   37.485    5.1501
   37.500    5.1395
   37.515    5.0026
   37.530    5.0448
   37.545    5.1501
   37.560    5.0026
   37.575    4.6340
   37.590    4.8973
   37.605    5.5608
   37.620    5.2870
   37.635    4.6130
   37.650    4.9816
   37.665    5.1606
   37.680    5.1817
   37.695    4.9816
   37.710    5.0553
   37.725    5.1606
   37.740    5.0869
   37.755    5.0342
   37.770    4.9710
   37.785    5.1711
   37.800    5.1922
   37.815    4.8025
   37.830    5.0026
   37.845    5.0869
   37.860    5.1080
   37.875    5.1290
   37.890    4.8973
   37.905    4.8552
   37.920    5.0553
   37.935    5.0658
   37.950    5.0342
   37.965    5.2027
   37.980    5.0658
   37.995    5.2554
   38.010    5.1080
   38.025    5.0974
   38.040    4.9710
   38.055    5.0764
   38.070    4.9710
   38.085    5.0026
   38.100    4.9184
   38.115    4.9921
   38.130    4.8447
   38.145    5.1185
   38.160    4.9710
   38.175    4.9710
   38.190    4.9078
   38.205    5.4450
   38.220    5.2765
   38.235    4.9394
   38.250    4.8236
   38.265    5.0553
   38.280    5.2554
   38.295    5.0553
   38.310    5.0869
   38.325    4.9184
   38.340    4.9500
   38.355    5.0026
   38.370    5.1080
   38.385    5.2870
   38.400    5.4450
   38.415    5.1922
   38.430    4.9605
   38.445    4.8447
   38.460    5.0448
   38.475    4.8868
   38.490    5.1290
   38.505    5.0974
   38.520    5.1395
   38.535    4.8973
   38.550    5.1080
   38.565    4.7709
   38.580    5.1817
   38.595    4.7815
   38.610    5.1290
   38.625    5.0342
   38.640    4.9289
   38.655    5.0658
   38.670    4.7920
   38.685    4.8763
   38.700    4.7920
   38.715    4.7393
   38.730    4.9710
   38.745    4.6551
   38.760    5.1080
   38.775    4.9921
   38.790    5.1501
   38.805    5.1395
   38.820    4.7183
   38.835    4.8763
   38.850    5.0448
   38.865    5.0448
   38.880    5.2027
   38.895    5.0869
   38.910    5.3502
   38.925    5.1501
   38.940    5.0764
   38.955    5.0553
   38.970    4.8341
   38.985    4.6656
   39.000    4.8552
   39.015    4.8447
   39.030    4.8657
   39.045    5.0132
   39.060    4.7288
   39.075    4.8657
   39.090    5.2343
   39.105    4.5287
   39.120    4.6445
   39.135    4.7604
   39.150    4.8657
   39.165    4.9289
   39.180    4.8236
   39.195    4.8447
   39.210    4.8341
   39.225    4.8552
   39.240    4.9078
   39.255    4.9078
   39.270    5.3081
   39.285    5.4028
   39.300    5.0869
   39.315    5.2238
   39.330    4.8447
   39.345    4.5603
   39.360    4.5919
   39.375    4.9500
   39.390    4.8131
   39.405    4.7077
   39.420    4.9500
   39.435    4.9289
   39.450    4.6551
   39.465    5.0026
   39.480    5.1501
   39.495    4.9289
   39.510    4.9078
   39.525    4.9078
   39.540    4.8973
   39.555    5.0869
   39.570    4.8657
   39.585    4.8868
   39.600    5.0132
   39.615    4.8447
   39.630    4.7288
   39.645    5.2343
   39.660    4.8868
   39.675    4.6867
   39.690    5.0974
   39.705    4.7815
   39.720    4.8131
   39.735    4.8131
   39.750    4.7604
   39.765    4.9289
   39.780    4.8868
   39.795    4.7077
   39.810    4.8341
   39.825    5.1080
   39.840    5.1711
   39.855    5.4028
   39.870    5.3818
   39.885    4.7604
   39.900    4.8552
   39.915    5.0764
   39.930    5.1501
   39.945    4.8025
   39.960    4.7604
   39.975    4.9184
   39.990    5.1395
