    1.500   28.7941
    1.515   29.6472
    1.530   27.9410
    1.545   27.6040
    1.560   27.6567
    1.575   27.4671
    1.590   25.7715
    1.605   25.3291
    1.620   25.2975
    1.635   24.3286
    1.650   23.7177
    1.665   23.3807
    1.680   23.4229
    1.695   23.0542
    1.710   23.0437
    1.725   22.4434
    1.740   21.6640
    1.755   21.1585
    1.770   20.3791
    1.785   19.7683
    1.800   19.7472
    1.815   20.0316
    1.830   19.0205
    1.845   19.5577
    1.860   19.6525
    1.875   18.7362
    1.890   18.4834
    1.905   17.4618
    1.920   17.4092
    1.935   17.0195
    1.950   17.0616
    1.965   16.7457
    1.980   16.6614
    1.995   16.5771
    2.010   16.0927
    2.025   15.6398
    2.040   15.6609
    2.055   15.7241
    2.070   14.8499
    2.085   14.9552
    2.100   14.7025
    2.115   13.9547
    2.130   14.3233
    2.145   14.0495
    2.160   14.0600
    2.175   13.5018
    2.190   13.2491
    2.205   13.0911
    2.220   13.1754
    2.235   13.4492
    2.250   13.1016
    2.265   12.6066
    2.280   12.8699
    2.295   12.7225
    2.310   12.0906
    2.325   11.9431
    2.340   11.3955
    2.355   11.8167
    2.370   11.8799
    2.385   12.2170
    2.400   11.4271
    2.415   11.7957
    2.430   11.6904
    2.445   11.5850
    2.460   11.8273
    2.475   11.3955
    2.490   11.4060
    2.505   11.1954
    2.520   10.7425
    2.535   10.3528
    2.550   11.1006
    2.565   10.2791
    2.580   10.3002
    2.595   10.5319
    2.610   10.0895
    2.625   10.5424
    2.640   10.6477
    2.655   10.0263
    2.670    9.7841
    2.685   10.0685
    2.700   10.0790
    2.715    9.7841
    2.730    9.8999
    2.745    9.6893
    2.760   10.2264
    2.775   10.0579
    2.790    9.4892
    2.805    9.2996
    2.820    9.1206
    2.835    9.3523
    2.850    9.3523
    2.865    9.3628
    2.880    9.2680
    2.895    9.2891
    2.910    8.9205
    2.925    9.2786
    2.940    8.9205
    2.955    9.0469
    2.970    9.1943
    2.985    9.1206
    3.000    9.0574
    3.015    9.0047
    3.030    8.7309
    3.045    9.3312
    3.060    8.9521
    3.075    8.8784
    3.090    9.1943
    3.105    8.8257
    3.120    8.7204
    3.135    8.6677
    3.150    8.2991
    3.165    8.6045
    3.180    8.8468
    3.195    8.5413
    3.210    8.6045
    3.225    8.9731
    3.240    9.0047
    3.255    8.2359
    3.270    8.5097
    3.285    9.1417
    3.300    8.7098
    3.315    8.4676
    3.330    8.6783
    3.345    8.7098
    3.360    8.6572
    3.375    8.5835
    3.390    8.8362
    3.405    8.7414
    3.420    8.8889
    3.435    9.0469
    3.450    8.7204
    3.465    8.6993
    3.480    9.2364
    3.495    9.2680
    3.510    8.9310
    3.525    8.5729
    3.540    8.9205
    3.555    9.4050
    3.570    9.1732
    3.585    9.4155
    3.600    9.1522
    3.615    9.3734
    3.630    9.3312
    3.645    9.3418
    3.660    9.6261
    3.675    9.5103
    3.690    9.9315
    3.705    9.9105
    3.720   10.1948
    3.735   10.3739
    3.750   10.7004
    3.765   11.0374
    3.780   11.1532
    3.795   11.8167
    3.810   11.7641
    3.825   12.4908
    3.840   13.8915
    3.855   15.8083
    3.870   16.9036
    3.885   16.0611
    3.900   15.5977
    3.915   13.8494
    3.930   11.6166
    3.945    9.1311
    3.960    7.3196
    3.975    6.9932
    3.990    6.7088
    4.005    6.6667
    4.020    6.7088
    4.035    6.8984
    4.050    7.0563
    4.065    6.7299
    4.080    6.7930
    4.095    6.8984
    4.110    6.7615
    4.125    6.7509
    4.140    6.4244
    4.155    6.6772
    4.170    6.4034
    4.185    6.6140
    4.200    7.0879
    4.215    7.0563
    4.230    6.7193
    4.245    6.2981
    4.260    6.6667
    4.275    6.8773
    4.290    6.6877
    4.305    6.6561
    4.320    6.7720
    4.335    6.7930
    4.350    7.0774
    4.365    6.3402
    4.380    6.3086
    4.395    6.1190
    4.410    6.2770
    4.425    6.2349
    4.440    6.8562
    4.455    6.3402
    4.470    6.6772
    4.485    6.6456
    4.500    6.3296
    4.515    6.7615
    4.530    6.3086
    4.545    6.2033
    4.560    6.3086
    4.575    6.2665
    4.590    6.4034
    4.605    6.3507
    4.620    6.2770
    4.635    6.2033
    4.650    5.9400
    4.665    5.9926
    4.680    5.9505
    4.695    6.7404
    4.710    6.5192
    4.725    6.3718
    4.740    6.1295
    4.755    6.0137
    4.770    6.4771
    4.785    5.9610
    4.800    6.3191
    4.815    6.4139
    4.830    6.4034
    4.845    6.5508
    4.860    6.0979
    4.875    6.4034
    4.890    6.4982
    4.905    6.2243
    4.920    6.0137
    4.935    6.0664
    4.950    6.3928
    4.965    6.2033
    4.980    6.2033
    4.995    6.2138
    5.010    6.2981
    5.025    6.3612
    5.040    6.5192
    5.055    6.3823
    5.070    6.0769
    5.085    6.2243
    5.100    6.4771
    5.115    6.3718
    5.130    6.3928
    5.145    6.1506
    5.160    6.3718
    5.175    6.4139
    5.190    6.2875
    5.205    6.0558
    5.220    6.0032
    5.235    6.3191
    5.250    6.3928
    5.265    6.3191
    5.280    6.5087
    5.295    6.6983
    5.310    6.6772
    5.325    6.4139
    5.340    6.4034
    5.355    6.4350
    5.370    6.7193
    5.385    6.7193
    5.400    6.7509
    5.415    6.8352
    5.430    7.1511
    5.445    6.9300
    5.460    6.6667
    5.475    7.2249
    5.490    7.3618
    5.505    8.0674
    5.520    7.8778
    5.535    7.2143
    5.550    6.3086
    5.565    6.2033
    5.580    6.1611
    5.595    5.7188
    5.610    6.2243
    5.625    6.1822
    5.640    5.7609
    5.655    5.8557
    5.670    6.1717
    5.685    5.9400
    5.700    5.9084
    5.715    6.1717
    5.730    6.0664
    5.745    5.8662
    5.760    5.7188
    5.775    5.7504
    5.790    6.3718
    5.805    6.1295
    5.820    6.2981
    5.835    6.3928
    5.850    5.6661
    5.865    6.0769
    5.880    5.8557
    5.895    6.0874
    5.910    6.2559
    5.925    5.7820
    5.940    5.7925
    5.955    5.6240
    5.970    6.2033
    5.985    6.0874
    6.000    5.8557
    6.015    6.0664
    6.030    6.2559
    6.045    6.0137
    6.060    5.6240
    6.075    6.1822
    6.090    6.1717
    6.105    6.0874
    6.120    6.1506
    6.135    6.2349
    6.150    6.1822
    6.165    6.1611
    6.180    6.1822
    6.195    5.6135
    6.210    6.0664
    6.225    6.0032
    6.240    5.9084
    6.255    5.7925
    6.270    5.7820
    6.285    5.6029
    6.300    5.4344
    6.315    6.0558
    6.330    5.8241
    6.345    6.2875
    6.360    6.0137
    6.375    5.8768
    6.390    5.4766
    6.405    6.1295
    6.420    6.2349
    6.435    5.7504
    6.450    5.5714
    6.465    5.6977
    6.480    5.8978
    6.495    6.0664
    6.510    5.7399
    6.525    5.9926
    6.540    6.1717
    6.555    6.2665
    6.570    5.5924
    6.585    5.6345
    6.600    6.2981
    6.615    6.0032
    6.630    6.0874
    6.645    5.9084
    6.660    5.9084
    6.675    6.5824
    6.690    6.4560
    6.705    6.2770
    6.720    6.2243
    6.735    6.1927
    6.750    6.1717
    6.765    6.1190
    6.780    6.0453
    6.795    5.8557
    6.810    6.0348
    6.825    5.8978
    6.840    5.7609
    6.855    5.8347
    6.870    5.9716
    6.885    5.7504
    6.900    5.6345
    6.915    6.2243
    6.930    6.0664
    6.945    5.7188
    6.960    5.8136
    6.975    5.5714
    6.990    5.7399
    7.005    5.8136
    7.020    5.8031
    7.035    5.9610
    7.050    5.6345
    7.065    5.8557
    7.080    5.7504
    7.095    5.8978
    7.110    6.0137
    7.125    6.0137
    7.140    6.0137
    7.155    5.9926
    7.170    5.9505
    7.185    5.7925
    7.200    5.8557
    7.215    6.0664
    7.230    5.9400
    7.245    5.6451
    7.260    5.9716
    7.275    5.7293
    7.290    5.9400
    7.305    6.0769
    7.320    5.8768
    7.335    6.0032
    7.350    5.8557
    7.365    5.8768
    7.380    6.1085
    7.395    5.8031
    7.410    6.0558
    7.425    6.3612
    7.440    5.7188
    7.455    5.4028
    7.470    5.7715
    7.485    6.0979
    7.500    6.7825
    7.515    6.1506
    7.530    6.4139
    7.545    5.9610
    7.560    5.6240
    7.575    5.5714
    7.590    5.8241
    7.605    5.9084
    7.620    5.9505
    7.635    6.1822
    7.650    6.0769
    7.665    6.0348
    7.680    6.1190
    7.695    6.3718
    7.710    6.4139
    7.725    6.0558
    7.740    6.4560
    7.755    6.0453
    7.770    6.0558
    7.785    6.1190
    7.800    6.4244
    7.815    6.1611
    7.830    6.1927
    7.845    6.4350
    7.860    6.3507
    7.875    6.1190
    7.890    5.9294
    7.905    5.9084
    7.920    6.2454
    7.935    6.0979
    7.950    6.0348
    7.965    6.3718
    7.980    6.2033
    7.995    6.1401
    8.010    6.1401
    8.025    5.8978
    8.040    5.8452
    8.055    5.8873
    8.070    5.8978
    8.085    6.2033
    8.100    5.9610
    8.115    5.8557
    8.130    6.0979
    8.145    6.2033
    8.160    6.1190
    8.175    6.1085
    8.190    6.4666
    8.205    6.0032
    8.220    6.0769
    8.235    6.0874
    8.250    5.5608
    8.265    6.0348
    8.280    5.9716
    8.295    6.1611
    8.310    6.0032
    8.325    5.9821
    8.340    6.2033
    8.355    6.3507
    8.370    6.5087
    8.385    6.1085
    8.400    6.2243
    8.415    6.4350
    8.430    6.1506
    8.445    6.3507
    8.460    6.3612
    8.475    6.0348
    8.490    6.1295
    8.505    6.1611
    8.520    5.8241
    8.535    6.3928
    8.550    6.3718
    8.565    6.1927
    8.580    6.0137
    8.595    6.1927
    8.610    6.1506
    8.625    6.2454
    8.640    6.1506
    8.655    6.0453
    8.670    5.9610
    8.685    6.2875
    8.700    6.3928
    8.715    6.0558
    8.730    5.9400
    8.745    6.1927
    8.760    6.2454
    8.775    6.0769
    8.790    5.8662
    8.805    6.0979
    8.820    5.9294
    8.835    6.0242
    8.850    6.1717
    8.865    6.3296
    8.880    5.7820
    8.895    6.0453
    8.910    6.5403
    8.925    6.1295
    8.940    6.4560
    8.955    6.4034
    8.970    6.0348
    8.985    6.1085
    9.000    6.0558
    9.015    5.9610
    9.030    6.0769
    9.045    6.5087
    9.060    6.3507
    9.075    6.2559
    9.090    6.1506
    9.105    6.2875
    9.120    5.8031
    9.135    6.1717
    9.150    6.0137
    9.165    6.0979
    9.180    6.2454
    9.195    6.5087
    9.210    6.1506
    9.225    6.1295
    9.240    6.2454
    9.255    6.5824
    9.270    6.1822
    9.285    6.1401
    9.300    6.2454
    9.315    6.2138
    9.330    6.4771
    9.345    6.1295
    9.360    6.4034
    9.375    6.5719
    9.390    6.6561
    9.405    6.4876
    9.420    6.5613
    9.435    6.5824
    9.450    6.2770
    9.465    6.4350
    9.480    6.3612
    9.495    6.7299
    9.510    6.7615
    9.525    6.8668
    9.540    6.8352
    9.555    7.0037
    9.570    7.0248
    9.585    6.6667
    9.600    6.8984
    9.615    6.7088
    9.630    6.5087
    9.645    6.2559
    9.660    6.2875
    9.675    6.0979
    9.690    6.3191
    9.705    5.7083
    9.720    5.9821
    9.735    5.7715
    9.750    6.3718
    9.765    5.9821
    9.780    5.9084
    9.795    5.8768
    9.810    6.1506
    9.825    5.8662
    9.840    6.0453
    9.855    6.1506
    9.870    6.4876
    9.885    6.3296
    9.900    5.8768
    9.915    6.1717
    9.930    6.3823
    9.945    6.1611
    9.960    6.5403
    9.975    6.5298
    9.990    6.5508
   10.005    5.9716
   10.020    6.2033
   10.035    6.2033
   10.050    6.0242
   10.065    6.0874
   10.080    6.3191
   10.095    6.0453
   10.110    6.1611
   10.125    5.7820
   10.140    6.1401
   10.155    6.4982
   10.170    6.0032
   10.185    6.4455
   10.200    6.1927
   10.215    6.0032
   10.230    5.8136
   10.245    5.9926
   10.260    6.5613
   10.275    6.8141
   10.290    6.6561
   10.305    6.2349
   10.320    6.0979
   10.335    6.2033
   10.350    6.3507
   10.365    6.2770
   10.380    6.2770
   10.395    5.8768
   10.410    5.8347
   10.425    6.1506
   10.440    6.1190
   10.455    6.2559
   10.470    6.0769
   10.485    6.4350
   10.500    6.3191
   10.515    5.8873
   10.530    6.0348
   10.545    6.0558
   10.560    5.9084
   10.575    5.6977
   10.590    6.2770
   10.605    6.4034
   10.620    6.4034
   10.635    6.4560
   10.650    5.8347
   10.665    6.1085
   10.680    6.1085
   10.695    6.2138
   10.710    6.2243
   10.725    6.2981
   10.740    6.0032
   10.755    6.1401
   10.770    6.2138
   10.785    5.6240
   10.800    5.8557
   10.815    5.9610
   10.830    6.4876
   10.845    6.1085
   10.860    5.9610
   10.875    6.0032
   10.890    6.3086
   10.905    6.1190
   10.920    5.9189
   10.935    6.1506
   10.950    5.8662
   10.965    6.1190
   10.980    6.1506
   10.995    6.4771
   11.010    6.3296
   11.025    5.9716
   11.040    5.9189
   11.055    5.9189
   11.070    5.9821
   11.085    5.8241
   11.100    5.7715
   11.115    5.8241
   11.130    5.7504
   11.145    5.8662
   11.160    6.0348
   11.175    6.1190
   11.190    6.0242
   11.205    5.7715
   11.220    6.4244
   11.235    6.0348
   11.250    6.1822
   11.265    6.1611
   11.280    5.7820
   11.295    6.0979
   11.310    5.9926
   11.325    5.7083
   11.340    5.8873
   11.355    5.8662
   11.370    6.2981
   11.385    5.8136
   11.400    5.9400
   11.415    5.8978
   11.430    5.7715
   11.445    6.2454
   11.460    5.8768
   11.475    5.6451
   11.490    5.9400
   11.505    5.8136
   11.520    5.8241
   11.535    6.0348
   11.550    5.7504
   11.565    5.7083
   11.580    5.6767
   11.595    5.8031
   11.610    5.9505
   11.625    6.1927
   11.640    5.8873
   11.655    5.7925
   11.670    6.0769
   11.685    5.9610
   11.700    6.0769
   11.715    6.2138
   11.730    6.4560
   11.745    6.0242
   11.760    5.7609
   11.775    6.0558
   11.790    6.3718
   11.805    5.8978
   11.820    5.8662
   11.835    5.7083
   11.850    5.7820
   11.865    5.7399
   11.880    5.7293
   11.895    5.6767
   11.910    5.8557
   11.925    5.9505
   11.940    6.0664
   11.955    5.8873
   11.970    5.8347
   11.985    5.7188
   12.000    5.7504
   12.015    5.8241
   12.030    5.9294
   12.045    5.4766
   12.060    5.8136
   12.075    5.6872
   12.090    5.5187
   12.105    5.7715
   12.120    5.1290
   12.135    5.4134
   12.150    5.8136
   12.165    5.5608
   12.180    5.7715
   12.195    6.0032
   12.210    5.9294
   12.225    5.5924
   12.240    5.5187
   12.255    5.6451
   12.270    5.5187
   12.285    5.8873
   12.300    5.9189
   12.315    5.9084
   12.330    5.7820
   12.345    5.8978
   12.360    5.9294
   12.375    5.2027
   12.390    5.4555
   12.405    5.7293
   12.420    5.6767
   12.435    5.9294
   12.450    5.4976
   12.465    5.7083
   12.480    5.6872
   12.495    5.7504
   12.510    5.6767
   12.525    5.4871
   12.540    5.4766
   12.555    5.7925
   12.570    5.7293
   12.585    6.0242
   12.600    5.7820
   12.615    5.5292
   12.630    5.7504
   12.645    5.5503
   12.660    5.1501
   12.675    5.3712
   12.690    5.6135
   12.705    5.5082
   12.720    5.6767
   12.735    5.4660
   12.750    5.2027
   12.765    5.6767
   12.780    5.4976
   12.795    5.4344
   12.810    5.6661
   12.825    5.5503
   12.840    6.0032
   12.855    5.9821
   12.870    5.3607
   12.885    5.7504
   12.900    5.5714
   12.915    5.1817
   12.930    5.4871
   12.945    5.6872
   12.960    5.9189
   12.975    5.3923
   12.990    5.1606
   13.005    5.6345
   13.020    5.6556
   13.035    5.6872
   13.050    5.7715
   13.065    5.7609
   13.080    5.4555
   13.095    5.5503
   13.110    5.7399
   13.125    5.6345
   13.140    5.7399
   13.155    5.4660
   13.170    5.2027
   13.185    5.3712
   13.200    5.7609
   13.215    5.5608
   13.230    5.4028
   13.245    5.3291
   13.260    5.2765
   13.275    5.5924
   13.290    5.4239
   13.305    5.2343
   13.320    5.3502
   13.335    5.8347
   13.350    5.6135
   13.365    5.5187
   13.380    5.4976
   13.395    5.3081
   13.410    5.4450
   13.425    5.5082
   13.440    5.4976
   13.455    5.4555
   13.470    5.6451
   13.485    5.2343
   13.500    5.5187
   13.515    5.4871
   13.530    5.9610
   13.545    5.9716
   13.560    6.0242
   13.575    5.6872
   13.590    5.7293
   13.605    5.7293
   13.620    5.5714
   13.635    5.4028
   13.650    5.2975
   13.665    5.0132
   13.680    5.4239
   13.695    5.5503
   13.710    5.4450
   13.725    5.8347
   13.740    5.6556
   13.755    5.5292
   13.770    5.6661
   13.785    5.2659
   13.800    5.6135
   13.815    5.6240
   13.830    5.4766
   13.845    5.4660
   13.860    5.4028
   13.875    5.2343
   13.890    5.3607
   13.905    5.3712
   13.920    5.3818
   13.935    5.2659
   13.950    5.2554
   13.965    5.3081
   13.980    5.5924
   13.995    5.4028
   14.010    5.7715
   14.025    5.9084
   14.040    5.8978
   14.055    5.6977
   14.070    5.6029
   14.085    5.5187
   14.100    5.5714
   14.115    5.7609
   14.130    5.6240
   14.145    5.5714
   14.160    5.8136
   14.175    5.7609
   14.190    5.3607
   14.205    5.4134
   14.220    5.2133
   14.235    5.7293
   14.250    5.8452
   14.265    5.5503
   14.280    5.6135
   14.295    5.5714
   14.310    5.4134
   14.325    5.4239
   14.340    5.3186
   14.355    5.1395
   14.370    5.4766
   14.385    5.3818
   14.400    5.3081
   14.415    5.5187
   14.430    5.3186
   14.445    5.3818
   14.460    5.5292
   14.475    5.7925
   14.490    5.4344
   14.505    5.6661
   14.520    5.5608
   14.535    5.6556
   14.550    5.6977
   14.565    5.6345
   14.580    5.6135
   14.595    5.4344
   14.610    5.3712
   14.625    5.5503
   14.640    5.5819
   14.655    5.4660
   14.670    5.8241
   14.685    5.4555
   14.700    5.6135
   14.715    5.4660
   14.730    5.7820
   14.745    5.3081
   14.760    5.4134
   14.775    5.3186
   14.790    5.2659
   14.805    5.6872
   14.820    5.5398
   14.835    5.4028
   14.850    5.3081
   14.865    5.3186
   14.880    5.6767
   14.895    5.6345
   14.910    5.6556
   14.925    5.7820
   14.940    5.5608
   14.955    5.5924
   14.970    5.6240
   14.985    5.6872
   15.000    5.5503
   15.015    5.3923
   15.030    5.4344
   15.045    5.5819
   15.060    5.5292
   15.075    5.3818
   15.090    5.3712
   15.105    5.7715
   15.120    5.5819
   15.135    5.4555
   15.150    5.7083
   15.165    5.6977
   15.180    5.9505
   15.195    5.4660
   15.210    5.6240
   15.225    5.3291
   15.240    5.4555
   15.255    5.4871
   15.270    5.7609
   15.285    5.9400
   15.300    5.8031
   15.315    5.6661
   15.330    5.4134
   15.345    5.7293
   15.360    5.4660
   15.375    5.4766
   15.390    5.2343
   15.405    5.6556
   15.420    5.7925
   15.435    5.4028
   15.450    5.4871
   15.465    5.2975
   15.480    5.5608
   15.495    5.4344
   15.510    5.5398
   15.525    5.4450
   15.540    5.6345
   15.555    5.8452
   15.570    5.6767
   15.585    5.6556
   15.600    5.8136
   15.615    5.8347
   15.630    5.9294
   15.645    5.4344
   15.660    5.3818
   15.675    5.4766
   15.690    5.6451
   15.705    5.6451
   15.720    5.3502
   15.735    5.6767
   15.750    5.3818
   15.765    5.6029
   15.780    5.7820
   15.795    5.3712
   15.810    5.4660
   15.825    5.8873
   15.840    5.6556
   15.855    5.6029
   15.870    5.9294
   15.885    5.9400
   15.900    5.8241
   15.915    5.9505
   15.930    5.9716
   15.945    6.1506
   15.960    6.0874
   15.975    6.2665
   15.990    6.1401
   16.005    6.2770
   16.020    6.2559
   16.035    6.4560
   16.050    6.1401
   16.065    6.5613
   16.080    6.3086
   16.095    6.4771
   16.110    6.3296
   16.125    6.7825
   16.140    6.3612
   16.155    6.0348
   16.170    6.1506
   16.185    6.3928
   16.200    6.1717
   16.215    6.2454
   16.230    6.2033
   16.245    5.6977
   16.260    6.0137
   16.275    6.0874
   16.290    5.9926
   16.305    5.7504
   16.320    5.8347
   16.335    6.1401
   16.350    5.9926
   16.365    5.8768
   16.380    5.8031
   16.395    5.5187
   16.410    5.7504
   16.425    5.9926
   16.440    5.9505
   16.455    5.6029
   16.470    5.9084
   16.485    5.8136
   16.500    5.8662
   16.515    5.7188
   16.530    5.5608
   16.545    5.5819
   16.560    5.6767
   16.575    5.7925
   16.590    5.8662
   16.605    5.4976
   16.620    5.4344
   16.635    5.3923
   16.650    5.8241
   16.665    5.9926
   16.680    5.3923
   16.695    5.5082
   16.710    5.7083
   16.725    5.5503
   16.740    5.7715
   16.755    5.6345
   16.770    5.3818
   16.785    5.3081
   16.800    5.3712
   16.815    5.4555
   16.830    5.5924
   16.845    5.8136
   16.860    5.6556
   16.875    5.5924
   16.890    5.3502
   16.905    5.7820
   16.920    5.4766
   16.935    5.4134
   16.950    6.1927
   16.965    6.0558
   16.980    5.7293
   16.995    5.6556
   17.010    5.9505
   17.025    5.6556
   17.040    5.4028
   17.055    5.7399
   17.070    6.1401
   17.085    6.0558
   17.100    5.8241
   17.115    5.5082
   17.130    5.5082
   17.145    5.6977
   17.160    5.4555
   17.175    5.2765
   17.190    5.5924
   17.205    5.2027
   17.220    5.8978
   17.235    5.6135
   17.250    5.6451
   17.265    5.5292
   17.280    5.5503
   17.295    5.3818
   17.310    5.1817
   17.325    5.3186
   17.340    5.5714
   17.355    5.1395
   17.370    5.5292
   17.385    5.6451
   17.400    5.5292
   17.415    5.6029
   17.430    5.5503
   17.445    5.5503
   17.460    5.2238
   17.475    5.4555
   17.490    5.5398
   17.505    5.8452
   17.520    5.4450
   17.535    5.7820
   17.550    6.0453
   17.565    5.7399
   17.580    5.6029
   17.595    5.5608
   17.610    5.8031
   17.625    5.6556
   17.640    5.5924
   17.655    5.6135
   17.670    5.3923
   17.685    5.9400
   17.700    6.1717
   17.715    5.7715
   17.730    5.8347
   17.745    5.7399
   17.760    5.2870
   17.775    5.4028
   17.790    5.4028
   17.805    5.3502
   17.820    5.6872
   17.835    5.6345
   17.850    5.6977
   17.865    5.4555
   17.880    5.6767
   17.895    5.4766
   17.910    5.6977
   17.925    5.2870
   17.940    5.4555
   17.955    5.6451
   17.970    5.8557
   17.985    5.6661
   18.000    6.0137
   18.015    5.7399
   18.030    5.4344
   18.045    6.1190
   18.060    5.5924
   18.075    5.8452
   18.090    5.5292
   18.105    5.3712
   18.120    5.5398
   18.135    5.7293
   18.150    5.7820
   18.165    5.8136
   18.180    5.3712
   18.195    5.5292
   18.210    5.5398
   18.225    5.6029
   18.240    5.5503
   18.255    5.4555
   18.270    5.7188
   18.285    5.5082
   18.300    5.6872
   18.315    5.5608
   18.330    5.8136
   18.345    5.4555
   18.360    5.3291
   18.375    5.4976
   18.390    5.4134
   18.405    5.8031
   18.420    5.6135
   18.435    5.5398
   18.450    6.2243
   18.465    5.8978
   18.480    5.7820
   18.495    5.6240
   18.510    5.6240
   18.525    5.4976
   18.540    5.7399
   18.555    5.5398
   18.570    5.2975
   18.585    5.4660
   18.600    5.6451
   18.615    5.5608
   18.630    5.1922
   18.645    5.2449
   18.660    5.6556
   18.675    5.5714
   18.690    5.8031
   18.705    5.9189
   18.720    5.4766
   18.735    5.4555
   18.750    5.8031
   18.765    5.7715
   18.780    5.5924
   18.795    5.6556
   18.810    5.4134
   18.825    5.5082
   18.840    5.5187
   18.855    5.3818
   18.870    5.5292
   18.885    5.1922
   18.900    5.3607
   18.915    5.2449
   18.930    5.6240
   18.945    5.9084
   18.960    5.6345
   18.975    5.5398
   18.990    5.5608
   19.005    5.6029
   19.020    5.4555
   19.035    5.6977
   19.050    5.7504
   19.065    5.4134
   19.080    5.3502
   19.095    5.6451
   19.110    5.2870
   19.125    5.7925
   19.140    5.5608
   19.155    5.6345
   19.170    5.6977
   19.185    5.5714
   19.200    5.6977
   19.215    5.6767
   19.230    5.6661
   19.245    5.4976
   19.260    5.8031
   19.275    5.8347
   19.290    5.9926
   19.305    5.5819
   19.320    5.4239
   19.335    5.5292
   19.350    5.6135
   19.365    6.0348
   19.380    5.5819
   19.395    5.2027
   19.410    5.4976
   19.425    5.1395
   19.440    5.7293
   19.455    5.8136
   19.470    5.8241
   19.485    5.9400
   19.500    5.7083
   19.515    5.6029
   19.530    5.6556
   19.545    5.5082
   19.560    5.5292
   19.575    5.7609
   19.590    5.5714
   19.605    5.7083
   19.620    5.4344
   19.635    5.6977
   19.650    5.4871
   19.665    5.6029
   19.680    5.9084
   19.695    5.4134
   19.710    5.2449
   19.725    5.6661
   19.740    5.4239
   19.755    5.5292
   19.770    5.6977
   19.785    5.8136
   19.800    5.8031
   19.815    6.0558
   19.830    5.9084
   19.845    5.8136
   19.860    6.0032
   19.875    5.9400
   19.890    5.5398
   19.905    5.6872
   19.920    5.8347
   19.935    5.7399
   19.950    5.6029
   19.965    5.4239
   19.980    5.6345
   19.995    5.7504
   20.010    5.7293
   20.025    5.5608
   20.040    5.5292
   20.055    5.7609
   20.070    5.5924
   20.085    5.4976
   20.100    5.3502
   20.115    5.4766
   20.130    5.8136
   20.145    5.6135
   20.160    5.8031
   20.175    5.7609
   20.190    6.0558
   20.205    5.7188
   20.220    5.5924
   20.235    5.6029
   20.250    5.4766
   20.265    5.9926
   20.280    5.7820
   20.295    5.3923
   20.310    5.2870
   20.325    5.4976
   20.340    5.5503
   20.355    5.9189
   20.370    6.4139
   20.385    5.6977
   20.400    5.5924
   20.415    5.6029
   20.430    5.8873
   20.445    5.6661
   20.460    5.3607
   20.475    5.7504
   20.490    5.4134
   20.505    5.6240
   20.520    5.9400
   20.535    5.8031
   20.550    5.9610
   20.565    5.7715
   20.580    5.9294
   20.595    5.6029
   20.610    5.2659
   20.625    5.3502
   20.640    5.6661
   20.655    5.7609
   20.670    5.7925
   20.685    5.8452
   20.700    5.5714
   20.715    5.3923
   20.730    5.6029
   20.745    5.5819
   20.760    5.6451
   20.775    5.7715
   20.790    5.6872
   20.805    5.7504
   20.820    5.5608
   20.835    5.6556
   20.850    5.5187
   20.865    5.5292
   20.880    5.9294
   20.895    5.6661
   20.910    5.8557
   20.925    5.7925
   20.940    5.5819
   20.955    5.5924
   20.970    5.8031
   20.985    5.8136
   21.000    5.6029
   21.015    5.8557
   21.030    5.7820
   21.045    5.5292
   21.060    5.5503
   21.075    5.2975
   21.090    5.3607
   21.105    5.8241
   21.120    5.3502
   21.135    5.4134
   21.150    5.6661
   21.165    5.7925
   21.180    5.8768
   21.195    5.8873
   21.210    5.6767
   21.225    5.8347
   21.240    5.7820
   21.255    5.5714
   21.270    5.3291
   21.285    5.3502
   21.300    5.6345
   21.315    5.6556
   21.330    5.1080
   21.345    5.4660
   21.360    5.7820
   21.375    6.0979
   21.390    5.8136
   21.405    6.0979
   21.420    5.6240
   21.435    5.5082
   21.450    5.6977
   21.465    5.7293
   21.480    5.6556
   21.495    5.5608
   21.510    5.5714
   21.525    5.6767
   21.540    5.7293
   21.555    5.7504
   21.570    5.9084
   21.585    5.9926
   21.600    5.6977
   21.615    5.8031
   21.630    5.6240
   21.645    5.1395
   21.660    5.2027
   21.675    5.3081
   21.690    5.6767
   21.705    5.8873
   21.720    5.6661
   21.735    5.4871
   21.750    5.8662
   21.765    5.6345
   21.780    6.0242
   21.795    5.7188
   21.810    5.6767
   21.825    6.3612
   21.840    6.3086
   21.855    5.7293
   21.870    5.6029
   21.885    5.3607
   21.900    5.5398
   21.915    5.6451
   21.930    5.6345
   21.945    5.8347
   21.960    5.6977
   21.975    5.7925
   21.990    5.5714
   22.005    5.5503
   22.020    6.0453
   22.035    5.7715
   22.050    6.1506
   22.065    5.8347
   22.080    5.5924
   22.095    5.7820
   22.110    5.6451
   22.125    5.5924
   22.140    5.7925
   22.155    5.6977
   22.170    5.7609
   22.185    5.7399
   22.200    5.7504
   22.215    5.8136
   22.230    5.6345
   22.245    5.6029
   22.260    5.5819
   22.275    5.8662
   22.290    5.9610
   22.305    5.6872
   22.320    5.6135
   22.335    5.4239
   22.350    5.3818
   22.365    5.5398
   22.380    5.6872
   22.395    5.8136
   22.410    5.6451
   22.425    5.0764
   22.440    5.0658
   22.455    5.4871
   22.470    5.8031
   22.485    6.0137
   22.500    5.8557
   22.515    6.0348
   22.530    6.0348
   22.545    5.6240
   22.560    6.0453
   22.575    5.7399
   22.590    5.6556
   22.605    5.5924
   22.620    5.9821
   22.635    5.5398
   22.650    5.6135
   22.665    5.6451
   22.680    5.7399
   22.695    5.6451
   22.710    5.7399
   22.725    5.6556
   22.740    5.5714
   22.755    5.9294
   22.770    5.9400
   22.785    5.9400
   22.800    5.3818
   22.815    5.4660
   22.830    5.6661
   22.845    5.7925
   22.860    6.1295
   22.875    5.7820
   22.890    5.8347
   22.905    5.9294
   22.920    6.0242
   22.935    5.8873
   22.950    5.7609
   22.965    5.9084
   22.980    5.5292
   22.995    5.1606
   23.010    5.7609
   23.025    5.8452
   23.040    5.5608
   23.055    5.6240
   23.070    5.9294
   23.085    5.7293
   23.100    5.8873
   23.115    5.8557
   23.130    5.6661
   23.145    5.9821
   23.160    5.4134
   23.175    5.9189
   23.190    5.8557
   23.205    6.0664
   23.220    5.8978
   23.235    5.8978
   23.250    5.4450
   23.265    5.7715
   23.280    5.3397
   23.295    5.8031
   23.310    5.5608
   23.325    5.4660
   23.340    5.4028
   23.355    5.4976
   23.370    5.6240
   23.385    5.6240
   23.400    5.8978
   23.415    5.6872
   23.430    5.9084
   23.445    5.6977
   23.460    5.6556
   23.475    5.5608
   23.490    5.3712
   23.505    5.4344
   23.520    5.9400
   23.535    5.7715
   23.550    5.4239
   23.565    5.5292
   23.580    5.5398
   23.595    5.7083
   23.610    5.7293
   23.625    5.4660
   23.640    5.5503
   23.655    5.5187
   23.670    5.6767
   23.685    5.8557
   23.700    5.6240
   23.715    5.7925
   23.730    5.5819
   23.745    5.6767
   23.760    5.6345
   23.775    5.7609
   23.790    5.6977
   23.805    5.5924
   23.820    5.7083
   23.835    6.0348
   23.850    5.2765
   23.865    5.1501
   23.880    5.6977
   23.895    5.7609
   23.910    5.5503
   23.925    5.7715
   23.940    5.4028
   23.955    5.7715
   23.970    5.6135
   23.985    5.6345
   24.000    5.9189
   24.015    6.1085
   24.030    5.9189
   24.045    5.5608
   24.060    5.7925
   24.075    5.6977
   24.090    5.7083
   24.105    5.8978
   24.120    5.5819
   24.135    5.5924
   24.150    5.8452
   24.165    5.6977
   24.180    5.5082
   24.195    5.5082
   24.210    5.4450
   24.225    5.3712
   24.240    5.8873
   24.255    5.5819
   24.270    5.7609
   24.285    5.5187
   24.300    5.6767
   24.315    5.7188
   24.330    5.6135
   24.345    5.6029
   24.360    5.5292
   24.375    5.4976
   24.390    5.6451
   24.405    5.6872
   24.420    5.3291
   24.435    5.5924
   24.450    5.4660
   24.465    5.4660
   24.480    5.8241
   24.495    6.2349
   24.510    5.6767
   24.525    5.4450
   24.540    5.6556
   24.555    5.7715
   24.570    5.4660
   24.585    5.6029
   24.600    5.2765
   24.615    5.5608
   24.630    5.5819
   24.645    5.4344
   24.660    5.7293
   24.675    5.5819
   24.690    5.4239
   24.705    5.8347
   24.720    5.5714
   24.735    5.5714
   24.750    5.2027
   24.765    5.3607
   24.780    5.5819
   24.795    5.6556
   24.810    5.6767
   24.825    5.8136
   24.840    5.7293
   24.855    5.7188
   24.870    5.3081
   24.885    5.3923
   24.900    5.3186
   24.915    5.1395
   24.930    5.3186
   24.945    5.3186
   24.960    5.1922
   24.975    5.3607
   24.990    5.5187
   25.005    5.4555
   25.020    5.5608
   25.035    5.4028
   25.050    5.3397
   25.065    5.5292
   25.080    5.5503
   25.095    5.1922
   25.110    5.3607
   25.125    5.3712
   25.140    5.7609
   25.155    5.4871
   25.170    5.6661
   25.185    5.7715
   25.200    5.3607
   25.215    5.4871
   25.230    5.7609
   25.245    5.4450
   25.260    5.5819
   25.275    5.6345
   25.290    5.5819
   25.305    5.4450
   25.320    5.2027
   25.335    5.3291
   25.350    5.4344
   25.365    5.6451
   25.380    5.4976
   25.395    5.2870
   25.410    5.4134
   25.425    5.6345
   25.440    5.6345
   25.455    5.3081
   25.470    5.1395
   25.485    5.8557
   25.500    5.8452
   25.515    5.7399
   25.530    5.3397
   25.545    5.1922
   25.560    5.6029
   25.575    5.7293
   25.590    5.8978
   25.605    5.4976
   25.620    5.5608
   25.635    5.2133
   25.650    5.1817
   25.665    5.7083
   25.680    5.3923
   25.695    5.2449
   25.710    5.1711
   25.725    5.2870
   25.740    5.5503
   25.755    5.8136
   25.770    5.6767
   25.785    5.4028
   25.800    5.5292
   25.815    5.5292
   25.830    5.4976
   25.845    5.6135
   25.860    5.7504
   25.875    5.5398
   25.890    5.5503
   25.905    5.5608
   25.920    5.6872
   25.935    5.3818
   25.950    5.6872
   25.965    5.6029
   25.980    5.5819
   25.995    5.8557
   26.010    5.6872
   26.025    5.7609
   26.040    5.2027
   26.055    5.5503
   26.070    5.5398
   26.085    5.5292
   26.100    5.2870
   26.115    5.3081
   26.130    5.2027
   26.145    5.5819
   26.160    5.2765
   26.175    5.3923
   26.190    5.4555
   26.205    5.6240
   26.220    5.6135
   26.235    5.3502
   26.250    5.5082
   26.265    5.4134
   26.280    5.1922
   26.295    5.5714
   26.310    5.3712
   26.325    5.4660
   26.340    5.3291
   26.355    4.9289
   26.370    5.1395
   26.385    4.9605
   26.400    5.2027
   26.415    5.4766
   26.430    5.7293
   26.445    5.2870
   26.460    5.3712
   26.475    5.2554
   26.490    5.5714
   26.505    5.5503
   26.520    5.2765
   26.535    5.3502
   26.550    5.5187
   26.565    5.1711
   26.580    5.3607
   26.595    5.2343
   26.610    5.2133
   26.625    5.2870
   26.640    5.4976
   26.655    5.2659
   26.670    5.0237
   26.685    5.2449
   26.700    5.4450
   26.715    5.2343
   26.730    5.3607
   26.745    5.3186
   26.760    5.4028
   26.775    5.4450
   26.790    5.1395
   26.805    4.8447
   26.820    5.2449
   26.835    5.1185
   26.850    5.5608
   26.865    5.4239
   26.880    5.0026
   26.895    5.4344
   26.910    5.5082
   26.925    5.3712
   26.940    5.3397
   26.955    5.4344
   26.970    5.6556
   26.985    5.4450
   27.000    5.3081
   27.015    5.5924
   27.030    5.6345
   27.045    5.4555
   27.060    5.1922
   27.075    5.1711
   27.090    5.3923
   27.105    5.3186
   27.120    5.4871
   27.135    5.1290
   27.150    5.4239
   27.165    5.6029
   27.180    5.1817
   27.195    5.5187
   27.210    5.4660
   27.225    5.5924
   27.240    5.1185
   27.255    5.4134
   27.270    5.2659
   27.285    5.0869
   27.300    5.1606
   27.315    5.5398
   27.330    5.4976
   27.345    5.2554
   27.360    5.1606
   27.375    5.1395
   27.390    5.4450
   27.405    5.4450
   27.420    5.0342
   27.435    5.1922
   27.450    5.5608
   27.465    5.4134
   27.480    5.2765
   27.495    5.3818
   27.510    5.2027
   27.525    5.4344
   27.540    5.1606
   27.555    5.3818
   27.570    5.4239
   27.585    5.2027
   27.600    5.0553
   27.615    4.9921
   27.630    5.0553
   27.645    5.2449
   27.660    5.3397
   27.675    5.2343
   27.690    5.4871
   27.705    5.0764
   27.720    5.0448
   27.735    5.1922
   27.750    5.7083
   27.765    5.1922
   27.780    5.1922
   27.795    4.9500
   27.810    5.2133
   27.825    5.0658
   27.840    5.2975
   27.855    5.0764
   27.870    5.0553
   27.885    4.9921
   27.900    5.4028
   27.915    5.2027
   27.930    5.2659
   27.945    5.3081
   27.960    5.1501
   27.975    5.0342
   27.990    5.0974
   28.005    5.0448
   28.020    4.9078
   28.035    5.0764
   28.050    5.1501
   28.065    5.3502
   28.080    5.1395
   28.095    5.3923
   28.110    5.1290
   28.125    4.9394
   28.140    4.9500
   28.155    5.1395
   28.170    5.4344
   28.185    5.6767
   28.200    5.2975
   28.215    5.3923
   28.230    5.2238
   28.245    5.4766
   28.260    5.2870
   28.275    4.9816
   28.290    5.2870
   28.305    5.2449
   28.320    5.1501
   28.335    5.3397
   28.350    5.0342
   28.365    5.1817
   28.380    5.2238
   28.395    5.0764
   28.410    5.2449
   28.425    5.1711
   28.440    5.1922
   28.455    5.1922
   28.470    5.1817
   28.485    5.0764
   28.500    4.9289
   28.515    5.0342
   28.530    5.3818
   28.545    5.0132
   28.560    4.9816
   28.575    5.0974
   28.590    5.2870
   28.605    5.0448
   28.620    4.9816
   28.635    5.6977
   28.650    5.2238
   28.665    5.1395
   28.680    4.8131
   28.695    5.0132
   28.710    5.0658
   28.725    4.9921
   28.740    4.9078
   28.755    5.1290
   28.770    5.2238
   28.785    5.4766
   28.800    5.4239
   28.815    5.0448
   28.830    5.1290
   28.845    4.9605
   28.860    5.3081
   28.875    5.3186
   28.890    5.3186
   28.905    5.2765
   28.920    5.0026
   28.935    4.8657
   28.950    5.0026
   28.965    4.8763
   28.980    5.0448
   28.995    5.1606
   29.010    5.0132
   29.025    4.9394
   29.040    5.4028
   29.055    5.1501
   29.070    5.1290
   29.085    5.0658
   29.100    5.0764
   29.115    4.7604
   29.130    5.3923
   29.145    4.8763
   29.160    4.9289
   29.175    5.2449
   29.190    5.0764
   29.205    5.0342
   29.220    4.8763
   29.235    4.9605
   29.250    4.9605
   29.265    4.9078
   29.280    5.0237
   29.295    4.9816
   29.310    4.9078
   29.325    4.7183
   29.340    5.0448
   29.355    4.9184
   29.370    5.1817
   29.385    4.9816
   29.400    5.0658
   29.415    5.2133
   29.430    5.4450
   29.445    5.0132
   29.460    5.0026
   29.475    5.2027
   29.490    5.0974
   29.505    5.0237
   29.520    5.1080
   29.535    5.1185
   29.550    4.7815
   29.565    5.0132
   29.580    4.9816
   29.595    4.9605
   29.610    4.8973
   29.625    5.1290
   29.640    4.8763
   29.655    5.0132
   29.670    4.9184
   29.685    4.9500
   29.700    5.1395
   29.715    4.9078
   29.730    5.2449
   29.745    4.8552
   29.760    4.8447
   29.775    4.8973
   29.790    4.8763
   29.805    4.9500
   29.820    4.8447
   29.835    4.8657
   29.850    5.1606
   29.865    4.7604
   29.880    4.8657
   29.895    4.9816
   29.910    5.0026
   29.925    5.0764
   29.940    4.8763
   29.955    5.1080
   29.970    4.8973
   29.985    4.9921
   30.000    4.7920
   30.015    4.6972
   30.030    4.8341
   30.045    4.8447
   30.060    4.9816
   30.075    4.8657
   30.090    5.1501
   30.105    5.0658
   30.120    5.2449
   30.135    5.0869
   30.150    5.1395
   30.165    4.5919
   30.180    5.0342
   30.195    4.7393
   30.210    4.8552
   30.225    4.8973
   30.240    5.0237
   30.255    4.8763
   30.270    4.9921
   30.285    4.9605
   30.300    5.0974
   30.315    4.7709
   30.330    5.2343
   30.345    4.9710
   30.360    4.9078
   30.375    4.8973
   30.390    4.8341
   30.405    5.1711
   30.420    4.9184
   30.435    4.8868
   30.450    5.0553
   30.465    5.1817
   30.480    5.0132
   30.495    5.2554
   30.510    5.1711
   30.525    5.0132
   30.540    4.7393
   30.555    5.0237
   30.570    5.0237
   30.585    5.2554
   30.600    5.0764
   30.615    5.0026
   30.630    5.1185
   30.645    5.3923
   30.660    4.8868
   30.675    4.9816
   30.690    4.8973
   30.705    4.8447
   30.720    4.7183
   30.735    5.0026
   30.750    4.9921
   30.765    4.7183
   30.780    4.6656
   30.795    4.7288
   30.810    5.2765
   30.825    5.0342
   30.840    5.0869
   30.855    4.7077
   30.870    5.0869
   30.885    5.0658
   30.900    4.7604
   30.915    4.8341
   30.930    4.8763
   30.945    5.0237
   30.960    4.9394
   30.975    4.6972
   30.990    5.0448
   31.005    5.0132
   31.020    4.9289
   31.035    4.9500
   31.050    4.8868
   31.065    5.0237
   31.080    4.9921
   31.095    4.8131
   31.110    4.6130
   31.125    4.6130
   31.140    4.5392
   31.155    4.5287
   31.170    5.0448
   31.185    4.9394
   31.200    4.8973
   31.215    4.4760
   31.230    4.8025
   31.245    5.0132
   31.260    5.1817
   31.275    5.2659
   31.290    5.0974
   31.305    4.7499
   31.320    4.9605
   31.335    4.8236
   31.350    4.8131
   31.365    5.1290
   31.380    5.2449
   31.395    5.1080
   31.410    5.1817
   31.425    4.9710
   31.440    5.0342
   31.455    4.9078
   31.470    4.7499
   31.485    4.7815
   31.500    4.8447
   31.515    4.7183
   31.530    4.7815
   31.545    4.7604
   31.560    5.0132
   31.575    4.7604
   31.590    4.7709
   31.605    5.1185
   31.620    4.8552
   31.635    4.6972
   31.650    5.2133
   31.665    5.2975
   31.680    5.1185
   31.695    5.1817
   31.710    4.9710
   31.725    4.9500
   31.740    4.7288
   31.755    4.8552
   31.770    4.9921
   31.785    5.2238
   31.800    4.7393
   31.815    4.7077
   31.830    4.7393
   31.845    5.1501
   31.860    5.0869
   31.875    5.2238
   31.890    5.0237
   31.905    5.1080
   31.920    5.0448
   31.935    5.0026
   31.950    5.1290
   31.965    4.6972
   31.980    4.4971
   31.995    4.7393
   32.010    5.4555
   32.025    5.0764
   32.040    5.4555
   32.055    4.7920
   32.070    5.0448
   32.085    4.8131
   32.100    4.8447
   32.115    5.4976
   32.130    4.7288
   32.145    5.0658
   32.160    4.8657
   32.175    4.9921
   32.190    4.8236
   32.205    4.7288
   32.220    4.7709
   32.235    4.9605
   32.250    4.6656
   32.265    4.7920
   32.280    5.3291
   32.295    4.8341
   32.310    4.7709
   32.325    4.9078
   32.340    4.6235
   32.355    4.3286
   32.370    4.6972
   32.385    5.0132
   32.400    4.9078
   32.415    4.7709
   32.430    4.8131
   32.445    4.6972
   32.460    4.5603
   32.475    4.9289
   32.490    4.7393
   32.505    4.8341
   32.520    4.8447
   32.535    4.8236
   32.550    4.7499
   32.565    4.5919
   32.580    4.8552
   32.595    4.8552
   32.610    4.6130
   32.625    4.6445
   32.640    4.5182
   32.655    4.8552
   32.670    4.8025
   32.685    4.4866
   32.700    4.5182
   32.715    4.4023
   32.730    4.6656
   32.745    4.5708
   32.760    4.6235
   32.775    4.6024
   32.790    4.8236
   32.805    4.6551
   32.820    4.8341
   32.835    4.6656
   32.850    4.7709
   32.865    4.6761
   32.880    4.3391
   32.895    4.5076
   32.910    4.7815
   32.925    4.5498
   32.940    4.2865
   32.955    4.5919
   32.970    4.6024
   32.985    5.1080
   33.000    4.6867
   33.015    4.9394
   33.030    4.7920
   33.045    4.6867
   33.060    4.7920
   33.075    4.6867
   33.090    4.4655
   33.105    4.6761
   33.120    4.9710
   33.135    4.9394
   33.150    4.5498
   33.165    4.5814
   33.180    4.5287
   33.195    4.4760
   33.210    4.5182
   33.225    4.4971
   33.240    4.7709
   33.255    4.4128
   33.270    4.3602
   33.285    4.4971
   33.300    4.3918
   33.315    4.5919
   33.330    4.3286
   33.345    4.4339
   33.360    4.6551
   33.375    4.4234
   33.390    4.6867
   33.405    4.1601
   33.420    4.2443
   33.435    4.1601
   33.450    4.2759
   33.465    4.3075
   33.480    4.3181
   33.495    4.7604
   33.510    4.6972
   33.525    4.6551
   33.540    4.4760
   33.555    4.2865
   33.570    4.5287
   33.585    4.9816
   33.600    5.0553
   33.615    4.7920
   33.630    4.4655
   33.645    4.6235
   33.660    4.2443
   33.675    4.5498
   33.690    4.5919
   33.705    4.2338
   33.720    4.5392
   33.735    4.5287
   33.750    4.6761
   33.765    4.7604
   33.780    4.6024
   33.795    4.6130
   33.810    4.6445
   33.825    4.5814
   33.840    4.4866
   33.855    4.8447
   33.870    4.5076
   33.885    4.4550
   33.900    4.3391
   33.915    4.4655
   33.930    4.3918
   33.945    4.5814
   33.960    4.4971
   33.975    4.5182
   33.990    4.7815
   34.005    4.6551
   34.020    4.2443
   34.035    4.2759
   34.050    4.9605
   34.065    4.5919
   34.080    4.4023
   34.095    4.5603
   34.110    5.0974
   34.125    4.5287
   34.140    4.4550
   34.155    4.7604
   34.170    4.5182
   34.185    4.5708
   34.200    4.6024
   34.215    4.5392
   34.230    4.5708
   34.245    4.3813
   34.260    4.3075
   34.275    4.4760
   34.290    4.7183
   34.305    4.3391
   34.320    4.4234
   34.335    4.4550
   34.350    4.3918
   34.365    4.4444
   34.380    4.4866
   34.395    4.3918
   34.410    4.4023
   34.425    4.1285
   34.440    4.5392
   34.455    4.6551
   34.470    4.7393
   34.485    4.7393
   34.500    4.3391
   34.515    4.1706
   34.530    4.4444
   34.545    4.6656
   34.560    4.4971
   34.575    4.5919
   34.590    4.5287
   34.605    4.5076
   34.620    4.5076
   34.635    4.3497
   34.650    4.4655
   34.665    4.1601
   34.680    4.4760
   34.695    4.3391
   34.710    4.4866
   34.725    4.5498
   34.740    4.3918
   34.755    4.4655
   34.770    4.0232
   34.785    4.3813
   34.800    4.5287
   34.815    4.5392
   34.830    4.3181
   34.845    4.6130
   34.860    4.4550
   34.875    4.6340
   34.890    4.3602
   34.905    4.5287
   34.920    4.4655
   34.935    4.3707
   34.950    4.4760
   34.965    4.3286
   34.980    4.2654
   34.995    4.4760
   35.010    4.2127
   35.025    4.3391
   35.040    4.4023
   35.055    4.4234
   35.070    4.4234
   35.085    4.5603
   35.100    4.2970
   35.115    4.5287
   35.130    4.3391
   35.145    4.2022
   35.160    4.4023
   35.175    4.4023
   35.190    4.3707
   35.205    4.4971
   35.220    4.3813
   35.235    4.6130
   35.250    4.2338
   35.265    4.4128
   35.280    4.4550
   35.295    4.4339
   35.310    4.3707
   35.325    4.4550
   35.340    4.2970
   35.355    4.1601
   35.370    4.0337
   35.385    4.2022
   35.400    4.2865
   35.415    4.4339
   35.430    4.2338
   35.445    3.9810
   35.460    4.0021
   35.475    4.2759
   35.490    4.4444
   35.505    4.4444
   35.520    4.2549
   35.535    4.4866
   35.550    4.5392
   35.565    4.7709
   35.580    4.2338
   35.595    4.4971
   35.610    4.4128
   35.625    4.4444
   35.640    4.2549
   35.655    3.9494
   35.670    4.2759
   35.685    4.1496
   35.700    4.4760
   35.715    4.4128
   35.730    4.1811
   35.745    4.5814
   35.760    4.6024
   35.775    4.1601
   35.790    4.4655
   35.805    4.6867
   35.820    4.4023
   35.835    4.5392
   35.850    4.3918
   35.865    4.3075
   35.880    4.2338
   35.895    4.6867
   35.910    4.2233
   35.925    4.3181
   35.940    4.3813
   35.955    4.4760
   35.970    3.9705
   35.985    4.4128
   36.000    4.5498
   36.015    4.2549
   36.030    4.6867
   36.045    4.2970
   36.060    4.1390
   36.075    4.4128
   36.090    4.4234
   36.105    4.1601
   36.120    4.2970
   36.135    4.4128
   36.150    4.0126
   36.165    4.1706
   36.180    4.2022
   36.195    3.9179
   36.210    4.3181
   36.225    4.3918
   36.240    4.2127
   36.255    4.0969
   36.270    3.8547
   36.285    4.3813
   36.300    4.1706
   36.315    4.2865
   36.330    4.3707
   36.345    4.0548
   36.360    4.3918
   36.375    4.3391
   36.390    4.0021
   36.405    4.1496
   36.420    4.1285
   36.435    4.2338
   36.450    4.4023
   36.465    4.5076
   36.480    4.4760
   36.495    4.1917
   36.510    4.2759
   36.525    4.0969
   36.540    4.0758
   36.555    4.4760
   36.570    4.2338
   36.585    4.2127
   36.600    4.3497
   36.615    4.4023
   36.630    4.3813
   36.645    4.2233
   36.660    4.2022
   36.675    4.2549
   36.690    4.2865
   36.705    4.2127
   36.720    4.2443
   36.735    4.3918
   36.750    4.0969
   36.765    4.0864
   36.780    4.2338
   36.795    4.3286
   36.810    4.4550
   36.825    4.2970
   36.840    4.1285
   36.855    4.3813
   36.870    4.4339
   36.885    4.4550
   36.900    4.5814
   36.915    4.2233
   36.930    4.2443
   36.945    4.5603
   36.960    4.1285
   36.975    4.5076
   36.990    4.4234
   37.005    3.9494
   37.020    4.2022
   37.035    4.3707
   37.050    4.4655
   37.065    4.3286
   37.080    4.2549
   37.095    4.0021
   37.110    4.0864
   37.125    3.9600
   37.140    4.2759
   37.155    4.3391
   37.170    4.0442
   37.185    4.0758
   37.200    4.0864
   37.215    4.1496
   37.230    4.3918
   37.245    4.2865
   37.260    4.2759
   37.275    4.2970
   37.290    4.0126
   37.305    4.1601
   37.320    4.0864
   37.335    4.3181
   37.350    4.3181
   37.365    3.8547
   37.380    4.1601
   37.395    4.2338
   37.410    4.6024
   37.425    3.9600
   37.440    4.1706
   37.455    4.4760
   37.470    4.1601
   37.485    4.1917
   37.500    4.2233
   37.515    4.1074
   37.530    4.3707
   37.545    4.2022
   37.560    3.8547
   37.575    4.0337
   37.590    4.1074
   37.605    4.1390
   37.620    4.1917
   37.635    4.0442
   37.650    4.1706
   37.665    4.1390
   37.680    4.0969
   37.695    4.2338
   37.710    4.0337
   37.725    3.9284
   37.740    4.0232
   37.755    4.2338
   37.770    4.1285
   37.785    4.0653
   37.800    4.1706
   37.815    4.0021
   37.830    4.1180
   37.845    4.4023
   37.860    4.1285
   37.875    4.2759
   37.890    4.5182
   37.905    3.9916
   37.920    4.0232
   37.935    4.2127
   37.950    3.9600
   37.965    3.9705
   37.980    4.2233
   37.995    3.9916
   38.010    4.4655
   38.025    4.2759
   38.040    4.1706
   38.055    4.2022
   38.070    4.3181
   38.085    4.1811
   38.100    4.2654
   38.115    4.2233
   38.130    4.1917
   38.145    4.0337
   38.160    4.1601
   38.175    4.2654
   38.190    4.0442
   38.205    4.3075
   38.220    4.2654
   38.235    4.4234
   38.250    4.1706
   38.265    3.8968
   38.280    4.4339
   38.295    4.2443
   38.310    4.0864
   38.325    3.8547
   38.340    4.2233
   38.355    4.4234
   38.370    3.9810
   38.385    4.0442
   38.400    3.9916
   38.415    4.0758
   38.430    4.3707
   38.445    4.4023
   38.460    4.2759
   38.475    4.0969
   38.490    3.9705
   38.505    4.1074
   38.520    4.2022
   38.535    4.0969
   38.550    4.2338
   38.565    3.9284
   38.580    4.0548
   38.595    4.1917
   38.610    4.2022
   38.625    4.1601
   38.640    4.0758
   38.655    4.3918
   38.670    4.1601
   38.685    4.3707
   38.700    4.3602
   38.715    4.0864
   38.730    4.2865
   38.745    4.2970
   38.760    4.1285
   38.775    4.1285
   38.790    4.0758
   38.805    4.0232
   38.820    4.3391
   38.835    4.3075
   38.850    4.2338
   38.865    4.1390
   38.880    4.4866
   38.895    4.1706
   38.910    4.3813
   38.925    4.2127
   38.940    4.5603
   38.955    4.2443
   38.970    4.0653
   38.985    4.2865
   39.000    4.2549
   39.015    4.4971
   39.030    4.7499
   39.045    4.5392
   39.060    4.7393
   39.075    4.6340
   39.090    4.5392
   39.105    4.6972
   39.120    4.7077
   39.135    4.5076
   39.150    4.5814
   39.165    4.7288
   39.180    4.7183
   39.195    4.8341
   39.210    4.6656
   39.225    4.4760
   39.240    4.6656
   39.255    4.4128
   39.270    4.5919
   39.285    4.8025
   39.300    4.4550
   39.315    4.4866
   39.330    4.5392
   39.345    4.6024
   39.360    4.2865
   39.375    4.1917
   39.390    4.3602
   39.405    4.4444
   39.420    4.2865
   39.435    4.3181
   39.450    4.3497
   39.465    4.5919
   39.480    4.6130
   39.495    4.2338
   39.510    4.3181
   39.525    3.9600
   39.540    4.3075
   39.555    4.3707
   39.570    4.3497
   39.585    4.2338
   39.600    4.3813
   39.615    4.3707
   39.630    4.1285
   39.645    4.1706
   39.660    4.2759
   39.675    4.1285
   39.690    4.1074
   39.705    4.1074
   39.720    3.7915
   39.735    4.2022
   39.750    4.1811
   39.765    3.7809
   39.780    3.9179
   39.795    3.9494
   39.810    4.1917
   39.825    4.2022
   39.840    4.2549
   39.855    4.2443
   39.870    3.8968
   39.885    3.9494
   39.900    4.0126
   39.915    4.2970
   39.930    4.0126
   39.945    3.9916
   39.960    3.8547
   39.975    4.1180
   39.990    3.9179
