    1.500   21.2217
    1.515   21.4850
    1.530   20.9584
    1.545   20.4845
    1.560   20.1334
    1.575   19.5366
    1.590   19.5893
    1.605   20.4494
    1.620   19.3084
    1.635   18.6063
    1.650   18.3781
    1.665   18.4132
    1.680   18.3781
    1.695   17.3074
    1.710   18.1148
    1.725   16.9738
    1.740   17.0441
    1.755   16.1489
    1.770   16.6579
    1.785   16.9738
    1.800   16.0084
    1.815   16.4999
    1.830   16.4648
    1.845   15.0430
    1.860   15.1308
    1.875   15.4292
    1.890   15.1308
    1.905   15.4467
    1.920   14.6744
    1.935   14.4989
    1.950   14.6042
    1.965   14.3584
    1.980   14.2882
    1.995   15.4643
    2.010   14.8675
    2.025   14.6042
    2.040   14.2005
    2.055   13.2877
    2.070   13.8143
    2.085   13.4457
    2.100   13.6037
    2.115   13.6914
    2.130   13.6212
    2.145   13.5510
    2.160   12.5856
    2.175   12.5329
    2.190   13.2350
    2.205   13.1122
    2.220   12.9191
    2.235   12.9015
    2.250   12.8138
    2.265   12.3749
    2.280   12.3223
    2.295   12.4276
    2.310   12.5680
    2.325   12.0590
    2.340   12.5329
    2.355   12.4627
    2.370   12.3398
    2.385   11.4973
    2.400   11.9537
    2.415   11.4973
    2.430   11.8132
    2.445   11.3744
    2.460   10.9882
    2.475   11.8659
    2.490   11.9712
    2.505   11.8308
    2.520   11.2515
    2.535   11.9361
    2.550   11.7430
    2.565   11.8308
    2.580   11.6728
    2.595   11.4271
    2.610   11.4622
    2.625   11.4271
    2.640   11.3217
    2.655   10.4441
    2.670   10.9356
    2.685   10.6547
    2.700   10.4265
    2.715   11.5324
    2.730   10.6898
    2.745   10.5494
    2.760   10.8303
    2.775   11.3217
    2.790   11.1989
    2.805   10.4265
    2.820   10.3388
    2.835   10.4792
    2.850   10.5494
    2.865   11.1287
    2.880   10.7952
    2.895   10.8829
    2.910   10.2686
    2.925   10.6021
    2.940   10.7249
    2.955   10.6021
    2.970   11.1111
    2.985   10.5845
    3.000   10.9356
    3.015   10.4441
    3.030   10.1983
    3.045   11.0760
    3.060   10.2686
    3.075   10.2335
    3.090   10.1632
    3.105   11.1462
    3.120   10.9531
    3.135   11.2866
    3.150   10.7776
    3.165   11.6026
    3.180   11.3744
    3.195   11.5148
    3.210   11.6728
    3.225   11.7430
    3.240   11.8834
    3.255   12.3047
    3.270   11.9010
    3.285   11.2866
    3.300   12.8664
    3.315   12.9542
    3.330   13.0068
    3.345   13.8143
    3.360   13.8669
    3.375   13.9372
    3.390   14.0249
    3.405   15.4292
    3.420   15.5696
    3.435   15.8329
    3.450   16.6754
    3.465   16.9738
    3.480   17.7813
    3.495   18.8520
    3.510   19.2031
    3.525   20.2387
    3.540   21.8009
    3.555   22.6084
    3.570   23.3632
    3.585   25.1711
    3.600   25.8733
    3.615   28.3834
    3.630   30.0158
    3.645   31.2796
    3.660   32.6137
    3.675   34.9658
    3.690   38.5642
    3.705   40.2317
    3.720   45.4099
    3.735   49.6051
    3.750   54.4848
    3.765   60.5933
    3.780   66.8246
    3.795   74.0916
    3.810   84.2724
    3.825   96.1032
    3.840  107.2494
    3.855  114.5515
    3.870  111.1462
    3.885  101.1059
    3.900   83.4825
    3.915   63.4193
    3.930   42.7945
    3.945   27.8743
    3.960   20.6600
    3.975   15.3063
    3.990   12.8840
    4.005   12.0941
    4.020   12.8664
    4.035   12.0239
    4.050   11.0936
    4.065   10.7776
    4.080   10.6547
    4.095   10.3037
    4.110   10.6196
    4.125    9.6542
    4.140    9.7595
    4.155    9.8648
    4.170   10.1106
    4.185    9.5138
    4.200    9.6893
    4.215    9.3031
    4.230    9.1276
    4.245    9.2329
    4.260    9.3031
    4.275    8.4781
    4.290    9.2856
    4.305    8.8994
    4.320    9.0047
    4.335    9.5489
    4.350    9.4962
    4.365    8.8292
    4.380    9.1978
    4.395    8.5484
    4.410    8.8994
    4.425    9.1276
    4.440    8.6010
    4.455    8.5835
    4.470    8.9872
    4.485    9.1803
    4.500    9.1627
    4.515    8.9345
    4.530    8.6888
    4.545    9.0398
    4.560    9.0047
    4.575    9.0574
    4.590    8.9521
    4.605    9.0925
    4.620    9.4085
    4.635    9.9351
    4.650    8.9345
    4.665    9.0047
    4.680    9.1276
    4.695    8.6361
    4.710    9.6367
    4.725    9.3382
    4.740    8.8643
    4.755    9.4436
    4.770    9.3734
    4.785    9.1627
    4.800    8.9696
    4.815    9.0925
    4.830    9.2154
    4.845    9.7244
    4.860    9.4611
    4.875    9.5489
    4.890    8.6186
    4.905    8.8994
    4.920    8.7063
    4.935    9.1452
    4.950    9.5489
    4.965    9.6367
    4.980    9.8999
    4.995   10.0404
    5.010   10.0228
    5.025   10.1632
    5.040    9.5138
    5.055    9.6191
    5.070   10.0228
    5.085   10.1457
    5.100   10.7249
    5.115   10.3914
    5.130   10.7952
    5.145   10.4792
    5.160   10.8127
    5.175   11.6026
    5.190   12.4100
    5.205   11.5850
    5.220   11.8308
    5.235   12.6031
    5.250   13.1122
    5.265   12.8313
    5.280   13.0595
    5.295   13.6388
    5.310   14.1829
    5.325   14.1829
    5.340   14.8148
    5.355   15.9558
    5.370   16.8510
    5.385   18.6765
    5.400   19.5190
    5.415   20.0807
    5.430   21.1690
    5.445   24.2233
    5.460   26.6105
    5.475   27.1546
    5.490   27.9621
    5.505   27.4355
    5.520   24.9254
    5.535   22.5206
    5.550   18.5010
    5.565   15.0781
    5.580   13.0244
    5.595   11.9361
    5.610   12.0590
    5.625   12.1292
    5.640   11.7430
    5.655   11.5499
    5.670   11.5850
    5.685   11.1111
    5.700   10.7600
    5.715   10.9707
    5.730   10.7952
    5.745    9.9702
    5.760   10.7425
    5.775   10.9531
    5.790    9.7771
    5.805   10.3914
    5.820   10.2159
    5.835    9.9877
    5.850    9.5138
    5.865    9.7946
    5.880    9.9877
    5.895    9.3031
    5.910    9.0925
    5.925    9.0750
    5.940    9.6367
    5.955    9.9877
    5.970    9.3909
    5.985    9.2505
    6.000    8.8117
    6.015    8.5133
    6.030    8.6537
    6.045    8.7239
    6.060    9.0398
    6.075    8.8468
    6.090    9.0574
    6.105    8.4430
    6.120    8.1973
    6.135    8.8117
    6.150    8.6537
    6.165    8.0393
    6.180    9.1978
    6.195    9.2856
    6.210    9.2680
    6.225    8.8468
    6.240    8.9170
    6.255    8.6712
    6.270    8.3553
    6.285    9.0398
    6.300    8.1973
    6.315    8.2324
    6.330    8.5133
    6.345    8.3904
    6.360    8.3553
    6.375    8.7414
    6.390    8.9345
    6.405    8.1095
    6.420    8.1271
    6.435    8.1622
    6.450    8.1095
    6.465    7.6532
    6.480    8.0744
    6.495    8.5133
    6.510    8.1797
    6.525    8.1622
    6.540    8.3377
    6.555    7.8638
    6.570    7.6707
    6.585    8.0393
    6.600    7.9340
    6.615    7.6180
    6.630    7.7234
    6.645    8.4430
    6.660    9.2154
    6.675    8.1095
    6.690    8.1271
    6.705    8.1446
    6.720    8.7765
    6.735    8.7590
    6.750    8.4606
    6.765    8.5484
    6.780    8.4430
    6.795    8.5308
    6.810    8.1446
    6.825    7.3547
    6.840    7.7760
    6.855    7.4074
    6.870    7.5478
    6.885    7.4250
    6.900    7.1968
    6.915    7.5829
    6.930    7.3021
    6.945    7.2494
    6.960    7.6005
    6.975    7.4601
    6.990    7.6180
    7.005    7.4776
    7.020    7.6356
    7.035    7.3196
    7.050    7.3899
    7.065    7.8111
    7.080    7.2143
    7.095    7.3723
    7.110    6.9159
    7.125    7.1441
    7.140    6.9159
    7.155    7.3196
    7.170    7.3899
    7.185    6.7930
    7.200    6.6175
    7.215    6.7404
    7.230    7.0037
    7.245    6.6702
    7.260    7.0915
    7.275    7.0388
    7.290    6.8984
    7.305    7.2845
    7.320    6.5122
    7.335    6.6000
    7.350    7.0037
    7.365    7.1968
    7.380    6.9686
    7.395    7.2845
    7.410    6.8282
    7.425    6.3016
    7.440    7.0563
    7.455    6.6877
    7.470    6.5122
    7.485    7.0037
    7.500    7.1968
    7.515    6.7930
    7.530    7.1617
    7.545    7.1617
    7.560    7.4952
    7.575    6.8106
    7.590    7.6707
    7.605    7.7760
    7.620    7.2319
    7.635    7.7409
    7.650    7.8813
    7.665    7.7936
    7.680    8.1095
    7.695    8.3377
    7.710    9.4611
    7.725   10.3739
    7.740   10.6021
    7.755   11.1287
    7.770   12.2170
    7.785   12.5856
    7.800   12.3223
    7.815   11.5324
    7.830   10.6196
    7.845    8.8819
    7.860    8.6537
    7.875    7.2845
    7.890    7.2670
    7.905    6.9861
    7.920    6.5122
    7.935    6.0383
    7.950    6.2138
    7.965    6.0734
    7.980    5.8978
    7.995    6.0909
    8.010    6.2840
    8.025    6.5473
    8.040    5.9681
    8.055    6.4946
    8.070    5.9505
    8.085    5.6170
    8.100    5.8276
    8.115    5.9505
    8.130    6.0909
    8.145    5.9681
    8.160    6.4244
    8.175    6.1085
    8.190    5.8803
    8.205    5.8452
    8.220    6.5824
    8.235    6.0383
    8.250    5.6521
    8.265    5.7048
    8.280    6.2665
    8.295    5.9154
    8.310    6.0383
    8.325    5.6521
    8.340    6.0032
    8.355    6.6526
    8.370    6.2313
    8.385    5.9505
    8.400    6.0558
    8.415    5.8978
    8.430    5.8276
    8.445    5.6345
    8.460    6.0734
    8.475    6.0032
    8.490    5.9154
    8.505    5.7925
    8.520    5.8803
    8.535    6.2138
    8.550    5.9681
    8.565    5.8452
    8.580    6.0207
    8.595    6.0383
    8.610    6.4244
    8.625    6.7053
    8.640    6.8808
    8.655    6.7053
    8.670    6.8984
    8.685    7.2494
    8.700    6.9686
    8.715    7.0388
    8.730    7.3899
    8.745    7.0563
    8.760    6.7404
    8.775    6.8282
    8.790    6.6175
    8.805    6.3893
    8.820    6.0032
    8.835    6.1962
    8.850    6.0558
    8.865    5.5994
    8.880    5.8452
    8.895    5.8101
    8.910    6.0734
    8.925    6.1611
    8.940    5.8452
    8.955    5.9856
    8.970    5.4415
    8.985    5.5292
    9.000    5.3186
    9.015    5.4239
    9.030    5.6170
    9.045    6.1962
    9.060    5.9505
    9.075    5.8452
    9.090    5.5292
    9.105    5.4415
    9.120    5.7048
    9.135    5.8276
    9.150    5.5117
    9.165    5.8101
    9.180    5.4941
    9.195    5.9329
    9.210    5.5994
    9.225    5.4766
    9.240    6.0558
    9.255    6.0032
    9.270    5.7399
    9.285    6.0032
    9.300    5.9154
    9.315    5.2835
    9.330    5.6872
    9.345    6.2665
    9.360    6.2313
    9.375    6.4244
    9.390    6.5298
    9.405    7.1617
    9.420    7.4425
    9.435    7.3899
    9.450    7.6707
    9.465    8.7414
    9.480    9.0047
    9.495   10.0053
    9.510   11.5675
    9.525   13.1824
    9.540   13.8669
    9.555   13.5334
    9.570   13.9196
    9.585   12.4451
    9.600   11.2515
    9.615    9.1803
    9.630    8.0393
    9.645    6.5649
    9.660    6.3367
    9.675    5.7574
    9.690    5.5994
    9.705    5.7925
    9.720    5.8803
    9.735    5.8276
    9.750    5.4941
    9.765    5.9154
    9.780    5.8452
    9.795    5.5819
    9.810    5.8452
    9.825    5.7925
    9.840    6.0383
    9.855    5.3712
    9.870    5.6697
    9.885    5.7574
    9.900    5.7750
    9.915    5.3361
    9.930    5.5643
    9.945    5.4766
    9.960    5.4064
    9.975    5.3010
    9.990    5.5468
   10.005    5.6170
   10.020    5.6170
   10.035    5.9329
   10.050    5.6521
   10.065    5.7925
   10.080    5.9329
   10.095    5.4415
   10.110    5.8978
   10.125    6.1787
   10.140    6.0383
   10.155    5.7223
   10.170    5.8627
   10.185    5.8627
   10.200    6.0383
   10.215    6.3893
   10.230    5.9856
   10.245    6.8984
   10.260    7.0388
   10.275    7.0037
   10.290    7.5478
   10.305    7.7058
   10.320    8.1095
   10.335    8.4255
   10.350    7.9691
   10.365    7.5478
   10.380    6.8808
   10.395    6.5649
   10.410    6.1611
   10.425    5.5643
   10.440    5.3186
   10.455    5.6697
   10.470    5.7574
   10.485    5.8276
   10.500    5.4941
   10.515    5.8276
   10.530    5.8101
   10.545    5.9681
   10.560    6.0909
   10.575    6.1085
   10.590    5.4415
   10.605    5.7399
   10.620    5.8276
   10.635    5.9505
   10.650    5.7399
   10.665    5.5994
   10.680    6.2138
   10.695    6.5473
   10.710    6.0909
   10.725    5.9856
   10.740    5.8803
   10.755    5.8627
   10.770    5.8276
   10.785    6.0734
   10.800    5.7048
   10.815    6.3367
   10.830    6.0032
   10.845    6.0558
   10.860    6.2489
   10.875    6.0909
   10.890    6.4069
   10.905    6.1260
   10.920    6.4069
   10.935    6.3893
   10.950    6.4771
   10.965    7.1090
   10.980    7.6883
   10.995    7.6005
   11.010    8.3026
   11.025    8.7765
   11.040    9.5840
   11.055    9.1803
   11.070    9.0398
   11.085    8.6010
   11.100    7.2670
   11.115    6.6351
   11.130    6.0383
   11.145    6.3016
   11.160    6.6702
   11.175    5.9681
   11.190    6.4946
   11.205    6.0207
   11.220    5.7750
   11.235    6.1962
   11.250    6.0558
   11.265    5.9681
   11.280    6.3367
   11.295    6.0207
   11.310    5.4590
   11.325    5.5292
   11.340    6.2665
   11.355    6.2665
   11.370    6.6526
   11.385    5.9856
   11.400    5.9681
   11.415    5.6345
   11.430    5.8978
   11.445    5.8101
   11.460    5.8803
   11.475    5.8101
   11.490    6.5824
   11.505    6.0734
   11.520    5.7048
   11.535    6.1611
   11.550    6.3893
   11.565    6.6175
   11.580    6.5649
   11.595    6.5649
   11.610    6.3191
   11.625    6.5824
   11.640    7.1441
   11.655    7.3021
   11.670    7.6356
   11.685    8.0393
   11.700    8.4430
   11.715    8.8643
   11.730    8.7063
   11.745    8.1095
   11.760    8.0393
   11.775    6.5649
   11.790    6.3542
   11.805    6.0734
   11.820    5.8276
   11.835    5.5292
   11.850    5.6697
   11.865    6.1085
   11.880    5.7399
   11.895    5.8978
   11.910    5.8276
   11.925    5.9505
   11.940    6.0207
   11.955    5.5643
   11.970    5.3888
   11.985    5.1431
   12.000    5.8101
   12.015    6.0032
   12.030    5.8276
   12.045    5.5292
   12.060    5.3537
   12.075    5.4941
   12.090    5.0553
   12.105    5.8452
   12.120    6.4244
   12.135    6.0032
   12.150    5.7574
   12.165    5.4590
   12.180    5.6170
   12.195    5.4941
   12.210    5.6521
   12.225    5.1255
   12.240    5.6872
   12.255    6.0383
   12.270    6.0207
   12.285    6.0383
   12.300    5.4941
   12.315    5.5468
   12.330    6.2665
   12.345    5.9329
   12.360    6.2313
   12.375    5.3537
   12.390    5.5819
   12.405    5.8101
   12.420    5.4415
   12.435    5.1080
   12.450    5.2133
   12.465    5.2659
   12.480    5.2484
   12.495    5.4064
   12.510    4.9324
   12.525    5.4415
   12.540    5.7750
   12.555    5.4941
   12.570    5.4239
   12.585    5.7223
   12.600    5.2484
   12.615    5.3010
   12.630    5.3712
   12.645    5.2835
   12.660    5.2133
   12.675    5.5292
   12.690    5.6872
   12.705    5.0553
   12.720    5.4064
   12.735    5.3712
   12.750    5.7399
   12.765    5.6872
   12.780    5.7750
   12.795    5.7048
   12.810    5.3888
   12.825    5.6697
   12.840    5.6697
   12.855    5.8276
   12.870    5.4415
   12.885    5.5994
   12.900    6.0207
   12.915    6.6000
   12.930    7.2494
   12.945    6.6877
   12.960    7.0212
   12.975    7.4601
   12.990    6.8808
   13.005    6.7930
   13.020    6.6000
   13.035    6.5298
   13.050    5.5819
   13.065    5.7223
   13.080    5.2308
   13.095    5.1782
   13.110    5.2484
   13.125    5.6345
   13.140    5.4590
   13.155    5.4941
   13.170    5.0026
   13.185    5.4064
   13.200    5.1606
   13.215    5.5292
   13.230    5.5117
   13.245    5.2133
   13.260    4.9851
   13.275    5.3888
   13.290    5.1255
   13.305    5.6170
   13.320    5.7399
   13.335    5.4941
   13.350    5.4064
   13.365    4.9851
   13.380    5.3537
   13.395    5.4415
   13.410    5.4590
   13.425    5.5292
   13.440    5.7574
   13.455    5.3186
   13.470    5.7048
   13.485    5.8627
   13.500    5.3010
   13.515    5.7925
   13.530    6.2840
   13.545    6.0207
   13.560    6.4595
   13.575    6.6526
   13.590    6.3542
   13.605    6.0909
   13.620    5.9329
   13.635    5.9856
   13.650    5.2308
   13.665    5.5819
   13.680    5.8101
   13.695    5.3010
   13.710    5.6697
   13.725    6.1436
   13.740    5.6170
   13.755    5.4941
   13.770    5.5643
   13.785    5.0026
   13.800    5.3712
   13.815    5.1606
   13.830    5.5643
   13.845    5.2133
   13.860    5.3888
   13.875    5.0553
   13.890    5.5468
   13.905    5.6170
   13.920    5.2308
   13.935    5.4766
   13.950    5.4590
   13.965    5.4590
   13.980    5.6521
   13.995    5.5643
   14.010    6.1787
   14.025    6.1260
   14.040    6.1085
   14.055    6.4595
   14.070    6.5473
   14.085    6.8984
   14.100    7.6005
   14.115    7.1968
   14.130    7.5829
   14.145    7.1617
   14.160    6.4595
   14.175    6.3016
   14.190    6.6526
   14.205    6.5473
   14.220    5.8978
   14.235    6.4771
   14.250    5.7399
   14.265    5.7399
   14.280    5.5994
   14.295    5.4590
   14.310    5.8803
   14.325    5.9505
   14.340    5.6697
   14.355    5.7750
   14.370    5.9505
   14.385    6.0558
   14.400    5.7574
   14.415    5.7574
   14.430    5.6345
   14.445    5.7048
   14.460    5.2308
   14.475    5.1957
   14.490    5.7399
   14.505    5.7048
   14.520    5.8101
   14.535    6.0909
   14.550    5.7399
   14.565    5.3537
   14.580    5.6521
   14.595    5.7574
   14.610    5.7750
   14.625    5.7223
   14.640    5.4766
   14.655    5.4590
   14.670    5.3712
   14.685    5.1080
   14.700    6.3542
   14.715    6.1085
   14.730    5.4239
   14.745    5.4064
   14.760    5.4415
   14.775    5.3712
   14.790    5.8803
   14.805    5.5292
   14.820    5.3712
   14.835    5.5819
   14.850    5.6872
   14.865    5.6345
   14.880    5.3712
   14.895    5.2659
   14.910    5.2835
   14.925    5.6521
   14.940    5.6345
   14.955    5.4239
   14.970    5.4064
   14.985    5.8627
   15.000    5.5643
   15.015    5.5994
   15.030    5.5292
   15.045    5.5819
   15.060    6.0032
   15.075    5.2133
   15.090    5.5117
   15.105    5.5643
   15.120    5.1431
   15.135    5.6872
   15.150    6.1260
   15.165    6.4420
   15.180    6.0207
   15.195    6.0383
   15.210    5.6872
   15.225    5.9505
   15.240    5.4064
   15.255    5.4590
   15.270    4.7744
   15.285    5.0202
   15.300    5.5643
   15.315    5.4941
   15.330    5.5468
   15.345    5.4590
   15.360    5.6170
   15.375    5.6345
   15.390    5.7399
   15.405    5.8101
   15.420    5.2835
   15.435    5.4941
   15.450    5.7223
   15.465    5.4941
   15.480    5.5643
   15.495    5.0728
   15.510    5.0202
   15.525    5.5117
   15.540    5.1431
   15.555    4.8271
   15.570    5.0377
   15.585    5.3888
   15.600    5.6521
   15.615    4.9149
   15.630    5.0202
   15.645    5.1957
   15.660    5.0728
   15.675    4.7920
   15.690    4.3883
   15.705    4.7569
   15.720    4.8973
   15.735    5.1957
   15.750    5.2659
   15.765    5.1080
   15.780    5.6170
   15.795    5.2308
   15.810    4.8798
   15.825    5.5117
   15.840    4.8622
   15.855    5.2484
   15.870    4.5814
   15.885    5.3010
   15.900    5.3888
   15.915    5.5994
   15.930    6.0909
   15.945    5.4766
   15.960    5.2659
   15.975    5.0904
   15.990    5.1080
   16.005    5.3361
   16.020    5.3010
   16.035    5.8452
   16.050    5.3537
   16.065    4.7744
   16.080    5.6872
   16.095    5.1957
   16.110    6.1436
   16.125    5.9505
   16.140    6.1611
   16.155    5.5994
   16.170    6.0558
   16.185    6.3893
   16.200    5.6521
   16.215    5.5643
   16.230    5.3888
   16.245    5.4590
   16.260    5.0026
   16.275    5.2308
   16.290    6.0383
   16.305    5.6521
   16.320    5.5292
   16.335    5.4239
   16.350    6.1611
   16.365    5.4239
   16.380    5.5819
   16.395    5.1957
   16.410    5.4064
   16.425    5.1957
   16.440    5.1782
   16.455    5.0202
   16.470    5.1080
   16.485    4.9675
   16.500    5.1431
   16.515    4.7744
   16.530    5.3888
   16.545    5.7048
   16.560    5.1255
   16.575    5.0728
   16.590    5.1606
   16.605    5.7750
   16.620    5.6521
   16.635    5.9856
   16.650    5.8803
   16.665    5.5643
   16.680    5.6345
   16.695    5.7223
   16.710    5.3712
   16.725    5.2484
   16.740    5.2308
   16.755    5.2835
   16.770    5.0377
   16.785    5.3361
   16.800    5.2659
   16.815    5.5292
   16.830    5.1957
   16.845    5.1080
   16.860    5.3010
   16.875    5.0202
   16.890    4.6516
   16.905    4.8095
   16.920    5.0728
   16.935    4.9500
   16.950    5.6697
   16.965    5.3010
   16.980    5.5994
   16.995    5.4239
   17.010    5.3186
   17.025    5.5643
   17.040    5.8978
   17.055    6.1085
   17.070    6.4946
   17.085    6.7755
   17.100    6.9510
   17.115    7.0739
   17.130    6.7579
   17.145    5.8276
   17.160    5.5468
   17.175    5.4590
   17.190    5.0553
   17.205    5.4766
   17.220    4.8622
   17.235    5.5994
   17.250    5.3361
   17.265    5.2835
   17.280    4.9851
   17.295    5.3186
   17.310    5.2308
   17.325    5.4239
   17.340    5.0904
   17.355    4.8973
   17.370    5.0377
   17.385    5.2835
   17.400    5.1782
   17.415    5.0728
   17.430    4.6165
   17.445    5.3186
   17.460    5.4415
   17.475    5.3537
   17.490    5.2659
   17.505    5.3537
   17.520    5.0904
   17.535    5.0377
   17.550    5.3010
   17.565    5.5994
   17.580    5.5117
   17.595    5.5819
   17.610    5.3361
   17.625    5.2133
   17.640    5.0026
   17.655    4.9675
   17.670    5.0377
   17.685    5.2659
   17.700    5.1080
   17.715    5.0026
   17.730    4.9149
   17.745    4.9500
   17.760    5.2308
   17.775    5.4415
   17.790    5.3537
   17.805    4.8798
   17.820    4.7569
   17.835    4.9149
   17.850    4.9851
   17.865    5.3186
   17.880    5.1782
   17.895    5.1782
   17.910    5.0728
   17.925    5.3361
   17.940    5.4239
   17.955    5.1606
   17.970    5.0377
   17.985    5.1606
   18.000    5.8101
   18.015    5.8978
   18.030    5.2484
   18.045    5.3537
   18.060    5.3537
   18.075    5.1431
   18.090    5.5468
   18.105    5.1957
   18.120    5.0904
   18.135    5.0904
   18.150    5.1957
   18.165    5.4064
   18.180    5.2133
   18.195    4.9149
   18.210    4.9324
   18.225    5.4415
   18.240    5.0202
   18.255    5.1080
   18.270    5.2484
   18.285    5.1957
   18.300    5.3712
   18.315    4.9500
   18.330    5.3888
   18.345    5.1431
   18.360    5.0377
   18.375    5.1957
   18.390    5.2835
   18.405    5.4766
   18.420    5.3010
   18.435    5.0904
   18.450    5.4941
   18.465    5.7574
   18.480    5.0728
   18.495    5.7399
   18.510    5.4239
   18.525    5.5994
   18.540    5.3186
   18.555    5.1080
   18.570    5.3361
   18.585    5.3537
   18.600    5.4064
   18.615    5.1957
   18.630    4.7920
   18.645    4.8973
   18.660    5.3712
   18.675    5.6345
   18.690    4.8973
   18.705    4.8622
   18.720    4.8622
   18.735    5.3888
   18.750    5.0377
   18.765    5.1255
   18.780    5.2308
   18.795    5.6345
   18.810    5.1431
   18.825    5.2308
   18.840    5.3537
   18.855    5.6521
   18.870    5.2133
   18.885    5.6170
   18.900    5.0904
   18.915    5.0202
   18.930    5.0377
   18.945    4.8798
   18.960    5.0377
   18.975    5.0904
   18.990    5.0728
   19.005    4.7042
   19.020    5.0377
   19.035    5.3537
   19.050    5.2659
   19.065    4.9149
   19.080    5.1782
   19.095    5.1255
   19.110    4.8798
   19.125    4.8622
   19.140    5.4064
   19.155    5.1255
   19.170    5.4239
   19.185    5.2484
   19.200    5.1606
   19.215    5.4064
   19.230    5.2133
   19.245    4.9149
   19.260    4.9851
   19.275    5.3712
   19.290    4.9675
   19.305    5.1080
   19.320    5.5292
   19.335    5.6872
   19.350    5.2133
   19.365    4.9149
   19.380    5.0026
   19.395    5.2659
   19.410    5.3010
   19.425    5.3186
   19.440    4.9324
   19.455    4.7218
   19.470    4.6516
   19.485    4.8622
   19.500    5.0026
   19.515    4.8447
   19.530    4.9149
   19.545    5.3888
   19.560    5.2133
   19.575    5.4064
   19.590    5.4766
   19.605    5.3361
   19.620    5.5117
   19.635    6.0383
   19.650    5.2659
   19.665    5.5117
   19.680    5.3186
   19.695    5.0377
   19.710    5.5643
   19.725    5.0377
   19.740    4.8447
   19.755    5.0553
   19.770    4.9675
   19.785    4.9149
   19.800    5.2133
   19.815    5.1255
   19.830    5.1782
   19.845    4.9851
   19.860    4.8095
   19.875    5.2659
   19.890    5.1782
   19.905    4.8095
   19.920    4.5814
   19.935    4.5638
   19.950    4.7744
   19.965    4.5463
   19.980    4.5111
   19.995    4.5814
   20.010    5.0026
   20.025    4.7042
   20.040    4.6867
   20.055    5.0202
   20.070    4.8798
   20.085    4.4936
   20.100    4.8622
   20.115    5.0553
   20.130    5.0377
   20.145    5.1782
   20.160    4.9851
   20.175    5.0377
   20.190    5.0202
   20.205    5.1431
   20.220    5.2133
   20.235    4.8447
   20.250    4.8973
   20.265    4.8622
   20.280    5.0202
   20.295    5.3888
   20.310    5.0377
   20.325    4.8973
   20.340    4.9851
   20.355    5.4415
   20.370    5.2835
   20.385    5.7574
   20.400    5.9681
   20.415    6.0207
   20.430    6.1962
   20.445    5.4239
   20.460    5.4239
   20.475    5.1957
   20.490    5.1080
   20.505    4.7744
   20.520    5.0026
   20.535    5.0026
   20.550    5.2484
   20.565    4.5638
   20.580    4.8095
   20.595    4.9324
   20.610    5.2308
   20.625    4.9149
   20.640    4.6691
   20.655    4.5287
   20.670    4.4760
   20.685    4.7393
   20.700    4.5638
   20.715    4.9324
   20.730    4.4409
   20.745    5.0553
   20.760    5.0026
   20.775    4.5463
   20.790    4.8271
   20.805    5.0377
   20.820    4.5638
   20.835    4.4409
   20.850    4.5989
   20.865    4.3356
   20.880    4.8447
   20.895    5.0904
   20.910    5.0553
   20.925    5.1080
   20.940    5.0728
   20.955    5.0026
   20.970    4.7920
   20.985    4.4936
   21.000    5.0377
   21.015    5.0728
   21.030    4.4409
   21.045    4.8973
   21.060    4.8622
   21.075    4.3707
   21.090    4.6340
   21.105    4.4409
   21.120    4.5463
   21.135    4.7393
   21.150    4.9851
   21.165    4.7218
   21.180    5.1431
   21.195    4.6691
   21.210    4.7920
   21.225    4.4058
   21.240    4.5111
   21.255    4.7920
   21.270    4.9851
   21.285    5.0202
   21.300    4.7042
   21.315    4.3532
   21.330    4.4936
   21.345    4.4058
   21.360    4.4760
   21.375    5.0728
   21.390    5.0728
   21.405    5.2308
   21.420    4.8622
   21.435    4.7744
   21.450    4.6691
   21.465    4.8447
   21.480    4.5814
   21.495    4.8622
   21.510    4.9149
   21.525    4.8271
   21.540    4.8973
   21.555    4.4585
   21.570    4.5814
   21.585    4.9149
   21.600    4.8271
   21.615    4.8973
   21.630    4.9675
   21.645    4.3356
   21.660    4.5814
   21.675    4.7218
   21.690    4.8271
   21.705    4.5111
   21.720    4.4585
   21.735    4.3883
   21.750    4.5287
   21.765    4.4058
   21.780    4.6867
   21.795    4.8271
   21.810    4.5989
   21.825    4.7920
   21.840    4.9500
   21.855    4.8798
   21.870    5.0202
   21.885    5.2133
   21.900    5.2659
   21.915    5.2133
   21.930    4.8798
   21.945    5.0377
   21.960    4.9675
   21.975    5.0026
   21.990    4.9500
   22.005    5.0904
   22.020    4.7920
   22.035    5.0202
   22.050    4.5814
   22.065    4.8973
   22.080    4.4936
   22.095    4.5989
   22.110    4.4760
   22.125    4.5638
   22.140    4.2478
   22.155    4.6691
   22.170    5.0377
   22.185    4.6516
   22.200    4.8798
   22.215    4.5638
   22.230    4.5814
   22.245    4.8622
   22.260    5.1606
   22.275    4.9675
   22.290    4.5638
   22.305    4.7042
   22.320    4.5463
   22.335    5.0202
   22.350    4.8973
   22.365    4.6867
   22.380    4.3883
   22.395    4.4234
   22.410    4.2303
   22.425    4.3707
   22.440    4.5287
   22.455    4.5111
   22.470    4.5463
   22.485    4.8095
   22.500    4.3707
   22.515    4.7393
   22.530    4.8447
   22.545    5.1606
   22.560    5.4239
   22.575    5.9681
   22.590    6.3016
   22.605    6.4420
   22.620    6.3542
   22.635    5.9329
   22.650    5.8452
   22.665    5.3888
   22.680    5.2484
   22.695    5.0026
   22.710    4.5638
   22.725    4.4760
   22.740    4.8095
   22.755    4.4234
   22.770    4.8447
   22.785    4.7042
   22.800    4.3005
   22.815    4.5111
   22.830    4.8973
   22.845    4.7569
   22.860    4.4585
   22.875    4.8973
   22.890    4.7920
   22.905    5.0904
   22.920    5.4590
   22.935    5.9681
   22.950    6.2489
   22.965    6.0207
   22.980    5.7925
   22.995    5.9329
   23.010    5.2308
   23.025    5.4239
   23.040    4.6867
   23.055    4.7744
   23.070    4.5638
   23.085    4.3883
   23.100    4.4058
   23.115    4.5287
   23.130    4.3181
   23.145    4.3883
   23.160    4.6340
   23.175    4.2303
   23.190    3.8090
   23.205    4.1250
   23.220    4.3532
   23.235    4.4409
   23.250    4.7042
   23.265    4.5463
   23.280    4.7042
   23.295    4.9675
   23.310    5.2308
   23.325    5.0377
   23.340    4.9149
   23.355    4.8798
   23.370    4.5989
   23.385    4.3005
   23.400    4.3356
   23.415    4.7569
   23.430    4.3356
   23.445    4.0548
   23.460    4.5111
   23.475    3.9319
   23.490    4.2478
   23.505    4.5814
   23.520    4.3005
   23.535    4.3883
   23.550    4.4760
   23.565    4.5638
   23.580    4.1952
   23.595    4.6165
   23.610    4.5814
   23.625    4.8271
   23.640    4.7569
   23.655    4.9149
   23.670    4.3356
   23.685    4.0197
   23.700    4.4585
   23.715    4.4585
   23.730    4.3532
   23.745    4.2478
   23.760    4.5814
   23.775    4.3181
   23.790    4.4409
   23.805    4.7569
   23.820    4.4058
   23.835    4.2303
   23.850    4.3356
   23.865    3.9494
   23.880    4.5111
   23.895    4.4936
   23.910    4.5638
   23.925    4.5814
   23.940    4.3532
   23.955    4.8271
   23.970    5.1080
   23.985    4.7218
   24.000    4.8271
   24.015    4.5638
   24.030    4.1074
   24.045    4.1601
   24.060    4.3883
   24.075    4.8622
   24.090    4.2303
   24.105    3.7213
   24.120    4.3532
   24.135    4.1250
   24.150    4.3181
   24.165    4.3707
   24.180    4.2303
   24.195    4.1250
   24.210    4.3181
   24.225    3.9670
   24.240    3.7213
   24.255    4.1601
   24.270    4.3532
   24.285    4.1425
   24.300    4.1952
   24.315    4.3356
   24.330    4.3883
   24.345    4.2830
   24.360    4.5989
   24.375    4.0548
   24.390    4.2654
   24.405    4.4585
   24.420    4.1425
   24.435    4.0899
   24.450    4.1074
   24.465    4.1952
   24.480    3.9670
   24.495    3.9494
   24.510    4.2303
   24.525    4.0548
   24.540    4.1601
   24.555    4.3707
   24.570    4.1250
   24.585    3.9143
   24.600    4.5463
   24.615    4.4936
   24.630    4.5638
   24.645    4.1425
   24.660    4.3356
   24.675    4.1952
   24.690    4.0021
   24.705    4.5111
   24.720    4.3356
   24.735    4.3181
   24.750    3.9846
   24.765    4.3883
   24.780    4.2127
   24.795    4.0372
   24.810    3.8617
   24.825    4.0723
   24.840    4.1250
   24.855    4.1250
   24.870    4.3005
   24.885    4.0372
   24.900    3.9846
   24.915    4.2303
   24.930    4.4936
   24.945    3.6510
   24.960    4.1250
   24.975    4.0021
   24.990    4.3707
   25.005    4.3707
   25.020    3.9846
   25.035    4.1601
   25.050    4.2303
   25.065    4.5814
   25.080    3.9143
   25.095    4.3005
   25.110    4.1425
   25.125    4.1074
   25.140    4.3883
   25.155    4.2127
   25.170    4.2478
   25.185    4.4409
   25.200    4.1425
   25.215    3.9319
   25.230    4.0899
   25.245    4.1601
   25.260    4.0899
   25.275    4.1952
   25.290    4.1601
   25.305    4.2654
   25.320    3.9846
   25.335    4.1074
   25.350    4.1250
   25.365    4.0197
   25.380    3.7739
   25.395    4.1952
   25.410    3.8968
   25.425    3.6159
   25.440    3.9846
   25.455    3.7915
   25.470    3.9670
   25.485    4.2127
   25.500    4.1952
   25.515    4.2830
   25.530    4.2127
   25.545    4.3181
   25.560    3.7739
   25.575    4.1776
   25.590    3.9846
   25.605    4.0372
   25.620    4.1074
   25.635    4.4409
   25.650    3.9494
   25.665    3.9143
   25.680    3.7739
   25.695    4.1776
   25.710    4.1776
   25.725    4.3707
   25.740    4.0899
   25.755    4.2654
   25.770    4.1776
   25.785    4.0723
   25.800    4.0372
   25.815    4.7218
   25.830    5.2484
   25.845    5.4941
   25.860    4.7744
   25.875    4.8447
   25.890    5.0377
   25.905    5.0377
   25.920    4.7393
   25.935    4.4234
   25.950    4.7042
   25.965    4.6165
   25.980    4.1601
   25.995    3.9846
   26.010    3.6159
   26.025    3.7915
   26.040    3.9846
   26.055    3.7564
   26.070    3.8090
   26.085    3.9494
   26.100    4.0372
   26.115    3.9143
   26.130    3.9319
   26.145    3.8617
   26.160    4.0723
   26.175    3.8792
   26.190    4.3181
   26.205    4.3532
   26.220    3.8968
   26.235    3.7213
   26.250    3.9319
   26.265    4.4058
   26.280    4.1776
   26.295    3.7564
   26.310    3.8617
   26.325    4.0548
   26.340    4.1074
   26.355    4.1425
   26.370    4.1074
   26.385    3.8617
   26.400    3.9143
   26.415    4.2303
   26.430    4.0723
   26.445    4.0372
   26.460    3.8617
   26.475    3.7213
   26.490    4.0899
   26.505    3.9494
   26.520    3.8617
   26.535    3.7213
   26.550    3.7388
   26.565    3.7915
   26.580    3.9143
   26.595    3.8441
   26.610    4.1074
   26.625    3.8266
   26.640    4.2303
   26.655    3.9494
   26.670    4.0021
   26.685    4.1776
   26.700    3.9143
   26.715    3.7037
   26.730    4.0723
   26.745    3.7564
   26.760    3.4229
   26.775    3.6159
   26.790    4.0197
   26.805    3.6510
   26.820    3.8090
   26.835    3.5633
   26.850    3.7388
   26.865    3.6686
   26.880    3.7388
   26.895    3.8441
   26.910    3.8441
   26.925    3.9319
   26.940    3.8792
   26.955    3.7388
   26.970    3.6335
   26.985    3.9143
   27.000    4.2303
   27.015    3.3877
   27.030    4.0372
   27.045    4.2830
   27.060    4.2830
   27.075    4.1425
   27.090    4.0372
   27.105    4.1425
   27.120    4.2303
   27.135    4.3181
   27.150    3.8441
   27.165    3.4580
   27.180    3.7915
   27.195    3.8792
   27.210    3.8792
   27.225    3.4755
   27.240    3.4580
   27.255    3.8266
   27.270    3.6862
   27.285    3.4931
   27.300    3.5808
   27.315    3.6510
   27.330    3.4755
   27.345    3.7739
   27.360    3.9846
   27.375    3.9143
   27.390    3.3351
   27.405    3.5106
   27.420    3.8617
   27.435    3.5984
   27.450    4.0548
   27.465    4.0197
   27.480    3.9494
   27.495    3.4755
   27.510    3.4931
   27.525    3.4580
   27.540    3.5106
   27.555    3.4229
   27.570    3.6686
   27.585    3.6686
   27.600    3.8441
   27.615    4.2303
   27.630    3.8968
   27.645    3.9143
   27.660    4.0899
   27.675    3.6335
   27.690    3.8792
   27.705    3.7037
   27.720    3.5808
   27.735    3.7739
   27.750    3.6335
   27.765    4.0021
   27.780    3.5984
   27.795    3.7213
   27.810    3.6510
   27.825    3.6686
   27.840    3.6510
   27.855    3.6335
   27.870    3.7388
   27.885    3.3702
   27.900    3.5633
   27.915    3.6510
   27.930    3.6686
   27.945    3.8617
   27.960    3.5282
   27.975    3.4580
   27.990    3.8968
   28.005    3.8792
   28.020    3.4931
   28.035    3.4404
   28.050    3.6510
   28.065    3.4931
   28.080    3.3000
   28.095    3.2649
   28.110    3.4404
   28.125    3.3702
   28.140    3.3877
   28.155    3.6686
   28.170    3.4580
   28.185    3.7388
   28.200    3.6159
   28.215    4.2303
   28.230    3.7739
   28.245    3.9143
   28.260    3.7037
   28.275    3.9319
   28.290    3.9670
   28.305    3.4404
   28.320    3.1420
   28.335    3.7037
   28.350    3.4755
   28.365    3.8968
   28.380    3.4755
   28.395    3.4229
   28.410    3.6335
   28.425    3.5457
   28.440    3.4053
   28.455    3.6335
   28.470    4.0372
   28.485    4.0372
   28.500    4.1776
   28.515    3.8090
   28.530    3.9319
   28.545    3.9670
   28.560    4.1952
   28.575    3.9143
   28.590    3.7564
   28.605    3.4053
   28.620    3.3526
   28.635    3.7037
   28.650    3.6862
   28.665    3.4931
   28.680    3.5984
   28.695    3.7739
   28.710    3.4931
   28.725    3.5457
   28.740    3.9143
   28.755    3.4053
   28.770    3.8441
   28.785    3.5808
   28.800    3.7564
   28.815    3.8617
   28.830    3.3877
   28.845    3.7037
   28.860    3.8090
   28.875    3.7739
   28.890    3.3526
   28.905    3.3351
   28.920    3.4580
   28.935    3.3877
   28.950    3.6159
   28.965    3.3175
   28.980    3.4404
   28.995    3.7037
   29.010    3.5808
   29.025    3.7037
   29.040    3.8968
   29.055    3.7564
   29.070    3.7915
   29.085    3.9670
   29.100    3.8617
   29.115    3.5808
   29.130    3.6510
   29.145    3.8968
   29.160    3.6686
   29.175    3.5457
   29.190    3.2298
   29.205    3.2298
   29.220    3.1947
   29.235    3.3175
   29.250    3.5457
   29.265    3.9846
   29.280    3.3526
   29.295    3.3351
   29.310    3.5808
   29.325    3.6686
   29.340    3.7037
   29.355    3.7388
   29.370    3.7388
   29.385    4.0548
   29.400    3.7213
   29.415    3.4931
   29.430    3.4931
   29.445    3.7739
   29.460    3.8090
   29.475    3.4755
   29.490    3.3526
   29.505    3.1596
   29.520    3.1245
   29.535    2.9489
   29.550    2.9840
   29.565    3.3351
   29.580    3.2473
   29.595    3.1420
   29.610    3.2122
   29.625    3.3526
   29.640    3.0016
   29.655    3.3526
   29.670    3.5106
   29.685    3.2298
   29.700    3.3877
   29.715    3.2473
   29.730    3.1947
   29.745    2.9665
   29.760    2.9138
   29.775    3.5808
   29.790    3.1771
   29.805    3.3175
   29.820    3.0542
   29.835    2.9138
   29.850    3.2649
   29.865    3.4229
   29.880    3.3351
   29.895    3.4404
   29.910    3.4404
   29.925    3.4404
   29.940    3.3175
   29.955    3.2473
   29.970    2.8963
   29.985    3.1420
   30.000    3.2122
   30.015    3.6159
   30.030    3.4404
   30.045    3.5106
   30.060    3.1245
   30.075    3.3877
   30.090    3.1596
   30.105    3.2122
   30.120    3.4229
   30.135    3.1771
   30.150    3.2473
   30.165    3.3702
   30.180    3.6862
   30.195    3.3000
   30.210    3.2649
   30.225    3.2473
   30.240    3.2122
   30.255    3.1947
   30.270    3.0718
   30.285    3.4404
   30.300    3.5457
   30.315    3.1245
   30.330    3.0718
   30.345    3.2298
   30.360    2.8612
   30.375    2.7207
   30.390    3.4580
   30.405    3.5106
   30.420    3.2473
   30.435    3.1771
   30.450    3.0718
   30.465    3.1771
   30.480    3.2473
   30.495    3.0718
   30.510    3.1947
   30.525    2.7734
   30.540    3.0191
   30.555    3.0542
   30.570    3.1596
   30.585    3.2649
   30.600    3.3877
   30.615    3.1596
   30.630    2.9489
   30.645    3.2649
   30.660    3.0367
   30.675    3.2473
   30.690    3.0893
   30.705    3.5282
   30.720    3.1420
   30.735    3.3000
   30.750    2.8612
   30.765    2.9138
   30.780    3.2298
   30.795    3.3526
   30.810    3.0367
   30.825    3.0191
   30.840    3.4229
   30.855    2.8085
   30.870    2.6505
   30.885    3.0367
   30.900    3.2122
   30.915    2.7734
   30.930    2.8963
   30.945    3.2473
   30.960    3.1947
   30.975    3.1245
   30.990    3.5282
   31.005    3.0191
   31.020    3.0016
   31.035    3.1420
   31.050    3.0367
   31.065    3.0893
   31.080    3.0542
   31.095    2.8612
   31.110    2.9840
   31.125    3.0016
   31.140    2.8085
   31.155    3.0191
   31.170    3.1771
   31.185    3.1245
   31.200    2.9138
   31.215    2.8787
   31.230    2.7909
   31.245    2.9665
   31.260    3.1069
   31.275    3.0718
   31.290    2.9138
   31.305    2.7909
   31.320    3.0893
   31.335    2.9138
   31.350    2.9314
   31.365    2.8085
   31.380    2.7207
   31.395    2.8436
   31.410    2.8963
   31.425    3.2473
   31.440    2.9314
   31.455    3.1245
   31.470    2.8436
   31.485    3.3702
   31.500    3.1947
   31.515    2.8085
   31.530    2.7909
   31.545    3.0542
   31.560    3.0367
   31.575    3.0191
   31.590    3.0367
   31.605    3.0542
   31.620    3.1771
   31.635    3.0893
   31.650    2.8260
   31.665    2.8787
   31.680    3.0191
   31.695    2.9840
   31.710    2.9314
   31.725    3.4755
   31.740    3.3000
   31.755    3.0893
   31.770    3.0542
   31.785    3.1069
   31.800    3.0542
   31.815    2.9138
   31.830    3.0718
   31.845    2.9840
   31.860    2.4750
   31.875    3.4229
   31.890    2.9840
   31.905    2.8963
   31.920    2.8436
   31.935    3.1069
   31.950    2.8260
   31.965    2.7558
   31.980    2.7032
   31.995    2.8436
   32.010    2.8260
   32.025    2.8085
   32.040    2.8436
   32.055    3.3351
   32.070    2.8612
   32.085    3.0191
   32.100    2.9138
   32.115    2.6505
   32.130    2.6154
   32.145    2.7734
   32.160    2.5979
   32.175    2.7909
   32.190    2.9665
   32.205    2.8260
   32.220    2.6505
   32.235    3.1947
   32.250    2.8260
   32.265    2.8436
   32.280    2.7909
   32.295    3.0367
   32.310    2.5452
   32.325    2.7207
   32.340    3.0718
   32.355    2.9840
   32.370    3.2298
   32.385    2.7032
   32.400    2.9314
   32.415    2.7207
   32.430    2.9840
   32.445    2.9489
   32.460    2.7558
   32.475    2.5628
   32.490    2.5276
   32.505    2.8787
   32.520    2.6856
   32.535    2.8436
   32.550    2.8436
   32.565    2.7032
   32.580    2.7032
   32.595    2.7734
   32.610    3.0016
   32.625    2.8787
   32.640    2.9314
   32.655    3.2473
   32.670    2.8260
   32.685    3.0367
   32.700    2.6330
   32.715    2.5452
   32.730    2.7032
   32.745    2.6856
   32.760    2.5979
   32.775    2.7207
   32.790    2.5628
   32.805    2.4750
   32.820    2.5101
   32.835    3.2298
   32.850    2.8787
   32.865    2.8436
   32.880    2.6856
   32.895    2.7734
   32.910    3.0718
   32.925    2.5276
   32.940    2.4223
   32.955    2.6505
   32.970    2.9489
   32.985    2.9840
   33.000    3.0718
   33.015    3.0191
   33.030    2.6330
   33.045    2.7734
   33.060    3.1420
   33.075    2.7558
   33.090    2.6154
   33.105    2.6154
   33.120    2.5276
   33.135    2.5979
   33.150    2.4223
   33.165    2.5803
   33.180    2.4399
   33.195    2.3346
   33.210    2.6681
   33.225    2.5452
   33.240    2.4750
   33.255    2.7734
   33.270    2.4925
   33.285    2.2819
   33.300    2.7032
   33.315    2.7909
   33.330    2.3521
   33.345    2.9138
   33.360    2.8787
   33.375    2.5101
   33.390    2.9665
   33.405    3.0542
   33.420    2.9314
   33.435    2.8612
   33.450    2.9665
   33.465    2.7558
   33.480    2.5803
   33.495    2.4750
   33.510    2.5276
   33.525    2.5628
   33.540    2.8085
   33.555    2.8963
   33.570    2.8436
   33.585    2.4048
   33.600    2.7207
   33.615    2.6681
   33.630    2.7734
   33.645    2.4048
   33.660    2.8612
   33.675    2.6154
   33.690    2.5803
   33.705    2.7734
   33.720    2.9138
   33.735    2.7909
   33.750    2.5276
   33.765    2.4750
   33.780    2.7734
   33.795    2.4574
   33.810    2.6330
   33.825    2.7734
   33.840    2.7207
   33.855    3.0542
   33.870    2.3872
   33.885    2.6154
   33.900    3.0718
   33.915    2.8260
   33.930    2.8612
   33.945    2.9489
   33.960    2.7207
   33.975    2.9314
   33.990    2.5979
   34.005    2.5276
   34.020    2.5452
   34.035    2.3521
   34.050    2.5452
   34.065    2.7909
   34.080    2.5101
   34.095    2.4399
   34.110    2.8085
   34.125    2.7383
   34.140    3.0016
   34.155    2.7909
   34.170    2.7032
   34.185    3.0542
   34.200    3.0191
   34.215    2.7383
   34.230    2.7909
   34.245    3.0367
   34.260    2.7909
   34.275    2.7909
   34.290    2.7909
   34.305    2.5101
   34.320    2.3346
   34.335    2.4574
   34.350    2.4223
   34.365    2.7207
   34.380    2.8787
   34.395    2.7032
   34.410    3.0016
   34.425    2.6681
   34.440    2.7383
   34.455    2.7383
   34.470    2.5101
   34.485    2.4399
   34.500    2.8787
   34.515    2.9840
   34.530    2.6856
   34.545    2.7734
   34.560    2.8436
   34.575    2.8787
   34.590    2.2292
   34.605    2.8085
   34.620    2.7909
   34.635    2.5452
   34.650    2.3521
   34.665    2.8963
   34.680    2.9840
   34.695    2.8963
   34.710    2.7207
   34.725    2.6681
   34.740    2.4750
   34.755    2.6154
   34.770    2.5979
   34.785    2.9138
   34.800    2.7734
   34.815    2.5628
   34.830    2.7558
   34.845    2.8612
   34.860    2.9489
   34.875    2.4399
   34.890    2.4399
   34.905    2.7734
   34.920    2.1766
   34.935    2.3346
   34.950    2.6330
   34.965    2.4048
   34.980    2.6505
   34.995    2.7558
   35.010    2.6154
   35.025    2.8436
   35.040    2.6505
   35.055    2.4048
   35.070    2.6856
   35.085    2.6856
   35.100    2.8612
   35.115    3.0893
   35.130    2.9138
   35.145    2.5101
   35.160    2.4048
   35.175    2.2819
   35.190    2.2819
   35.205    2.4574
   35.220    2.6505
   35.235    2.5101
   35.250    2.7383
   35.265    2.9665
   35.280    2.5276
   35.295    2.6330
   35.310    2.6505
   35.325    2.1941
   35.340    2.4223
   35.355    2.1941
   35.370    2.6505
   35.385    2.5628
   35.400    2.5803
   35.415    2.3697
   35.430    2.4223
   35.445    2.6330
   35.460    2.6856
   35.475    2.2995
   35.490    2.3521
   35.505    2.3697
   35.520    2.3697
   35.535    2.4048
   35.550    2.6330
   35.565    2.7734
   35.580    2.5276
   35.595    2.7032
   35.610    2.4048
   35.625    2.2643
   35.640    2.3521
   35.655    2.5803
   35.670    2.7558
   35.685    2.6330
   35.700    2.6856
   35.715    2.7734
   35.730    2.6681
   35.745    3.0016
   35.760    2.5979
   35.775    2.6505
   35.790    2.6856
   35.805    2.9840
   35.820    2.6856
   35.835    2.4574
   35.850    2.6154
   35.865    2.5979
   35.880    2.5452
   35.895    2.4750
   35.910    2.6856
   35.925    2.4048
   35.940    2.6681
   35.955    2.5452
   35.970    2.2819
   35.985    2.7558
   36.000    2.4574
   36.015    2.6505
   36.030    2.6856
   36.045    2.4399
   36.060    2.8085
   36.075    2.5276
   36.090    2.9840
   36.105    2.8612
   36.120    2.6856
   36.135    2.8436
   36.150    2.8963
   36.165    2.5628
   36.180    2.7032
   36.195    2.8260
   36.210    2.4574
   36.225    2.5276
   36.240    2.3346
   36.255    2.4574
   36.270    3.0016
   36.285    2.4399
   36.300    2.5979
   36.315    2.7032
   36.330    2.9665
   36.345    2.5101
   36.360    2.3170
   36.375    2.2292
   36.390    2.5803
   36.405    2.5276
   36.420    2.4750
   36.435    2.3170
   36.450    2.9489
   36.465    2.8612
   36.480    2.6330
   36.495    2.7909
   36.510    2.4399
   36.525    2.4925
   36.540    2.7909
   36.555    2.6856
   36.570    2.2468
   36.585    2.1415
   36.600    2.1941
   36.615    2.8787
   36.630    2.7207
   36.645    2.4750
   36.660    2.5979
   36.675    2.4399
   36.690    2.6154
   36.705    2.7558
   36.720    2.8260
   36.735    2.8436
   36.750    2.9138
   36.765    2.9138
   36.780    2.7383
   36.795    2.5452
   36.810    2.4399
   36.825    2.5628
   36.840    2.7383
   36.855    2.5101
   36.870    2.6505
   36.885    2.4399
   36.900    2.2643
   36.915    2.4574
   36.930    2.5276
   36.945    2.5101
   36.960    2.3170
   36.975    2.4925
   36.990    2.7558
   37.005    2.5628
   37.020    2.5979
   37.035    2.3170
   37.050    2.6330
   37.065    2.4399
   37.080    2.3521
   37.095    2.5101
   37.110    2.5276
   37.125    2.8436
   37.140    2.8787
   37.155    2.7558
   37.170    2.6856
   37.185    2.6154
   37.200    2.6856
   37.215    2.5979
   37.230    2.4223
   37.245    2.6154
   37.260    2.2819
   37.275    2.3872
   37.290    2.5628
   37.305    2.4574
   37.320    2.8436
   37.335    2.4925
   37.350    2.6154
   37.365    2.4925
   37.380    2.4223
   37.395    2.6505
   37.410    2.2643
   37.425    2.5101
   37.440    2.9489
   37.455    2.9314
   37.470    2.7558
   37.485    2.6330
   37.500    2.4750
   37.515    2.1590
   37.530    2.6856
   37.545    2.3872
   37.560    2.5101
   37.575    2.5452
   37.590    2.6505
   37.605    2.4925
   37.620    2.6505
   37.635    2.6856
   37.650    2.4399
   37.665    2.4048
   37.680    2.4223
   37.695    2.7032
   37.710    2.4925
   37.725    2.4399
   37.740    2.3872
   37.755    2.4925
   37.770    2.8260
   37.785    2.4399
   37.800    2.5452
   37.815    2.5979
   37.830    2.3521
   37.845    2.5276
   37.860    2.5628
   37.875    2.4223
   37.890    2.6856
   37.905    2.8260
   37.920    2.4574
   37.935    2.1766
   37.950    2.3170
   37.965    2.7734
   37.980    2.6330
   37.995    2.9314
   38.010    2.6505
   38.025    2.6330
   38.040    2.2995
   38.055    2.4750
   38.070    2.1941
   38.085    2.6856
   38.100    2.6856
   38.115    2.4925
   38.130    2.1239
   38.145    2.4048
   38.160    2.6856
   38.175    2.0713
   38.190    2.4223
   38.205    2.4048
   38.220    2.6154
   38.235    2.3697
   38.250    2.3346
   38.265    2.6681
   38.280    2.6505
   38.295    2.4399
   38.310    2.7383
   38.325    2.3697
   38.340    2.8260
   38.355    2.8436
   38.370    2.3346
   38.385    2.3170
   38.400    2.4399
   38.415    2.6330
   38.430    2.6505
   38.445    2.5628
   38.460    2.5628
   38.475    2.7032
   38.490    2.4223
   38.505    2.5101
   38.520    2.4223
   38.535    2.6505
   38.550    2.4574
   38.565    2.3697
   38.580    2.5452
   38.595    2.4574
   38.610    2.3521
   38.625    2.2117
   38.640    2.3872
   38.655    2.5628
   38.670    2.2468
   38.685    2.2995
   38.700    2.0713
   38.715    2.5276
   38.730    2.6330
   38.745    2.4925
   38.760    2.3346
   38.775    2.4925
   38.790    2.6330
   38.805    2.6154
   38.820    2.4399
   38.835    2.1064
   38.850    2.4048
   38.865    2.3872
   38.880    2.5803
   38.895    2.4750
   38.910    2.5101
   38.925    2.5452
   38.940    2.5276
   38.955    2.6856
   38.970    2.1941
   38.985    2.1064
   39.000    2.1590
   39.015    2.3346
   39.030    2.0186
   39.045    2.1590
   39.060    2.3697
   39.075    2.7734
   39.090    2.3872
   39.105    2.6154
   39.120    2.3697
   39.135    2.3872
   39.150    2.5628
   39.165    2.5628
   39.180    2.4223
   39.195    2.5979
   39.210    2.6681
   39.225    2.4223
   39.240    2.3170
   39.255    2.2292
   39.270    2.4925
   39.285    2.5452
   39.300    2.5628
   39.315    2.4574
   39.330    2.7734
   39.345    2.4399
   39.360    2.0713
   39.375    2.2643
   39.390    2.7032
   39.405    2.6154
   39.420    2.0537
   39.435    2.2468
   39.450    2.4750
   39.465    2.2643
   39.480    2.2292
   39.495    2.1941
   39.510    2.2819
   39.525    2.4048
   39.540    2.2468
   39.555    2.3521
   39.570    2.3170
   39.585    2.3170
   39.600    2.2643
   39.615    2.5276
   39.630    2.0888
   39.645    2.2468
   39.660    2.4223
   39.675    2.5101
   39.690    2.3346
   39.705    2.4750
   39.720    2.4574
   39.735    2.4925
   39.750    2.5803
   39.765    2.5628
   39.780    2.7909
   39.795    2.5803
   39.810    2.1766
   39.825    2.6154
   39.840    2.4574
   39.855    2.2995
   39.870    2.3346
   39.885    2.3170
   39.900    2.3872
   39.915    2.2292
   39.930    2.5276
   39.945    2.5452
   39.960    2.3170
   39.975    2.5979
   39.990    2.5276
