    1.500   31.5219
    1.515   31.8589
    1.530   31.1954
    1.545   30.2686
    1.560   30.3002
    1.575   29.4997
    1.590   29.1522
    1.605   28.1095
    1.620   28.3728
    1.635   28.1095
    1.650   28.2149
    1.665   27.1511
    1.680   26.9194
    1.695   25.4134
    1.710   25.5398
    1.725   25.0237
    1.740   25.0342
    1.755   24.0864
    1.770   22.9068
    1.785   23.6440
    1.800   22.6646
    1.815   23.3386
    1.830   22.7488
    1.845   22.1485
    1.860   21.2006
    1.875   21.2849
    1.890   20.8215
    1.905   21.4534
    1.920   20.7162
    1.935   20.4739
    1.950   20.3686
    1.965   19.8947
    1.980   19.3997
    1.995   19.1259
    2.010   19.0627
    2.025   18.7467
    2.040   19.0416
    2.055   18.4623
    2.070   18.6098
    2.085   18.4623
    2.100   18.1780
    2.115   18.6098
    2.130   17.6725
    2.145   17.3776
    2.160   17.3881
    2.175   17.2091
    2.190   16.9668
    2.205   17.4408
    2.220   17.4513
    2.235   16.3981
    2.250   16.8510
    2.265   17.0932
    2.280   16.7562
    2.295   15.5240
    2.310   16.3665
    2.325   16.3349
    2.340   16.1243
    2.355   15.5134
    2.370   16.2823
    2.385   16.0716
    2.400   16.3033
    2.415   16.3349
    2.430   16.2507
    2.445   16.1453
    2.460   15.8610
    2.475   15.8189
    2.490   15.2712
    2.505   15.7767
    2.520   16.0084
    2.535   15.4608
    2.550   15.7030
    2.565   15.6293
    2.580   16.0084
    2.595   16.2401
    2.610   16.5456
    2.625   16.0927
    2.640   15.9558
    2.655   16.7878
    2.670   16.3665
    2.685   15.8504
    2.700   16.2296
    2.715   16.1032
    2.730   16.2401
    2.745   16.9352
    2.760   17.0405
    2.775   16.7773
    2.790   16.2296
    2.805   17.3776
    2.820   17.4724
    2.835   17.0300
    2.850   17.1775
    2.865   17.8726
    2.880   17.8726
    2.895   17.4724
    2.910   17.9989
    2.925   18.0727
    2.940   19.2312
    2.955   19.5261
    2.970   19.5261
    2.985   20.0211
    3.000   20.2422
    3.015   20.0211
    3.030   20.4950
    3.045   21.0005
    3.060   21.7272
    3.075   21.6114
    3.090   21.5587
    3.105   22.1590
    3.120   22.7383
    3.135   23.7388
    3.150   24.2654
    3.165   26.0137
    3.180   25.9400
    3.195   26.4034
    3.210   27.3091
    3.225   27.5724
    3.240   28.2886
    3.255   28.8678
    3.270   29.6367
    3.285   30.3844
    3.300   30.7741
    3.315   31.7430
    3.330   32.3539
    3.345   32.6804
    3.360   32.9331
    3.375   34.4708
    3.390   34.8183
    3.405   34.3023
    3.420   33.2280
    3.435   33.6809
    3.450   33.0806
    3.465   32.3223
    3.480   32.3539
    3.495   30.5424
    3.510   30.3423
    3.525   29.2996
    3.540   28.5519
    3.555   28.4044
    3.570   26.4560
    3.585   24.1601
    3.600   24.1601
    3.615   23.3702
    3.630   21.6746
    3.645   20.6530
    3.660   20.2422
    3.675   19.5682
    3.690   18.4939
    3.705   17.9884
    3.720   16.9984
    3.735   16.8299
    3.750   16.6087
    3.765   15.7662
    3.780   16.0821
    3.795   15.7767
    3.810   15.0500
    3.825   15.4186
    3.840   15.0606
    3.855   15.3660
    3.870   15.7557
    3.885   15.7030
    3.900   15.8294
    3.915   15.4818
    3.930   15.3449
    3.945   15.8926
    3.960   16.0821
    3.975   15.8294
    3.990   15.6082
    4.005   16.5666
    4.020   17.2407
    4.035   17.3460
    4.050   17.1248
    4.065   18.3149
    4.080   18.2096
    4.095   17.9884
    4.110   18.7256
    4.125   18.8204
    4.140   19.0837
    4.155   19.8842
    4.170   19.6946
    4.185   20.1159
    4.200   20.2738
    4.215   19.6103
    4.230   20.5266
    4.245   20.3476
    4.260   20.2212
    4.275   19.9579
    4.290   20.2949
    4.305   19.4418
    4.320   19.3576
    4.335   17.7672
    4.350   17.9674
    4.365   17.4302
    4.380   16.5561
    4.395   16.3244
    4.410   15.4397
    4.425   14.4392
    4.440   13.6388
    4.455   13.3439
    4.470   12.8805
    4.485   12.2907
    4.500   11.3112
    4.515   11.2586
    4.530   10.7741
    4.545   10.3107
    4.560   10.0158
    4.575    9.0047
    4.590    8.9310
    4.605    8.5413
    4.620    8.2149
    4.635    8.3728
    4.650    8.0042
    4.665    7.3934
    4.680    7.5197
    4.695    7.0248
    4.710    7.2143
    4.725    7.5408
    4.740    7.2459
    4.755    6.8773
    4.770    6.8773
    4.785    6.5087
    4.800    6.4034
    4.815    6.4560
    4.830    6.4455
    4.845    6.5613
    4.860    6.5719
    4.875    6.4560
    4.890    5.8978
    4.905    5.8978
    4.920    5.5714
    4.935    5.5924
    4.950    5.8768
    4.965    5.4028
    4.980    5.4028
    4.995    5.5503
    5.010    5.8978
    5.025    5.6977
    5.040    5.6556
    5.055    5.5082
    5.070    5.1922
    5.085    5.2975
    5.100    5.4450
    5.115    5.1395
    5.130    5.5082
    5.145    5.4660
    5.160    5.4239
    5.175    5.5292
    5.190    5.3291
    5.205    5.5503
    5.220    4.9605
    5.235    5.2343
    5.250    5.0026
    5.265    5.0764
    5.280    5.5398
    5.295    5.1711
    5.310    5.0658
    5.325    5.5398
    5.340    5.2870
    5.355    5.3607
    5.370    5.5292
    5.385    5.2870
    5.400    5.3186
    5.415    5.2449
    5.430    5.3818
    5.445    5.0026
    5.460    5.0132
    5.475    5.3712
    5.490    5.4660
    5.505    5.2238
    5.520    4.9289
    5.535    5.2449
    5.550    5.2027
    5.565    5.2449
    5.580    5.3607
    5.595    5.1395
    5.610    5.0237
    5.625    4.9710
    5.640    5.2343
    5.655    5.3081
    5.670    4.8763
    5.685    5.0132
    5.700    4.7815
    5.715    5.0553
    5.730    5.0342
    5.745    4.7709
    5.760    5.0553
    5.775    5.0658
    5.790    4.9816
    5.805    5.3712
    5.820    4.9078
    5.835    4.6235
    5.850    4.7288
    5.865    4.5603
    5.880    4.6656
    5.895    4.6235
    5.910    4.8973
    5.925    4.7709
    5.940    4.6656
    5.955    4.4760
    5.970    4.4760
    5.985    4.4866
    6.000    4.9394
    6.015    4.8763
    6.030    4.9289
    6.045    4.9394
    6.060    4.8657
    6.075    4.4128
    6.090    4.7183
    6.105    4.9078
    6.120    4.8236
    6.135    4.7920
    6.150    4.9500
    6.165    4.7288
    6.180    4.5287
    6.195    4.9816
    6.210    4.5287
    6.225    4.6656
    6.240    4.6445
    6.255    4.3813
    6.270    4.7709
    6.285    5.0132
    6.300    4.9078
    6.315    4.9184
    6.330    4.5392
    6.345    4.8341
    6.360    4.9605
    6.375    4.9816
    6.390    5.0974
    6.405    5.0237
    6.420    5.2765
    6.435    5.4134
    6.450    5.0553
    6.465    4.9816
    6.480    5.2870
    6.495    5.4766
    6.510    5.2765
    6.525    5.4660
    6.540    5.2449
    6.555    5.4344
    6.570    5.4239
    6.585    5.4134
    6.600    5.4976
    6.615    5.7820
    6.630    5.9505
    6.645    5.7293
    6.660    5.8873
    6.675    6.0242
    6.690    6.1506
    6.705    6.5508
    6.720    6.3928
    6.735    6.5508
    6.750    6.7615
    6.765    6.8668
    6.780    6.8141
    6.795    7.1827
    6.810    7.1090
    6.825    7.2775
    6.840    7.7514
    6.855    7.5303
    6.870    8.2254
    6.885    8.4360
    6.900    8.4150
    6.915    8.8468
    6.930    8.5835
    6.945    8.6783
    6.960    8.4150
    6.975    8.0990
    6.990    8.0253
    7.005    7.6461
    7.020    8.2675
    7.035    7.7304
    7.050    7.7830
    7.065    7.4671
    7.080    7.2459
    7.095    7.0353
    7.110    7.0142
    7.125    6.7193
    7.140    6.6245
    7.155    6.4982
    7.170    6.0032
    7.185    5.7820
    7.200    5.9926
    7.215    5.8768
    7.230    5.5819
    7.245    5.7925
    7.260    5.4450
    7.275    4.9816
    7.290    5.1606
    7.305    4.9710
    7.320    5.3923
    7.335    5.3186
    7.350    4.9921
    7.365    5.4555
    7.380    5.1501
    7.395    4.9921
    7.410    5.0974
    7.425    5.0237
    7.440    4.8236
    7.455    5.0342
    7.470    4.8447
    7.485    4.4655
    7.500    4.7815
    7.515    4.8868
    7.530    4.6761
    7.545    4.2549
    7.560    4.4444
    7.575    4.5287
    7.590    4.5814
    7.605    4.9500
    7.620    4.3181
    7.635    4.2654
    7.650    4.4866
    7.665    4.6340
    7.680    4.4339
    7.695    4.3181
    7.710    4.6656
    7.725    4.9921
    7.740    4.3813
    7.755    4.5182
    7.770    4.6656
    7.785    4.4128
    7.800    4.3918
    7.815    4.4866
    7.830    4.7077
    7.845    4.5708
    7.860    4.6340
    7.875    4.7077
    7.890    5.0658
    7.905    5.0448
    7.920    5.0448
    7.935    4.9184
    7.950    4.8973
    7.965    5.0026
    7.980    4.8763
    7.995    4.5814
    8.010    4.6445
    8.025    4.6445
    8.040    4.5498
    8.055    4.6867
    8.070    4.7815
    8.085    4.9078
    8.100    4.6867
    8.115    4.5392
    8.130    4.7077
    8.145    4.9605
    8.160    4.7709
    8.175    4.9500
    8.190    4.9394
    8.205    4.8973
    8.220    4.7393
    8.235    5.0869
    8.250    4.9500
    8.265    4.8552
    8.280    5.0553
    8.295    5.4134
    8.310    5.3712
    8.325    4.8657
    8.340    5.3186
    8.355    5.8347
    8.370    5.6135
    8.385    5.6661
    8.400    5.8452
    8.415    5.9400
    8.430    5.9821
    8.445    6.1717
    8.460    5.6872
    8.475    5.7504
    8.490    6.1295
    8.505    6.0242
    8.520    6.0137
    8.535    6.5298
    8.550    6.1927
    8.565    6.3612
    8.580    6.3191
    8.595    6.2559
    8.610    6.1822
    8.625    6.3928
    8.640    5.8768
    8.655    6.0769
    8.670    6.2981
    8.685    6.3612
    8.700    6.2138
    8.715    6.1506
    8.730    6.4666
    8.745    6.4244
    8.760    5.9821
    8.775    5.8557
    8.790    5.6767
    8.805    5.5503
    8.820    5.8136
    8.835    5.9505
    8.850    5.5714
    8.865    5.3081
    8.880    5.3923
    8.895    5.7399
    8.910    5.5292
    8.925    5.3712
    8.940    5.3291
    8.955    4.8763
    8.970    5.0658
    8.985    5.1711
    9.000    4.6340
    9.015    4.6340
    9.030    4.8868
    9.045    5.1185
    9.060    4.9500
    9.075    4.6761
    9.090    4.5498
    9.105    4.6024
    9.120    4.6235
    9.135    4.7604
    9.150    4.7604
    9.165    4.4866
    9.180    4.5182
    9.195    4.2443
    9.210    4.2338
    9.225    4.3181
    9.240    4.1180
    9.255    4.2022
    9.270    4.3286
    9.285    4.1285
    9.300    4.2022
    9.315    4.2443
    9.330    4.0653
    9.345    4.1390
    9.360    4.0653
    9.375    4.1496
    9.390    4.4550
    9.405    4.1180
    9.420    4.0969
    9.435    3.8336
    9.450    4.0864
    9.465    4.0758
    9.480    4.3286
    9.495    4.1496
    9.510    4.4760
    9.525    4.2127
    9.540    4.0548
    9.555    4.1074
    9.570    4.2127
    9.585    4.1601
    9.600    4.2443
    9.615    3.9284
    9.630    4.0021
    9.645    4.0337
    9.660    3.7809
    9.675    4.1074
    9.690    3.9179
    9.705    3.8652
    9.720    4.0021
    9.735    3.8547
    9.750    4.0232
    9.765    3.9810
    9.780    4.3391
    9.795    4.2233
    9.810    4.0548
    9.825    4.0864
    9.840    3.8968
    9.855    4.3286
    9.870    4.2654
    9.885    4.2127
    9.900    3.8125
    9.915    3.6756
    9.930    4.0864
    9.945    4.1811
    9.960    4.0969
    9.975    4.0337
    9.990    4.2127
   10.005    3.8231
   10.020    4.0021
   10.035    3.8441
   10.050    4.1496
   10.065    4.0969
   10.080    3.9916
   10.095    3.9389
   10.110    4.0232
   10.125    4.1706
   10.140    3.9916
   10.155    3.9600
   10.170    3.9179
   10.185    4.0758
   10.200    4.0337
   10.215    3.7915
   10.230    3.9916
   10.245    3.9810
   10.260    4.1706
   10.275    4.0653
   10.290    3.9284
   10.305    3.8336
   10.320    3.9389
   10.335    3.7388
   10.350    4.0021
   10.365    4.2233
   10.380    4.1496
   10.395    4.1390
   10.410    3.9494
   10.425    3.9284
   10.440    4.2338
   10.455    4.0758
   10.470    4.2127
   10.485    4.1496
   10.500    3.9073
   10.515    4.1601
   10.530    4.2970
   10.545    4.3707
   10.560    3.9494
   10.575    4.0337
   10.590    3.8863
   10.605    3.8863
   10.620    3.8125
   10.635    3.9705
   10.650    4.0337
   10.665    3.8020
   10.680    3.6756
   10.695    3.9916
   10.710    4.1811
   10.725    3.7809
   10.740    3.9705
   10.755    4.0548
   10.770    4.1811
   10.785    3.7704
   10.800    3.9179
   10.815    3.8336
   10.830    3.8231
   10.845    3.7915
   10.860    3.7493
   10.875    3.6546
   10.890    3.9600
   10.905    3.9705
   10.920    3.7493
   10.935    3.9073
   10.950    3.8547
   10.965    3.8757
   10.980    3.7915
   10.995    3.8020
   11.010    3.9389
   11.025    3.8757
   11.040    3.9179
   11.055    4.2759
   11.070    3.3913
   11.085    3.6335
   11.100    4.0758
   11.115    4.0758
   11.130    3.7915
   11.145    3.8652
   11.160    3.8652
   11.175    3.6230
   11.190    3.6230
   11.205    3.7809
   11.220    4.2022
   11.235    3.8125
   11.250    3.9284
   11.265    3.6124
   11.280    3.7809
   11.295    4.2022
   11.310    3.9705
   11.325    3.9284
   11.340    4.0126
   11.355    4.0864
   11.370    4.0969
   11.385    3.9389
   11.400    4.0232
   11.415    3.9916
   11.430    3.8547
   11.445    3.6756
   11.460    3.8652
   11.475    3.7915
   11.490    3.7493
   11.505    3.9494
   11.520    3.7599
   11.535    3.7915
   11.550    4.1496
   11.565    4.0758
   11.580    3.7915
   11.595    3.8757
   11.610    3.9494
   11.625    3.7809
   11.640    3.5492
   11.655    3.8231
   11.670    4.0021
   11.685    3.8336
   11.700    3.9705
   11.715    4.0548
   11.730    4.0021
   11.745    3.8968
   11.760    3.9284
   11.775    3.8441
   11.790    3.7704
   11.805    3.8441
   11.820    3.6967
   11.835    3.8863
   11.850    3.9600
   11.865    3.7704
   11.880    3.6862
   11.895    3.8125
   11.910    3.9600
   11.925    3.8336
   11.940    4.0758
   11.955    3.8652
   11.970    3.9389
   11.985    3.8652
   12.000    3.8125
   12.015    3.9916
   12.030    4.3286
   12.045    3.9810
   12.060    3.8231
   12.075    3.7388
   12.090    4.0337
   12.105    3.7388
   12.120    3.7072
   12.135    3.6335
   12.150    3.8336
   12.165    3.9284
   12.180    3.8020
   12.195    4.1811
   12.210    3.7809
   12.225    4.0758
   12.240    3.8863
   12.255    3.9073
   12.270    4.1180
   12.285    3.6967
   12.300    3.5914
   12.315    3.5071
   12.330    3.5703
   12.345    3.8125
   12.360    3.7388
   12.375    3.7915
   12.390    3.9073
   12.405    3.8968
   12.420    3.8757
   12.435    3.8231
   12.450    3.6756
   12.465    3.9284
   12.480    3.7809
   12.495    3.7072
   12.510    3.8020
   12.525    3.9810
   12.540    3.8231
   12.555    4.1390
   12.570    3.9179
   12.585    4.0442
   12.600    3.8968
   12.615    3.7177
   12.630    3.8231
   12.645    3.8863
   12.660    4.0653
   12.675    4.0548
   12.690    4.0232
   12.705    3.7915
   12.720    3.9916
   12.735    4.0548
   12.750    3.9916
   12.765    3.9705
   12.780    3.8336
   12.795    3.8441
   12.810    3.9179
   12.825    4.0021
   12.840    3.9600
   12.855    4.0337
   12.870    4.1917
   12.885    4.0864
   12.900    4.2233
   12.915    4.2127
   12.930    4.2233
   12.945    3.6862
   12.960    4.1074
   12.975    3.7704
   12.990    4.0969
   13.005    3.8652
   13.020    3.9810
   13.035    4.1074
   13.050    3.6335
   13.065    3.8652
   13.080    3.9284
   13.095    4.1706
   13.110    3.8652
   13.125    4.0126
   13.140    4.0548
   13.155    3.9494
   13.170    4.0232
   13.185    4.0232
   13.200    3.5914
   13.215    3.8547
   13.230    3.8863
   13.245    4.3707
   13.260    3.6546
   13.275    3.7072
   13.290    3.9705
   13.305    3.7283
   13.320    3.8231
   13.335    3.8441
   13.350    3.8652
   13.365    4.0232
   13.380    3.9389
   13.395    4.1180
   13.410    3.8125
   13.425    3.7493
   13.440    3.7283
   13.455    3.7493
   13.470    3.6756
   13.485    3.8652
   13.500    3.8020
   13.515    3.8547
   13.530    3.9284
   13.545    3.4123
   13.560    3.6230
   13.575    4.0337
   13.590    4.0758
   13.605    3.6756
   13.620    3.5703
   13.635    3.8231
   13.650    3.9705
   13.665    4.1601
   13.680    3.8336
   13.695    3.6862
   13.710    3.8020
   13.725    3.7283
   13.740    3.8547
   13.755    3.9600
   13.770    3.5282
   13.785    3.6967
   13.800    3.8125
   13.815    4.0653
   13.830    3.8547
   13.845    3.6756
   13.860    3.5492
   13.875    3.5703
   13.890    3.5703
   13.905    3.7704
   13.920    3.7704
   13.935    3.8231
   13.950    3.9389
   13.965    3.6862
   13.980    3.6756
   13.995    3.8757
   14.010    3.9389
   14.025    3.5914
   14.040    3.6756
   14.055    3.8125
   14.070    3.5282
   14.085    3.4860
   14.100    3.8547
   14.115    3.9073
   14.130    3.5071
   14.145    3.8336
   14.160    3.8757
   14.175    3.7915
   14.190    3.9073
   14.205    3.9705
   14.220    3.8863
   14.235    3.7177
   14.250    3.8125
   14.265    3.3281
   14.280    3.4755
   14.295    3.5282
   14.310    3.7177
   14.325    3.6230
   14.340    4.0548
   14.355    3.8968
   14.370    3.4966
   14.385    3.6651
   14.400    3.8125
   14.415    3.9284
   14.430    3.7388
   14.445    4.0442
   14.460    3.7072
   14.475    3.6440
   14.490    3.5492
   14.505    3.8652
   14.520    4.0021
   14.535    3.8125
   14.550    3.9600
   14.565    4.0021
   14.580    3.5808
   14.595    3.4544
   14.610    3.7493
   14.625    3.7388
   14.640    3.8863
   14.655    3.6862
   14.670    3.7283
   14.685    3.7072
   14.700    3.7072
   14.715    3.8336
   14.730    3.6967
   14.745    3.7599
   14.760    3.6862
   14.775    3.8441
   14.790    3.5492
   14.805    3.7283
   14.820    3.7809
   14.835    3.7072
   14.850    3.7809
   14.865    3.9916
   14.880    3.6546
   14.895    3.8547
   14.910    3.8757
   14.925    3.7493
   14.940    3.6019
   14.955    3.3597
   14.970    3.3702
   14.985    3.8863
   15.000    3.5808
   15.015    3.6756
   15.030    3.8547
   15.045    3.8231
   15.060    3.7177
   15.075    3.8125
   15.090    3.9705
   15.105    3.9284
   15.120    3.7388
   15.135    3.4860
   15.150    3.6019
   15.165    3.6335
   15.180    3.6862
   15.195    3.7704
   15.210    3.9073
   15.225    3.9810
   15.240    3.6546
   15.255    3.6440
   15.270    3.6546
   15.285    3.5808
   15.300    3.5703
   15.315    3.5703
   15.330    3.6651
   15.345    3.6230
   15.360    3.9179
   15.375    3.6651
   15.390    3.7915
   15.405    3.5387
   15.420    3.7599
   15.435    3.4860
   15.450    3.8441
   15.465    4.1601
   15.480    3.8547
   15.495    3.7915
   15.510    3.6019
   15.525    3.8231
   15.540    3.8547
   15.555    3.7704
   15.570    4.1074
   15.585    3.6967
   15.600    3.6651
   15.615    3.6230
   15.630    3.6546
   15.645    3.7599
   15.660    3.8336
   15.675    3.8757
   15.690    3.5703
   15.705    3.7809
   15.720    3.6335
   15.735    3.5914
   15.750    3.7599
   15.765    3.9179
   15.780    3.5914
   15.795    3.6019
   15.810    3.4018
   15.825    3.5176
   15.840    3.7493
   15.855    3.5703
   15.870    3.6967
   15.885    3.5387
   15.900    3.6967
   15.915    3.7704
   15.930    3.6019
   15.945    3.9073
   15.960    3.8020
   15.975    3.8652
   15.990    3.6124
   16.005    3.8547
   16.020    4.0126
   16.035    4.0864
   16.050    3.9179
   16.065    3.5914
   16.080    3.5703
   16.095    3.8547
   16.110    3.7388
   16.125    3.7177
   16.140    3.5808
   16.155    3.7493
   16.170    3.7072
   16.185    3.8020
   16.200    3.5703
   16.215    3.6756
   16.230    3.8863
   16.245    3.6124
   16.260    3.6335
   16.275    3.6546
   16.290    3.5176
   16.305    3.6862
   16.320    3.3913
   16.335    3.6440
   16.350    3.6019
   16.365    3.5914
   16.380    3.3913
   16.395    3.6124
   16.410    3.5176
   16.425    3.4018
   16.440    3.6440
   16.455    3.9179
   16.470    3.5703
   16.485    3.1596
   16.500    3.8125
   16.515    3.7493
   16.530    3.8863
   16.545    3.6546
   16.560    3.8863
   16.575    3.5387
   16.590    3.6230
   16.605    3.8020
   16.620    3.6335
   16.635    3.5387
   16.650    3.6230
   16.665    3.7704
   16.680    3.8547
   16.695    3.7072
   16.710    3.6546
   16.725    3.6862
   16.740    3.5176
   16.755    3.5387
   16.770    3.6440
   16.785    3.7388
   16.800    3.6124
   16.815    3.6756
   16.830    3.6756
   16.845    3.5598
   16.860    3.7177
   16.875    3.3913
   16.890    3.3597
   16.905    3.6019
   16.920    3.6124
   16.935    3.6862
   16.950    3.7809
   16.965    3.8863
   16.980    4.0021
   16.995    3.8020
   17.010    3.8547
   17.025    3.8652
   17.040    3.9389
   17.055    4.1074
   17.070    4.0337
   17.085    3.8020
   17.100    3.8125
   17.115    3.7599
   17.130    3.6862
   17.145    3.7388
   17.160    3.6756
   17.175    3.6756
   17.190    3.6651
   17.205    3.5598
   17.220    3.5387
   17.235    3.7493
   17.250    3.5492
   17.265    3.9810
   17.280    4.0021
   17.295    3.5492
   17.310    3.4544
   17.325    3.9810
   17.340    3.5703
   17.355    3.9073
   17.370    3.5598
   17.385    3.6862
   17.400    3.7388
   17.415    3.8652
   17.430    3.9810
   17.445    3.6967
   17.460    3.5808
   17.475    3.8020
   17.490    3.7915
   17.505    3.6335
   17.520    3.5598
   17.535    4.0126
   17.550    3.6862
   17.565    3.9705
   17.580    3.9916
   17.595    3.8652
   17.610    4.0232
   17.625    4.0442
   17.640    4.1074
   17.655    3.8020
   17.670    3.8020
   17.685    3.8336
   17.700    3.4860
   17.715    3.7704
   17.730    4.0021
   17.745    3.5176
   17.760    3.8441
   17.775    3.7809
   17.790    3.5598
   17.805    3.7283
   17.820    3.8231
   17.835    4.1811
   17.850    3.9389
   17.865    3.8757
   17.880    3.8757
   17.895    4.2127
   17.910    3.9494
   17.925    3.8652
   17.940    3.8125
   17.955    3.7283
   17.970    3.6335
   17.985    3.6230
   18.000    3.8863
   18.015    3.8231
   18.030    3.7388
   18.045    4.0021
   18.060    3.9179
   18.075    3.8231
   18.090    3.7072
   18.105    3.8020
   18.120    3.6967
   18.135    3.8757
   18.150    4.0021
   18.165    3.6440
   18.180    3.2965
   18.195    3.7915
   18.210    3.8125
   18.225    3.8652
   18.240    3.8968
   18.255    3.9284
   18.270    3.9179
   18.285    3.9494
   18.300    4.0021
   18.315    4.0021
   18.330    3.7704
   18.345    4.1074
   18.360    3.8336
   18.375    3.4439
   18.390    3.6756
   18.405    3.8757
   18.420    3.7283
   18.435    3.7388
   18.450    3.6230
   18.465    3.6440
   18.480    3.8336
   18.495    3.7072
   18.510    3.9073
   18.525    3.8652
   18.540    3.6440
   18.555    3.8547
   18.570    3.9600
   18.585    3.8441
   18.600    4.1601
   18.615    4.2970
   18.630    3.9284
   18.645    4.1074
   18.660    3.7809
   18.675    3.8441
   18.690    3.7177
   18.705    3.9600
   18.720    3.9705
   18.735    3.8547
   18.750    3.8968
   18.765    3.7915
   18.780    3.8863
   18.795    4.0021
   18.810    3.9284
   18.825    4.1496
   18.840    3.8652
   18.855    3.8652
   18.870    3.6230
   18.885    4.0758
   18.900    3.7809
   18.915    3.9600
   18.930    4.1601
   18.945    4.0126
   18.960    3.6546
   18.975    3.6230
   18.990    4.1074
   19.005    3.9810
   19.020    4.0337
   19.035    3.9705
   19.050    3.9600
   19.065    3.9494
   19.080    3.7388
   19.095    3.6756
   19.110    3.8441
   19.125    3.8441
   19.140    3.8968
   19.155    3.8968
   19.170    4.0021
   19.185    3.9494
   19.200    4.0758
   19.215    4.0021
   19.230    4.0548
   19.245    4.0337
   19.260    3.8547
   19.275    3.9284
   19.290    3.9705
   19.305    3.5703
   19.320    3.5914
   19.335    4.0969
   19.350    3.8968
   19.365    3.9810
   19.380    4.4023
   19.395    3.9810
   19.410    4.0442
   19.425    4.0442
   19.440    3.9810
   19.455    3.9389
   19.470    4.0548
   19.485    3.7177
   19.500    4.1390
   19.515    4.2443
   19.530    4.0969
   19.545    4.1180
   19.560    3.8547
   19.575    4.0442
   19.590    4.0758
   19.605    3.9916
   19.620    3.8652
   19.635    4.2233
   19.650    4.1811
   19.665    3.9073
   19.680    4.0758
   19.695    3.9916
   19.710    4.2654
   19.725    3.8863
   19.740    4.1811
   19.755    4.4655
   19.770    4.2443
   19.785    4.2233
   19.800    4.6024
   19.815    3.8231
   19.830    4.2338
   19.845    4.2127
   19.860    4.2022
   19.875    4.6972
   19.890    4.2022
   19.905    4.3286
   19.920    3.9073
   19.935    3.9073
   19.950    4.0021
   19.965    4.1706
   19.980    4.0758
   19.995    3.9389
   20.010    4.0969
   20.025    4.1390
   20.040    3.9494
   20.055    4.0232
   20.070    4.3602
   20.085    3.8020
   20.100    3.8336
   20.115    3.8652
   20.130    4.1074
   20.145    3.7388
   20.160    4.3918
   20.175    4.4550
   20.190    3.8020
   20.205    3.8652
   20.220    4.0442
   20.235    4.4023
   20.250    4.3286
   20.265    4.0864
   20.280    4.1285
   20.295    3.9810
   20.310    3.9179
   20.325    3.9705
   20.340    4.0232
   20.355    4.1390
   20.370    3.9705
   20.385    4.2654
   20.400    4.3602
   20.415    4.2549
   20.430    3.9810
   20.445    4.1811
   20.460    4.1706
   20.475    4.1285
   20.490    4.1074
   20.505    4.1074
   20.520    4.2443
   20.535    4.0864
   20.550    4.0653
   20.565    4.1390
   20.580    3.6651
   20.595    4.0864
   20.610    4.1390
   20.625    3.9600
   20.640    4.2127
   20.655    4.1811
   20.670    4.6761
   20.685    4.4444
   20.700    3.9916
   20.715    4.0126
   20.730    4.0337
   20.745    3.9389
   20.760    4.4339
   20.775    4.1601
   20.790    4.0337
   20.805    4.2549
   20.820    4.0758
   20.835    4.3286
   20.850    4.1917
   20.865    4.0442
   20.880    4.0969
   20.895    4.2233
   20.910    4.2865
   20.925    4.0021
   20.940    4.4971
   20.955    4.1706
   20.970    4.2759
   20.985    4.0548
   21.000    4.1180
   21.015    4.4234
   21.030    4.0758
   21.045    4.1601
   21.060    4.1285
   21.075    4.4550
   21.090    4.4023
   21.105    4.0021
   21.120    4.4760
   21.135    4.2654
   21.150    4.2127
   21.165    4.2233
   21.180    3.9179
   21.195    3.9916
   21.210    4.3391
   21.225    4.5182
   21.240    4.3497
   21.255    4.3602
   21.270    4.1285
   21.285    3.9810
   21.300    4.2338
   21.315    4.4023
   21.330    4.0021
   21.345    4.2443
   21.360    4.3075
   21.375    4.0337
   21.390    4.0337
   21.405    4.0337
   21.420    4.2233
   21.435    4.2759
   21.450    4.2970
   21.465    3.9916
   21.480    4.1917
   21.495    4.2233
   21.510    4.2022
   21.525    4.1601
   21.540    4.3707
   21.555    4.3602
   21.570    4.4234
   21.585    4.0864
   21.600    4.4339
   21.615    4.5076
   21.630    4.4234
   21.645    4.7183
   21.660    4.3813
   21.675    3.9705
   21.690    3.9810
   21.705    4.1074
   21.720    4.0969
   21.735    4.1811
   21.750    3.9073
   21.765    4.0337
   21.780    4.0442
   21.795    4.1285
   21.810    4.3391
   21.825    4.5919
   21.840    4.1180
   21.855    4.3181
   21.870    4.2233
   21.885    4.2022
   21.900    4.1285
   21.915    4.1811
   21.930    4.2759
   21.945    4.3286
   21.960    4.3286
   21.975    4.2865
   21.990    4.3918
   22.005    4.5708
   22.020    4.3813
   22.035    4.4128
   22.050    4.4444
   22.065    4.0758
   22.080    4.2127
   22.095    4.1811
   22.110    4.4866
   22.125    4.3602
   22.140    4.1601
   22.155    4.2443
   22.170    4.2443
   22.185    4.1917
   22.200    4.4128
   22.215    3.9073
   22.230    4.4971
   22.245    4.7183
   22.260    4.4444
   22.275    4.6340
   22.290    4.5708
   22.305    4.0442
   22.320    4.4760
   22.335    4.2970
   22.350    4.2127
   22.365    4.2549
   22.380    4.3181
   22.395    4.5182
   22.410    4.2338
   22.425    4.0864
   22.440    3.9284
   22.455    4.2654
   22.470    4.3286
   22.485    4.3286
   22.500    4.4339
   22.515    4.4866
   22.530    4.2759
   22.545    4.2127
   22.560    4.1074
   22.575    3.8547
   22.590    4.0232
   22.605    4.3075
   22.620    3.9916
   22.635    4.1811
   22.650    4.3181
   22.665    4.4023
   22.680    4.2865
   22.695    4.3181
   22.710    4.0548
   22.725    4.1601
   22.740    4.2759
   22.755    4.1917
   22.770    4.0969
   22.785    4.3602
   22.800    4.2865
   22.815    4.4760
   22.830    4.3602
   22.845    3.9705
   22.860    4.1285
   22.875    4.1706
   22.890    4.3075
   22.905    4.0337
   22.920    4.2759
   22.935    4.1285
   22.950    4.5076
   22.965    4.2865
   22.980    4.2022
   22.995    4.2022
   23.010    4.0653
   23.025    3.8863
   23.040    4.0653
   23.055    4.2654
   23.070    4.0758
   23.085    3.8863
   23.100    4.1706
   23.115    4.3286
   23.130    4.0969
   23.145    3.8547
   23.160    4.0126
   23.175    3.8441
   23.190    4.2865
   23.205    4.0337
   23.220    4.2970
   23.235    4.2970
   23.250    4.2443
   23.265    4.0126
   23.280    3.8547
   23.295    4.2443
   23.310    4.1180
   23.325    4.2233
   23.340    4.1074
   23.355    4.1285
   23.370    3.8020
   23.385    3.8968
   23.400    4.0021
   23.415    3.9073
   23.430    3.9600
   23.445    4.3497
   23.460    4.0126
   23.475    3.8652
   23.490    3.6862
   23.505    4.1706
   23.520    3.9389
   23.535    4.0442
   23.550    4.0021
   23.565    4.0442
   23.580    3.7599
   23.595    3.9810
   23.610    4.0548
   23.625    4.3075
   23.640    3.9073
   23.655    3.8652
   23.670    3.9494
   23.685    3.9600
   23.700    3.9179
   23.715    3.7283
   23.730    3.9810
   23.745    4.1390
   23.760    4.0337
   23.775    3.9916
   23.790    4.0021
   23.805    4.1706
   23.820    3.9600
   23.835    4.0548
   23.850    4.0653
   23.865    4.1180
   23.880    4.1285
   23.895    4.0232
   23.910    4.1496
   23.925    3.9916
   23.940    3.8968
   23.955    3.8652
   23.970    4.0969
   23.985    4.1706
   24.000    4.2127
   24.015    3.9284
   24.030    3.7283
   24.045    4.0548
   24.060    4.0864
   24.075    3.9916
   24.090    3.8231
   24.105    3.9916
   24.120    4.3497
   24.135    4.0653
   24.150    3.8652
   24.165    3.8336
   24.180    3.7177
   24.195    3.7177
   24.210    3.7599
   24.225    3.8968
   24.240    4.1390
   24.255    4.0021
   24.270    3.9179
   24.285    3.7177
   24.300    3.7388
   24.315    4.3813
   24.330    4.2865
   24.345    3.8547
   24.360    4.1285
   24.375    4.2654
   24.390    4.4128
   24.405    4.0758
   24.420    3.9494
   24.435    4.1811
   24.450    4.1285
   24.465    4.0442
   24.480    4.0864
   24.495    3.8757
   24.510    3.8863
   24.525    4.1706
   24.540    3.8863
   24.555    4.0232
   24.570    4.1496
   24.585    4.1496
   24.600    4.0758
   24.615    4.0021
   24.630    4.4023
   24.645    4.2338
   24.660    4.1496
   24.675    4.1074
   24.690    4.2970
   24.705    4.4760
   24.720    4.0969
   24.735    4.1706
   24.750    3.9705
   24.765    4.1811
   24.780    4.3918
   24.795    4.0653
   24.810    4.0442
   24.825    3.7809
   24.840    4.0653
   24.855    4.1390
   24.870    4.0758
   24.885    4.3181
   24.900    3.9705
   24.915    3.8441
   24.930    3.7072
   24.945    3.9073
   24.960    3.9600
   24.975    3.9810
   24.990    4.1601
   25.005    4.0864
   25.020    3.7915
   25.035    3.8020
   25.050    3.7599
   25.065    3.9916
   25.080    4.0232
   25.095    3.8863
   25.110    4.0548
   25.125    4.2970
   25.140    4.0442
   25.155    3.7704
   25.170    4.0337
   25.185    3.7388
   25.200    3.7915
   25.215    3.9494
   25.230    4.2759
   25.245    3.8125
   25.260    3.6967
   25.275    3.8231
   25.290    3.7177
   25.305    3.7704
   25.320    3.6967
   25.335    3.7177
   25.350    3.8863
   25.365    3.8652
   25.380    3.9916
   25.395    3.8757
   25.410    4.3075
   25.425    4.1390
   25.440    3.6862
   25.455    3.9389
   25.470    3.7809
   25.485    3.8231
   25.500    3.8863
   25.515    3.9179
   25.530    3.9705
   25.545    3.9705
   25.560    4.0442
   25.575    3.9179
   25.590    4.1180
   25.605    4.1180
   25.620    4.0337
   25.635    3.8757
   25.650    4.3181
   25.665    3.8863
   25.680    3.6335
   25.695    4.0126
   25.710    4.0021
   25.725    3.7493
   25.740    3.7177
   25.755    4.0442
   25.770    3.6440
   25.785    3.8231
   25.800    3.8968
   25.815    4.0126
   25.830    3.6230
   25.845    3.7493
   25.860    3.6335
   25.875    3.5176
   25.890    3.7072
   25.905    3.9810
   25.920    4.0548
   25.935    3.8336
   25.950    3.6440
   25.965    3.6230
   25.980    3.7809
   25.995    3.6230
   26.010    3.7283
   26.025    3.6019
   26.040    3.4650
   26.055    3.7704
   26.070    3.7915
   26.085    3.6335
   26.100    3.6124
   26.115    3.4123
   26.130    3.8020
   26.145    3.9810
   26.160    3.6546
   26.175    3.9916
   26.190    3.9916
   26.205    3.7388
   26.220    3.6967
   26.235    3.7388
   26.250    3.6124
   26.265    3.8968
   26.280    3.8652
   26.295    3.6546
   26.310    3.5808
   26.325    3.8125
   26.340    3.6862
   26.355    3.7072
   26.370    3.9494
   26.385    4.0337
   26.400    3.8441
   26.415    3.5914
   26.430    3.8441
   26.445    3.4650
   26.460    3.7072
   26.475    3.8652
   26.490    4.0126
   26.505    3.7388
   26.520    3.7388
   26.535    3.7072
   26.550    3.8547
   26.565    3.7915
   26.580    3.4334
   26.595    3.9705
   26.610    4.0653
   26.625    3.8863
   26.640    3.7704
   26.655    3.7177
   26.670    3.7177
   26.685    3.7915
   26.700    3.8441
   26.715    3.4334
   26.730    3.7072
   26.745    3.4544
   26.760    3.7915
   26.775    3.7809
   26.790    3.3702
   26.805    3.7915
   26.820    3.5387
   26.835    3.6756
   26.850    3.7704
   26.865    3.5071
   26.880    3.6862
   26.895    3.5071
   26.910    3.4650
   26.925    3.4544
   26.940    3.4860
   26.955    3.8231
   26.970    3.6124
   26.985    3.8336
   27.000    3.5914
   27.015    3.4966
   27.030    3.6967
   27.045    3.4966
   27.060    3.6230
   27.075    3.5703
   27.090    3.5282
   27.105    3.8757
   27.120    3.8863
   27.135    4.0969
   27.150    4.0548
   27.165    3.8441
   27.180    3.5387
   27.195    3.7915
   27.210    3.9494
   27.225    3.7599
   27.240    3.6967
   27.255    3.9073
   27.270    3.6019
   27.285    3.7704
   27.300    3.8547
   27.315    3.5492
   27.330    3.5492
   27.345    3.9179
   27.360    3.7704
   27.375    3.7809
   27.390    3.7388
   27.405    3.5598
   27.420    3.7283
   27.435    3.9916
   27.450    3.9494
   27.465    3.6230
   27.480    3.7599
   27.495    3.9073
   27.510    3.8125
   27.525    3.7072
   27.540    3.8757
   27.555    3.7599
   27.570    3.4755
   27.585    3.6019
   27.600    3.5282
   27.615    3.6230
   27.630    3.6756
   27.645    3.6546
   27.660    3.6440
   27.675    3.5808
   27.690    3.6546
   27.705    3.6335
   27.720    3.3597
   27.735    3.4755
   27.750    3.7809
   27.765    3.7072
   27.780    3.9179
   27.795    4.0548
   27.810    3.3807
   27.825    3.4544
   27.840    3.6651
   27.855    3.7493
   27.870    3.8441
   27.885    3.5071
   27.900    3.3913
   27.915    3.6756
   27.930    3.8020
   27.945    3.5492
   27.960    3.6230
   27.975    3.8336
   27.990    3.8652
   28.005    3.6862
   28.020    3.2227
   28.035    3.8125
   28.050    3.4860
   28.065    3.6440
   28.080    3.4334
   28.095    3.7072
   28.110    3.7704
   28.125    3.7177
   28.140    3.5176
   28.155    3.5387
   28.170    3.7704
   28.185    3.5808
   28.200    3.9389
   28.215    3.8652
   28.230    3.8336
   28.245    3.8020
   28.260    3.5598
   28.275    3.7388
   28.290    3.6651
   28.305    3.7599
   28.320    3.4650
   28.335    3.2649
   28.350    3.5914
   28.365    3.7915
   28.380    3.6440
   28.395    3.6862
   28.410    3.5282
   28.425    3.7177
   28.440    3.7388
   28.455    3.3386
   28.470    3.7072
   28.485    3.7177
   28.500    3.7915
   28.515    3.6967
   28.530    3.6440
   28.545    3.4860
   28.560    3.8125
   28.575    3.9389
   28.590    3.5176
   28.605    3.3070
   28.620    3.5282
   28.635    3.4860
   28.650    3.5176
   28.665    3.4334
   28.680    3.5387
   28.695    3.5176
   28.710    3.4544
   28.725    3.3491
   28.740    3.5071
   28.755    3.4860
   28.770    3.8652
   28.785    3.3175
   28.800    3.3386
   28.815    3.3175
   28.830    3.3070
   28.845    3.2017
   28.860    3.4123
   28.875    3.1806
   28.890    3.4334
   28.905    3.5387
   28.920    3.2333
   28.935    3.6019
   28.950    3.3281
   28.965    3.3281
   28.980    3.4018
   28.995    3.6862
   29.010    3.6230
   29.025    3.4334
   29.040    3.5387
   29.055    3.2859
   29.070    3.5282
   29.085    3.2649
   29.100    3.5703
   29.115    3.5703
   29.130    3.2859
   29.145    3.1701
   29.160    3.3913
   29.175    3.2543
   29.190    3.3597
   29.205    3.6230
   29.220    3.5282
   29.235    3.5282
   29.250    3.4755
   29.265    3.2017
   29.280    3.3070
   29.295    3.3175
   29.310    3.3702
   29.325    3.2859
   29.340    3.5176
   29.355    3.0964
   29.370    3.2543
   29.385    3.4334
   29.400    3.5492
   29.415    3.2965
   29.430    3.0016
   29.445    3.4966
   29.460    3.8968
   29.475    3.5914
   29.490    3.4650
   29.505    3.3175
   29.520    3.3913
   29.535    3.4755
   29.550    3.3702
   29.565    3.4650
   29.580    3.2333
   29.595    3.4439
   29.610    3.4018
   29.625    3.3070
   29.640    3.3386
   29.655    3.1912
   29.670    3.3070
   29.685    3.4439
   29.700    3.1174
   29.715    3.3175
   29.730    3.4755
   29.745    3.6440
   29.760    3.4544
   29.775    3.5071
   29.790    3.2333
   29.805    3.1174
   29.820    3.6124
   29.835    3.3807
   29.850    3.7177
   29.865    3.5598
   29.880    3.5598
   29.895    3.2333
   29.910    3.2122
   29.925    3.4123
   29.940    3.2438
   29.955    3.6019
   29.970    3.4755
   29.985    3.2333
   30.000    3.4439
   30.015    3.5176
   30.030    3.4966
   30.045    3.1912
   30.060    3.4229
   30.075    3.3807
   30.090    3.3070
   30.105    3.1596
   30.120    3.2438
   30.135    3.4123
   30.150    3.0121
   30.165    3.2754
   30.180    3.2543
   30.195    3.3386
   30.210    3.4439
   30.225    3.2965
   30.240    3.0964
   30.255    3.3386
   30.270    3.1912
   30.285    3.2017
   30.300    3.3281
   30.315    3.3386
   30.330    3.3070
   30.345    3.6756
   30.360    3.1701
   30.375    3.5703
   30.390    3.4123
   30.405    3.4650
   30.420    3.4966
   30.435    3.2543
   30.450    3.2649
   30.465    3.1385
   30.480    3.5176
   30.495    3.4860
   30.510    3.0964
   30.525    3.2017
   30.540    3.5176
   30.555    3.2543
   30.570    3.1385
   30.585    3.1069
   30.600    3.4334
   30.615    3.2543
   30.630    3.3281
   30.645    3.0648
   30.660    3.3175
   30.675    3.2122
   30.690    3.3913
   30.705    3.3597
   30.720    3.2859
   30.735    3.4860
   30.750    3.3175
   30.765    3.0964
   30.780    3.2543
   30.795    2.9910
   30.810    3.1385
   30.825    3.2438
   30.840    3.5598
   30.855    3.4966
   30.870    3.2122
   30.885    3.2859
   30.900    3.1912
   30.915    3.1912
   30.930    3.1280
   30.945    3.4860
   30.960    3.5387
   30.975    3.2754
   30.990    3.4544
   31.005    3.3913
   31.020    3.4439
   31.035    3.0332
   31.050    3.1912
   31.065    3.4123
   31.080    3.3281
   31.095    3.1806
   31.110    3.1701
   31.125    3.3386
   31.140    3.1174
   31.155    3.3702
   31.170    3.3913
   31.185    3.2122
   31.200    3.0542
   31.215    3.0753
   31.230    2.9173
   31.245    3.2438
   31.260    3.0648
   31.275    3.2017
   31.290    3.1701
   31.305    3.5176
   31.320    3.6335
   31.335    3.3702
   31.350    3.0121
   31.365    3.0016
   31.380    3.3281
   31.395    3.1490
   31.410    3.1701
   31.425    3.4544
   31.440    3.3386
   31.455    3.4123
   31.470    3.3597
   31.485    3.3070
   31.500    3.4544
   31.515    3.3491
   31.530    3.1912
   31.545    3.3175
   31.560    3.3807
   31.575    3.4229
   31.590    3.3702
   31.605    3.6230
   31.620    3.5598
   31.635    3.0648
   31.650    3.2543
   31.665    3.2649
   31.680    3.2122
   31.695    3.2438
   31.710    3.3807
   31.725    3.4334
   31.740    3.2438
   31.755    3.1912
   31.770    3.3070
   31.785    3.3175
   31.800    3.4650
   31.815    3.2859
   31.830    3.2438
   31.845    3.4018
   31.860    3.2122
   31.875    3.0437
   31.890    3.1806
   31.905    3.1174
   31.920    3.2017
   31.935    3.1069
   31.950    2.9805
   31.965    3.1701
   31.980    3.2017
   31.995    3.3702
   32.010    3.1701
   32.025    3.3597
   32.040    3.3913
   32.055    3.1806
   32.070    3.0437
   32.085    3.3702
   32.100    3.0226
   32.115    3.2859
   32.130    3.2227
   32.145    3.2122
   32.160    3.0964
   32.175    3.3597
   32.190    3.2017
   32.205    3.0858
   32.220    3.2227
   32.235    3.1280
   32.250    2.9384
   32.265    3.0542
   32.280    3.0332
   32.295    3.0648
   32.310    3.0542
   32.325    3.2122
   32.340    2.8436
   32.355    2.8752
   32.370    2.9279
   32.385    2.9068
   32.400    3.1069
   32.415    3.3175
   32.430    3.1385
   32.445    3.1912
   32.460    3.1701
   32.475    3.2965
   32.490    3.0121
   32.505    3.1806
   32.520    3.1701
   32.535    2.7909
   32.550    3.0858
   32.565    3.2965
   32.580    3.3281
   32.595    3.4123
   32.610    3.0542
   32.625    2.9595
   32.640    3.0332
   32.655    3.0753
   32.670    3.1385
   32.685    2.9173
   32.700    2.7593
   32.715    2.8331
   32.730    2.6224
   32.745    3.0542
   32.760    3.1069
   32.775    2.8541
   32.790    2.8225
   32.805    2.8647
   32.820    2.8436
   32.835    2.7593
   32.850    2.8857
   32.865    3.0121
   32.880    3.0753
   32.895    3.1596
   32.910    3.1174
   32.925    2.7593
   32.940    2.9489
   32.955    2.9805
   32.970    2.9910
   32.985    3.0332
   33.000    2.9910
   33.015    2.8015
   33.030    3.0858
   33.045    2.8647
   33.060    2.7699
   33.075    2.8857
   33.090    3.0332
   33.105    2.9489
   33.120    2.9805
   33.135    2.7278
   33.150    2.8647
   33.165    2.8225
   33.180    2.8752
   33.195    2.9489
   33.210    2.8857
   33.225    2.7699
   33.240    2.6540
   33.255    2.9910
   33.270    2.9910
   33.285    3.0542
   33.300    2.8331
   33.315    2.7699
   33.330    2.8541
   33.345    2.8331
   33.360    2.9279
   33.375    2.8331
   33.390    2.8225
   33.405    2.8857
   33.420    3.0121
   33.435    2.8120
   33.450    2.9279
   33.465    2.9384
   33.480    2.8120
   33.495    2.8647
   33.510    2.7383
   33.525    2.8541
   33.540    2.7909
   33.555    2.7804
   33.570    2.8963
   33.585    2.8015
   33.600    2.8541
   33.615    2.9805
   33.630    3.1490
   33.645    3.0437
   33.660    2.7699
   33.675    2.8015
   33.690    2.8752
   33.705    2.8647
   33.720    2.9700
   33.735    3.0016
   33.750    2.9173
   33.765    2.7488
   33.780    2.6540
   33.795    2.8225
   33.810    2.9173
   33.825    2.8436
   33.840    2.6540
   33.855    2.7488
   33.870    2.8225
   33.885    2.8541
   33.900    2.8015
   33.915    2.5487
   33.930    2.7804
   33.945    2.7909
   33.960    2.8120
   33.975    2.9173
   33.990    2.9068
   34.005    2.5803
   34.020    2.6751
   34.035    2.5382
   34.050    2.6856
   34.065    3.0542
   34.080    2.9384
   34.095    2.4855
   34.110    2.5592
   34.125    2.6646
   34.140    2.7278
   34.155    2.8541
   34.170    2.8331
   34.185    2.8752
   34.200    2.8857
   34.215    2.7067
   34.230    2.6224
   34.245    2.7067
   34.260    2.6119
   34.275    2.7909
   34.290    2.6856
   34.305    2.5276
   34.320    2.6751
   34.335    2.8331
   34.350    2.8015
   34.365    3.0016
   34.380    2.5803
   34.395    2.9068
   34.410    2.7909
   34.425    2.5592
   34.440    2.5592
   34.455    2.6435
   34.470    2.9279
   34.485    2.7909
   34.500    2.6540
   34.515    2.5592
   34.530    2.6014
   34.545    2.9068
   34.560    2.7067
   34.575    2.4961
   34.590    2.5592
   34.605    2.6856
   34.620    2.5487
   34.635    2.7278
   34.650    2.4855
   34.665    2.9173
   34.680    2.6751
   34.695    2.4855
   34.710    2.4855
   34.725    2.6224
   34.740    2.8120
   34.755    2.6224
   34.770    2.5592
   34.785    2.7172
   34.800    2.4434
   34.815    2.8120
   34.830    2.7909
   34.845    2.3381
   34.860    2.6014
   34.875    2.7488
   34.890    2.7804
   34.905    2.6224
   34.920    2.6751
   34.935    2.8436
   34.950    2.6119
   34.965    2.4539
   34.980    2.5066
   34.995    2.5382
   35.010    2.6435
   35.025    2.7067
   35.040    2.6646
   35.055    2.6014
   35.070    2.6962
   35.085    2.5066
   35.100    2.5382
   35.115    2.4961
   35.130    2.5698
   35.145    2.4645
   35.160    2.6435
   35.175    2.8225
   35.190    2.4329
   35.205    2.4329
   35.220    2.5487
   35.235    2.5592
   35.250    2.7383
   35.265    2.4434
   35.280    2.4855
   35.295    2.2749
   35.310    2.8331
   35.325    2.7383
   35.340    2.3275
   35.355    2.3697
   35.370    2.4223
   35.385    2.5066
   35.400    2.4118
   35.415    2.2854
   35.430    2.3591
   35.445    2.3381
   35.460    2.2433
   35.475    2.3275
   35.490    2.5908
   35.505    2.5698
   35.520    2.5276
   35.535    2.3802
   35.550    2.3697
   35.565    2.9279
   35.580    2.5487
   35.595    2.5276
   35.610    2.4118
   35.625    2.5803
   35.640    2.2959
   35.655    2.5066
   35.670    2.8541
   35.685    2.6646
   35.700    2.5908
   35.715    2.9489
   35.730    2.2854
   35.745    2.2749
   35.760    2.5171
   35.775    2.5698
   35.790    2.6435
   35.805    2.4539
   35.820    2.3065
   35.835    2.4013
   35.850    2.4539
   35.865    2.5487
   35.880    2.4329
   35.895    2.5803
   35.910    2.3591
   35.925    2.3907
   35.940    2.3907
   35.955    2.4118
   35.970    2.2854
   35.985    2.4223
   36.000    2.6119
   36.015    2.6856
   36.030    2.5592
   36.045    2.4013
   36.060    2.6646
   36.075    2.6646
   36.090    2.3486
   36.105    2.4750
   36.120    2.6014
   36.135    2.4013
   36.150    2.1906
   36.165    2.4223
   36.180    2.1169
   36.195    2.5066
   36.210    2.4855
   36.225    2.3381
   36.240    2.5171
   36.255    2.3065
   36.270    2.0853
   36.285    2.4118
   36.300    2.5171
   36.315    2.4118
   36.330    2.5803
   36.345    2.4645
   36.360    2.4750
   36.375    2.3907
   36.390    2.2854
   36.405    2.5487
   36.420    2.5171
   36.435    2.2959
   36.450    2.4434
   36.465    2.7909
   36.480    2.6330
   36.495    2.2012
   36.510    2.2643
   36.525    2.3486
   36.540    2.5066
   36.555    2.4223
   36.570    2.3591
   36.585    2.2854
   36.600    2.2538
   36.615    2.2328
   36.630    2.3907
   36.645    2.4645
   36.660    2.4329
   36.675    2.6962
   36.690    2.4750
   36.705    2.4434
   36.720    2.5276
   36.735    2.6119
   36.750    2.4539
   36.765    2.3697
   36.780    2.1696
   36.795    2.3907
   36.810    2.4539
   36.825    2.5592
   36.840    2.4329
   36.855    2.1380
   36.870    2.5066
   36.885    2.5487
   36.900    2.5592
   36.915    2.5592
   36.930    2.4223
   36.945    2.2959
   36.960    2.2749
   36.975    2.6224
   36.990    2.5487
   37.005    2.5066
   37.020    2.4434
   37.035    2.3275
   37.050    2.1906
   37.065    2.4329
   37.080    2.4118
   37.095    2.2433
   37.110    2.5066
   37.125    2.4118
   37.140    2.5592
   37.155    2.4223
   37.170    2.2328
   37.185    2.4118
   37.200    2.4329
   37.215    2.3697
   37.230    2.2328
   37.245    2.3802
   37.260    2.4645
   37.275    2.2854
   37.290    2.4013
   37.305    2.4013
   37.320    2.3907
   37.335    2.3486
   37.350    2.2012
   37.365    1.9484
   37.380    2.2012
   37.395    2.1801
   37.410    2.4329
   37.425    2.4013
   37.440    2.3170
   37.455    2.2854
   37.470    2.6330
   37.485    2.4223
   37.500    2.1380
   37.515    2.1906
   37.530    2.2117
   37.545    2.3802
   37.560    2.3486
   37.575    2.4118
   37.590    2.4539
   37.605    2.4855
   37.620    2.2538
   37.635    2.2854
   37.650    2.4118
   37.665    2.5382
   37.680    2.3275
   37.695    2.2959
   37.710    2.1906
   37.725    2.1485
   37.740    2.2538
   37.755    2.5276
   37.770    2.1274
   37.785    2.1169
   37.800    2.1485
   37.815    1.9800
   37.830    2.2012
   37.845    2.2538
   37.860    2.1380
   37.875    2.2117
   37.890    2.2643
   37.905    2.2538
   37.920    2.2749
   37.935    2.2854
   37.950    2.3275
   37.965    2.4750
   37.980    2.1380
   37.995    2.1696
   38.010    2.3381
   38.025    2.2538
   38.040    2.3065
   38.055    2.2538
   38.070    2.1274
   38.085    2.0958
   38.100    2.3486
   38.115    2.3907
   38.130    2.3275
   38.145    2.2117
   38.160    2.2222
   38.175    2.2749
   38.190    2.2012
   38.205    2.4329
   38.220    2.3170
   38.235    2.3591
   38.250    2.5276
   38.265    2.2959
   38.280    2.2433
   38.295    2.1485
   38.310    2.2117
   38.325    2.5592
   38.340    2.4750
   38.355    2.2433
   38.370    2.1274
   38.385    2.1380
   38.400    2.1906
   38.415    2.2538
   38.430    2.4434
   38.445    2.3065
   38.460    2.3486
   38.475    2.2643
   38.490    2.3275
   38.505    2.4961
   38.520    2.5698
   38.535    2.0748
   38.550    2.3170
   38.565    2.2959
   38.580    2.2749
   38.595    2.0853
   38.610    2.1801
   38.625    2.0853
   38.640    2.2117
   38.655    2.3381
   38.670    2.2959
   38.685    2.3065
   38.700    2.3275
   38.715    2.2433
   38.730    2.3802
   38.745    2.3275
   38.760    2.3907
   38.775    2.4118
   38.790    2.2538
   38.805    2.1169
   38.820    2.2012
   38.835    2.1590
   38.850    2.2012
   38.865    2.3065
   38.880    2.2538
   38.895    2.2117
   38.910    2.0853
   38.925    2.3697
   38.940    2.1064
   38.955    2.1696
   38.970    2.1590
   38.985    2.2538
   39.000    2.1169
   39.015    2.2117
   39.030    2.2433
   39.045    2.2328
   39.060    2.1906
   39.075    2.3065
   39.090    2.2117
   39.105    2.2222
   39.120    2.2222
   39.135    2.3170
   39.150    2.4013
   39.165    2.1485
   39.180    2.1169
   39.195    2.4118
   39.210    2.2538
   39.225    2.1380
   39.240    2.4645
   39.255    2.3591
   39.270    2.2222
   39.285    2.4223
   39.300    2.5066
   39.315    2.3802
   39.330    2.3486
   39.345    2.4118
   39.360    2.2749
   39.375    2.1380
   39.390    2.3170
   39.405    2.2117
   39.420    2.3697
   39.435    2.0748
   39.450    2.1064
   39.465    2.2328
   39.480    2.4961
   39.495    2.5592
   39.510    2.3907
   39.525    2.3170
   39.540    2.2328
   39.555    2.0642
   39.570    2.3381
   39.585    2.1801
   39.600    2.3697
   39.615    2.6014
   39.630    2.1801
   39.645    2.2749
   39.660    2.2117
   39.675    1.9168
   39.690    2.1590
   39.705    2.2749
   39.720    2.0853
   39.735    2.1590
   39.750    2.2749
   39.765    2.3275
   39.780    2.2643
   39.795    2.2433
   39.810    2.0853
   39.825    2.1274
   39.840    2.4329
   39.855    2.1906
   39.870    2.0116
   39.885    2.3907
   39.900    2.3907
   39.915    2.1169
   39.930    2.1590
   39.945    2.2117
   39.960    2.2749
   39.975    2.1169
   39.990    1.9905
