    1.500   17.3986
    1.515   17.6725
    1.530   17.1248
    1.545   16.7773
    1.560   16.8404
    1.575   15.9663
    1.590   16.1769
    1.605   15.6714
    1.620   15.1869
    1.635   14.8815
    1.650   14.8078
    1.665   14.2812
    1.680   13.8494
    1.695   14.0495
    1.710   13.3544
    1.725   13.3439
    1.740   13.2280
    1.755   12.6804
    1.770   12.5329
    1.785   12.6698
    1.800   12.5434
    1.815   11.9431
    1.830   12.0695
    1.845   11.7957
    1.860   11.8483
    1.875   11.3533
    1.890   10.8794
    1.905   11.2164
    1.920   10.7425
    1.935   10.8057
    1.950   11.0900
    1.965   10.8583
    1.980   10.7425
    1.995   10.4581
    2.010   10.5740
    2.025   10.2159
    2.040   10.0369
    2.055   10.4160
    2.070    9.8578
    2.085    9.7104
    2.100    9.8894
    2.115    9.4471
    2.130    9.6788
    2.145    9.4681
    2.160    8.5203
    2.175    8.6467
    2.190    9.1101
    2.205    9.1838
    2.220    8.7204
    2.235    9.0469
    2.250    8.5940
    2.265    9.0047
    2.280    9.0469
    2.295    8.8994
    2.310    8.9521
    2.325    8.7098
    2.340    8.4360
    2.355    8.1622
    2.370    8.4360
    2.385    8.4992
    2.400    8.1201
    2.415    8.1833
    2.430    8.4255
    2.445    8.4992
    2.460    7.8989
    2.475    8.2675
    2.490    8.2359
    2.505    8.1095
    2.520    8.7730
    2.535    8.2570
    2.550    7.9726
    2.565    8.1411
    2.580    8.2149
    2.595    7.6356
    2.610    7.8357
    2.625    7.6356
    2.640    7.8884
    2.655    7.8778
    2.670    8.0885
    2.685    7.8884
    2.700    8.2359
    2.715    8.0463
    2.730    8.4466
    2.745    8.4676
    2.760    8.1306
    2.775    7.9200
    2.790    8.2464
    2.805    8.5097
    2.820    8.3834
    2.835    8.2675
    2.850    8.1306
    2.865    8.1411
    2.880    8.6045
    2.895    8.8889
    2.910    8.5729
    2.925    8.8889
    2.940    8.6151
    2.955    8.8889
    2.970    8.8889
    2.985    9.1838
    3.000    9.4471
    3.015    9.1206
    3.030    8.8573
    3.045    9.7314
    3.060    9.2048
    3.075    9.0785
    3.090    9.8999
    3.105    9.6156
    3.120   10.3528
    3.135   10.1738
    3.150    9.8368
    3.165    9.9842
    3.180   10.9847
    3.195   10.3949
    3.210   11.3428
    3.225   11.8589
    3.240   12.0169
    3.255   11.6693
    3.270   11.5745
    3.285   12.0379
    3.300   12.6277
    3.315   12.6172
    3.330   13.0384
    3.345   13.4492
    3.360   14.2391
    3.375   14.5234
    3.390   14.8078
    3.405   14.8920
    3.420   16.0611
    3.435   16.2717
    3.450   16.7983
    3.465   16.7246
    3.480   17.2196
    3.495   17.8726
    3.510   18.2728
    3.525   18.1569
    3.540   18.3992
    3.555   18.3886
    3.570   18.3886
    3.585   18.0832
    3.600   18.0832
    3.615   18.2306
    3.630   18.2201
    3.645   17.7672
    3.660   17.6303
    3.675   17.2196
    3.690   16.7983
    3.705   16.7667
    3.720   16.1980
    3.735   16.0400
    3.750   15.4924
    3.765   15.1343
    3.780   14.7657
    3.795   14.1654
    3.810   14.4286
    3.825   13.4176
    3.840   13.2807
    3.855   12.4803
    3.870   12.3433
    3.885   11.9958
    3.900   11.5640
    3.915   11.6272
    3.930   11.4271
    3.945   11.0900
    3.960   10.5319
    3.975   10.5108
    3.990   10.0579
    4.005    9.6261
    4.020    9.5524
    4.035    9.4155
    4.050    9.4050
    4.065    9.0153
    4.080    8.7520
    4.095    8.9415
    4.110    8.4676
    4.125    8.6256
    4.140    8.2675
    4.155    8.4466
    4.170    8.5519
    4.185    8.2359
    4.200    7.6988
    4.215    7.7199
    4.230    7.8778
    4.245    7.6356
    4.260    7.4987
    4.275    7.2459
    4.290    7.3302
    4.305    7.1090
    4.320    7.4776
    4.335    7.2565
    4.350    7.3196
    4.365    7.4355
    4.380    7.4882
    4.395    6.8668
    4.410    7.2038
    4.425    7.2354
    4.440    7.3407
    4.455    7.3091
    4.470    7.0669
    4.485    6.9405
    4.500    7.1827
    4.515    7.2670
    4.530    6.7930
    4.545    7.1722
    4.560    6.8773
    4.575    6.9089
    4.590    6.9194
    4.605    6.9300
    4.620    6.7930
    4.635    6.7404
    4.650    6.7299
    4.665    7.0248
    4.680    7.0037
    4.695    7.1722
    4.710    6.8984
    4.725    6.5929
    4.740    7.0458
    4.755    6.5403
    4.770    6.5508
    4.785    6.8773
    4.800    6.6456
    4.815    6.3718
    4.830    6.3296
    4.845    6.8773
    4.860    6.5087
    4.875    6.5087
    4.890    6.2981
    4.905    6.8457
    4.920    6.7509
    4.935    6.9932
    4.950    6.9089
    4.965    6.6877
    4.980    6.6140
    4.995    6.8668
    5.010    6.9194
    5.025    6.4666
    5.040    6.1717
    5.055    6.8457
    5.070    6.8457
    5.085    6.8984
    5.100    6.9510
    5.115    6.6983
    5.130    6.8246
    5.145    6.4560
    5.160    6.8246
    5.175    6.4244
    5.190    6.6140
    5.205    6.7615
    5.220    6.4350
    5.235    6.1401
    5.250    6.0769
    5.265    6.1927
    5.280    6.5719
    5.295    6.7509
    5.310    6.3507
    5.325    6.2981
    5.340    6.5403
    5.355    6.3823
    5.370    6.1295
    5.385    6.5403
    5.400    6.5719
    5.415    6.0664
    5.430    6.3928
    5.445    6.5824
    5.460    6.6877
    5.475    6.0979
    5.490    6.0348
    5.505    6.1190
    5.520    6.1190
    5.535    6.4666
    5.550    6.2349
    5.565    6.4350
    5.580    6.1927
    5.595    6.0558
    5.610    6.3296
    5.625    6.3191
    5.640    5.9400
    5.655    6.6667
    5.670    5.8978
    5.685    5.6345
    5.700    6.0032
    5.715    5.6872
    5.730    5.9084
    5.745    5.7925
    5.760    5.9610
    5.775    5.6029
    5.790    5.2870
    5.805    5.6556
    5.820    5.4766
    5.835    5.7925
    5.850    5.7820
    5.865    5.8452
    5.880    5.7083
    5.895    5.9294
    5.910    5.4976
    5.925    5.3923
    5.940    5.4660
    5.955    5.3712
    5.970    5.3818
    5.985    5.4028
    6.000    5.2343
    6.015    5.2659
    6.030    5.2238
    6.045    5.3607
    6.060    5.2554
    6.075    5.3923
    6.090    5.3397
    6.105    5.4344
    6.120    5.3291
    6.135    5.3607
    6.150    5.3818
    6.165    5.3291
    6.180    5.5292
    6.195    5.5082
    6.210    5.3607
    6.225    5.1711
    6.240    5.1922
    6.255    5.0764
    6.270    5.0342
    6.285    5.0658
    6.300    4.6656
    6.315    4.8763
    6.330    5.1185
    6.345    5.0026
    6.360    4.8552
    6.375    5.0764
    6.390    4.9500
    6.405    4.7288
    6.420    5.2343
    6.435    5.1185
    6.450    4.8552
    6.465    4.6761
    6.480    4.8868
    6.495    4.9184
    6.510    4.9921
    6.525    4.8131
    6.540    4.9710
    6.555    5.2343
    6.570    5.0342
    6.585    4.8657
    6.600    5.2343
    6.615    5.2343
    6.630    4.9394
    6.645    4.9394
    6.660    4.8236
    6.675    5.3186
    6.690    5.1185
    6.705    5.1395
    6.720    5.1501
    6.735    4.9394
    6.750    5.0869
    6.765    5.1606
    6.780    5.1501
    6.795    5.2765
    6.810    5.1606
    6.825    5.4450
    6.840    5.5608
    6.855    5.3502
    6.870    5.3923
    6.885    5.2133
    6.900    5.4660
    6.915    5.7399
    6.930    5.5819
    6.945    5.9400
    6.960    5.7715
    6.975    5.7399
    6.990    6.2665
    7.005    5.6977
    7.020    5.8873
    7.035    6.1085
    7.050    5.8662
    7.065    6.0348
    7.080    5.8452
    7.095    5.9505
    7.110    6.4244
    7.125    6.1822
    7.140    6.4560
    7.155    6.0242
    7.170    6.2138
    7.185    6.4350
    7.200    6.6351
    7.215    6.0558
    7.230    6.2770
    7.245    6.3086
    7.260    5.8662
    7.275    5.6767
    7.290    5.8768
    7.305    6.0664
    7.320    6.3296
    7.335    6.1085
    7.350    5.9189
    7.365    5.9505
    7.380    5.9505
    7.395    5.7609
    7.410    5.4871
    7.425    5.5819
    7.440    5.7715
    7.455    5.4555
    7.470    5.4766
    7.485    5.3607
    7.500    5.4344
    7.515    5.2238
    7.530    5.2554
    7.545    5.2343
    7.560    4.9184
    7.575    5.2765
    7.590    5.5608
    7.605    4.9500
    7.620    4.8236
    7.635    5.2765
    7.650    5.1185
    7.665    5.0658
    7.680    4.9500
    7.695    4.6656
    7.710    4.7920
    7.725    4.8973
    7.740    4.6656
    7.755    4.8763
    7.770    4.4023
    7.785    4.1285
    7.800    4.5603
    7.815    4.5287
    7.830    4.1917
    7.845    4.8447
    7.860    4.5287
    7.875    4.7499
    7.890    4.9605
    7.905    4.5498
    7.920    4.5392
    7.935    4.3286
    7.950    4.4234
    7.965    4.3813
    7.980    4.4550
    7.995    4.6340
    8.010    4.5498
    8.025    4.1706
    8.040    4.3602
    8.055    4.6130
    8.070    4.6024
    8.085    4.4866
    8.100    4.2233
    8.115    4.4971
    8.130    4.1601
    8.145    3.8441
    8.160    4.0864
    8.175    4.0232
    8.190    4.1074
    8.205    3.8757
    8.220    4.0021
    8.235    4.3181
    8.250    4.4339
    8.265    4.1496
    8.280    4.3075
    8.295    4.2233
    8.310    4.0021
    8.325    3.8863
    8.340    4.0232
    8.355    3.8231
    8.370    4.2022
    8.385    4.1390
    8.400    3.7915
    8.415    4.2759
    8.430    4.0021
    8.445    3.7388
    8.460    3.5598
    8.475    3.6651
    8.490    3.4755
    8.505    3.7283
    8.520    3.8336
    8.535    3.5914
    8.550    3.7915
    8.565    3.9284
    8.580    3.8547
    8.595    3.8968
    8.610    4.1390
    8.625    4.0232
    8.640    3.9073
    8.655    3.7388
    8.670    3.6651
    8.685    3.6967
    8.700    3.5071
    8.715    3.8757
    8.730    4.0126
    8.745    3.6335
    8.760    3.6230
    8.775    3.6651
    8.790    4.1390
    8.805    3.8125
    8.820    3.8968
    8.835    3.8125
    8.850    3.8547
    8.865    3.8441
    8.880    3.7388
    8.895    3.7388
    8.910    3.8652
    8.925    3.5387
    8.940    3.3175
    8.955    3.6546
    8.970    3.6546
    8.985    3.6967
    9.000    3.7177
    9.015    3.9810
    9.030    3.7388
    9.045    3.7809
    9.060    3.8231
    9.075    3.6967
    9.090    3.5808
    9.105    3.7177
    9.120    3.6651
    9.135    4.0969
    9.150    3.6440
    9.165    3.4334
    9.180    3.5387
    9.195    3.7177
    9.210    3.7809
    9.225    3.9284
    9.240    3.4544
    9.255    3.4439
    9.270    3.8652
    9.285    3.6862
    9.300    4.0232
    9.315    3.6546
    9.330    3.6124
    9.345    3.8125
    9.360    3.6546
    9.375    3.7388
    9.390    3.8547
    9.405    3.5703
    9.420    3.3913
    9.435    3.4966
    9.450    3.5387
    9.465    3.6967
    9.480    3.4755
    9.495    3.6335
    9.510    3.6019
    9.525    3.5598
    9.540    3.4229
    9.555    3.6440
    9.570    3.8020
    9.585    3.5598
    9.600    3.7704
    9.615    3.6440
    9.630    3.2965
    9.645    3.6019
    9.660    3.6651
    9.675    3.6440
    9.690    3.2859
    9.705    3.5598
    9.720    3.6546
    9.735    3.4018
    9.750    3.6546
    9.765    3.4755
    9.780    3.6967
    9.795    3.4334
    9.810    3.3597
    9.825    3.4334
    9.840    3.2859
    9.855    3.5176
    9.870    3.4439
    9.885    3.6230
    9.900    3.6335
    9.915    3.5282
    9.930    3.3386
    9.945    3.6546
    9.960    3.4334
    9.975    3.3281
    9.990    3.5808
   10.005    3.5703
   10.020    3.5598
   10.035    3.6440
   10.050    3.7283
   10.065    3.6756
   10.080    3.6335
   10.095    3.3386
   10.110    3.5808
   10.125    3.6335
   10.140    3.6440
   10.155    3.7493
   10.170    3.6124
   10.185    3.7915
   10.200    3.6862
   10.215    3.5282
   10.230    3.5492
   10.245    3.3175
   10.260    3.3175
   10.275    3.3070
   10.290    3.3070
   10.305    3.3281
   10.320    3.5598
   10.335    3.6230
   10.350    3.5598
   10.365    3.6335
   10.380    3.5808
   10.395    3.5914
   10.410    3.6862
   10.425    3.6546
   10.440    3.9389
   10.455    3.7177
   10.470    3.6546
   10.485    3.5492
   10.500    3.4123
   10.515    3.6230
   10.530    3.7915
   10.545    3.8336
   10.560    3.4860
   10.575    3.6440
   10.590    3.7599
   10.605    3.4650
   10.620    3.4334
   10.635    3.5914
   10.650    3.4334
   10.665    3.5282
   10.680    3.6756
   10.695    3.8757
   10.710    3.7809
   10.725    3.8757
   10.740    3.6862
   10.755    3.6124
   10.770    3.7915
   10.785    3.6862
   10.800    3.7388
   10.815    3.8547
   10.830    3.6651
   10.845    3.4650
   10.860    3.5808
   10.875    3.8231
   10.890    3.7915
   10.905    3.7809
   10.920    3.8968
   10.935    3.8863
   10.950    3.5914
   10.965    3.5703
   10.980    3.6440
   10.995    3.7915
   11.010    3.7809
   11.025    3.7704
   11.040    3.5387
   11.055    3.7599
   11.070    3.6862
   11.085    3.7915
   11.100    3.7599
   11.115    3.6651
   11.130    3.7177
   11.145    3.8863
   11.160    3.7493
   11.175    3.4755
   11.190    3.3281
   11.205    3.5492
   11.220    3.8547
   11.235    3.8863
   11.250    3.6862
   11.265    3.7599
   11.280    3.5914
   11.295    3.6967
   11.310    3.7599
   11.325    3.5071
   11.340    3.6124
   11.355    3.4439
   11.370    3.7915
   11.385    3.9179
   11.400    4.0126
   11.415    3.8125
   11.430    3.6546
   11.445    3.9389
   11.460    3.6335
   11.475    3.3807
   11.490    3.4650
   11.505    3.6967
   11.520    3.6862
   11.535    3.6230
   11.550    3.6019
   11.565    3.5387
   11.580    3.6230
   11.595    3.6440
   11.610    3.4860
   11.625    3.4650
   11.640    3.7493
   11.655    3.7915
   11.670    3.7809
   11.685    3.5071
   11.700    3.8020
   11.715    3.9600
   11.730    3.9284
   11.745    3.9073
   11.760    3.5808
   11.775    3.8125
   11.790    3.8231
   11.805    3.6440
   11.820    3.5703
   11.835    3.6756
   11.850    3.5703
   11.865    3.4334
   11.880    3.3807
   11.895    3.3913
   11.910    3.6019
   11.925    3.5492
   11.940    3.6440
   11.955    3.6440
   11.970    3.7388
   11.985    3.6651
   12.000    3.4334
   12.015    3.7915
   12.030    3.4229
   12.045    3.5598
   12.060    3.5808
   12.075    3.6651
   12.090    3.7809
   12.105    3.5914
   12.120    3.4966
   12.135    3.6862
   12.150    3.5176
   12.165    3.7072
   12.180    3.6019
   12.195    3.6756
   12.210    3.7388
   12.225    3.7388
   12.240    3.6440
   12.255    3.3070
   12.270    3.6230
   12.285    3.8336
   12.300    3.3175
   12.315    3.5914
   12.330    3.6651
   12.345    3.2754
   12.360    3.7493
   12.375    3.6756
   12.390    3.5176
   12.405    3.4229
   12.420    3.3807
   12.435    3.3597
   12.450    3.3386
   12.465    3.4650
   12.480    3.6335
   12.495    3.4860
   12.510    3.7388
   12.525    3.6546
   12.540    3.3807
   12.555    3.5703
   12.570    3.6967
   12.585    3.8231
   12.600    3.6756
   12.615    3.7283
   12.630    3.8757
   12.645    3.5282
   12.660    3.7177
   12.675    3.8020
   12.690    3.6756
   12.705    3.4860
   12.720    3.6440
   12.735    3.8020
   12.750    3.4966
   12.765    3.6335
   12.780    3.6335
   12.795    3.4860
   12.810    3.4966
   12.825    3.2859
   12.840    3.5071
   12.855    3.7177
   12.870    3.7493
   12.885    3.6440
   12.900    3.4544
   12.915    3.5071
   12.930    3.3913
   12.945    3.4650
   12.960    3.3807
   12.975    3.3913
   12.990    3.4650
   13.005    3.2227
   13.020    3.3281
   13.035    3.5071
   13.050    3.4334
   13.065    3.3491
   13.080    3.3597
   13.095    3.1280
   13.110    3.4334
   13.125    3.4544
   13.140    3.7177
   13.155    3.3175
   13.170    3.4860
   13.185    3.7072
   13.200    3.6124
   13.215    3.1701
   13.230    3.2227
   13.245    3.2859
   13.260    3.5282
   13.275    3.4860
   13.290    3.1280
   13.305    3.4123
   13.320    3.4123
   13.335    3.4860
   13.350    3.8125
   13.365    3.6862
   13.380    3.4755
   13.395    3.6230
   13.410    3.6546
   13.425    3.4123
   13.440    3.4229
   13.455    3.4439
   13.470    3.5703
   13.485    3.5703
   13.500    3.5176
   13.515    3.5282
   13.530    3.4229
   13.545    3.4544
   13.560    3.6230
   13.575    3.7809
   13.590    3.6440
   13.605    3.6124
   13.620    3.5703
   13.635    3.4018
   13.650    3.5282
   13.665    3.4544
   13.680    3.2965
   13.695    3.3702
   13.710    3.1385
   13.725    3.5282
   13.740    3.4229
   13.755    3.4650
   13.770    3.6440
   13.785    3.5808
   13.800    3.5071
   13.815    3.6019
   13.830    3.8231
   13.845    3.7388
   13.860    3.4966
   13.875    3.4755
   13.890    3.6230
   13.905    3.5914
   13.920    3.2754
   13.935    3.4544
   13.950    3.6335
   13.965    3.0964
   13.980    3.4018
   13.995    3.3070
   14.010    3.3281
   14.025    3.6124
   14.040    3.5282
   14.055    3.5176
   14.070    3.4860
   14.085    3.7599
   14.100    3.5914
   14.115    3.6440
   14.130    3.6124
   14.145    3.7283
   14.160    3.6019
   14.175    3.7599
   14.190    3.6862
   14.205    3.4439
   14.220    3.3913
   14.235    3.7388
   14.250    3.8863
   14.265    3.9284
   14.280    3.5703
   14.295    3.4439
   14.310    3.6230
   14.325    3.4966
   14.340    3.9284
   14.355    3.8757
   14.370    3.4860
   14.385    3.6546
   14.400    3.5176
   14.415    3.7072
   14.430    3.5071
   14.445    3.6546
   14.460    3.2438
   14.475    3.4334
   14.490    3.6019
   14.505    3.7809
   14.520    3.4544
   14.535    3.7283
   14.550    3.4860
   14.565    3.5387
   14.580    3.4966
   14.595    3.3281
   14.610    3.8020
   14.625    3.8231
   14.640    3.6967
   14.655    3.4018
   14.670    3.3175
   14.685    3.5598
   14.700    3.7388
   14.715    3.5598
   14.730    3.4229
   14.745    3.6335
   14.760    3.3807
   14.775    3.5492
   14.790    3.6019
   14.805    3.6756
   14.820    3.8863
   14.835    3.6862
   14.850    3.8547
   14.865    3.5598
   14.880    3.4229
   14.895    3.5387
   14.910    3.5598
   14.925    3.6862
   14.940    3.5703
   14.955    3.5598
   14.970    3.5914
   14.985    3.6862
   15.000    3.3702
   15.015    3.4966
   15.030    3.6756
   15.045    3.5598
   15.060    3.5808
   15.075    3.2859
   15.090    3.7599
   15.105    3.5703
   15.120    3.6019
   15.135    3.4123
   15.150    3.6440
   15.165    3.5703
   15.180    3.5914
   15.195    3.4966
   15.210    3.6019
   15.225    3.6862
   15.240    3.5282
   15.255    3.8547
   15.270    3.6230
   15.285    3.4755
   15.300    3.5914
   15.315    3.4650
   15.330    3.5176
   15.345    3.6440
   15.360    3.5492
   15.375    3.5492
   15.390    3.6967
   15.405    3.6756
   15.420    3.3070
   15.435    3.3491
   15.450    3.6756
   15.465    3.4544
   15.480    3.5071
   15.495    3.3913
   15.510    3.4544
   15.525    3.5808
   15.540    3.5808
   15.555    3.4439
   15.570    3.4755
   15.585    3.6862
   15.600    3.6230
   15.615    3.6019
   15.630    3.5071
   15.645    3.4650
   15.660    3.4018
   15.675    3.4755
   15.690    3.7388
   15.705    3.6967
   15.720    3.8547
   15.735    3.5808
   15.750    3.6335
   15.765    3.6546
   15.780    4.0021
   15.795    3.8863
   15.810    3.4439
   15.825    3.5176
   15.840    3.9600
   15.855    3.7915
   15.870    3.5387
   15.885    3.5598
   15.900    3.8652
   15.915    3.6546
   15.930    3.8652
   15.945    3.7493
   15.960    3.5808
   15.975    3.8547
   15.990    3.8441
   16.005    3.9810
   16.020    3.9494
   16.035    3.7704
   16.050    3.8547
   16.065    3.7915
   16.080    3.8336
   16.095    3.7704
   16.110    3.5492
   16.125    3.4544
   16.140    3.7072
   16.155    3.8231
   16.170    3.7704
   16.185    3.6546
   16.200    3.8020
   16.215    3.6124
   16.230    3.8652
   16.245    3.8863
   16.260    3.8968
   16.275    3.9810
   16.290    4.0126
   16.305    3.8231
   16.320    3.9600
   16.335    3.7704
   16.350    3.6124
   16.365    3.6967
   16.380    3.8125
   16.395    3.8441
   16.410    3.6019
   16.425    3.6967
   16.440    3.6862
   16.455    3.9389
   16.470    3.4018
   16.485    3.5914
   16.500    3.5492
   16.515    3.6967
   16.530    3.8125
   16.545    3.6967
   16.560    3.7388
   16.575    3.7493
   16.590    3.6440
   16.605    3.5176
   16.620    3.6440
   16.635    3.6124
   16.650    3.3913
   16.665    3.7704
   16.680    3.8125
   16.695    3.5387
   16.710    3.3913
   16.725    3.6440
   16.740    3.8125
   16.755    3.4966
   16.770    3.6335
   16.785    3.4123
   16.800    3.5387
   16.815    3.7809
   16.830    3.7599
   16.845    3.6124
   16.860    3.5914
   16.875    3.7599
   16.890    3.6546
   16.905    3.4334
   16.920    3.4334
   16.935    3.8231
   16.950    3.6651
   16.965    3.3807
   16.980    3.7599
   16.995    3.9389
   17.010    3.6756
   17.025    3.5071
   17.040    3.7283
   17.055    3.8020
   17.070    3.8231
   17.085    3.9284
   17.100    3.5914
   17.115    3.4123
   17.130    3.8336
   17.145    3.6862
   17.160    3.5387
   17.175    3.6124
   17.190    3.7283
   17.205    3.6124
   17.220    3.7809
   17.235    3.7177
   17.250    3.8652
   17.265    4.0126
   17.280    3.4544
   17.295    3.6335
   17.310    3.8547
   17.325    3.7599
   17.340    3.6651
   17.355    3.8020
   17.370    3.8652
   17.385    3.8757
   17.400    3.9916
   17.415    3.7809
   17.430    3.4966
   17.445    3.9705
   17.460    3.7177
   17.475    3.7599
   17.490    3.6124
   17.505    3.6756
   17.520    3.9600
   17.535    3.7177
   17.550    3.6967
   17.565    3.7599
   17.580    3.8863
   17.595    3.9179
   17.610    4.0864
   17.625    3.7704
   17.640    3.9916
   17.655    3.9389
   17.670    3.9705
   17.685    3.8020
   17.700    4.0337
   17.715    4.0337
   17.730    4.0021
   17.745    3.7493
   17.760    4.1285
   17.775    4.1496
   17.790    4.0548
   17.805    4.0548
   17.820    3.8231
   17.835    4.2338
   17.850    4.0653
   17.865    4.1390
   17.880    4.3602
   17.895    4.1285
   17.910    4.4444
   17.925    3.8968
   17.940    4.0337
   17.955    4.0442
   17.970    4.1180
   17.985    4.2022
   18.000    4.1917
   18.015    3.9810
   18.030    4.1074
   18.045    4.0969
   18.060    3.9494
   18.075    4.2759
   18.090    4.3391
   18.105    4.0021
   18.120    4.0969
   18.135    3.9600
   18.150    3.9916
   18.165    4.2338
   18.180    4.1285
   18.195    4.2970
   18.210    4.0126
   18.225    4.4444
   18.240    4.2759
   18.255    3.8757
   18.270    4.1285
   18.285    4.3286
   18.300    4.1285
   18.315    4.2865
   18.330    4.3286
   18.345    4.2338
   18.360    4.3181
   18.375    4.4550
   18.390    4.0442
   18.405    4.3075
   18.420    4.2759
   18.435    4.2338
   18.450    4.0548
   18.465    4.0126
   18.480    4.6235
   18.495    4.1917
   18.510    4.2127
   18.525    4.2865
   18.540    4.2233
   18.555    4.4128
   18.570    3.7599
   18.585    3.9600
   18.600    4.1917
   18.615    4.2338
   18.630    4.6024
   18.645    4.6024
   18.660    4.4444
   18.675    4.1706
   18.690    4.2654
   18.705    4.2338
   18.720    4.0758
   18.735    4.1601
   18.750    4.0864
   18.765    4.2865
   18.780    4.3707
   18.795    4.1917
   18.810    4.1074
   18.825    4.0442
   18.840    4.1390
   18.855    4.2022
   18.870    4.0442
   18.885    4.2759
   18.900    4.2443
   18.915    4.5076
   18.930    4.1390
   18.945    3.9494
   18.960    4.4339
   18.975    4.1601
   18.990    3.9284
   19.005    4.4866
   19.020    4.5392
   19.035    4.0548
   19.050    4.3707
   19.065    4.4128
   19.080    4.1811
   19.095    4.0758
   19.110    4.0864
   19.125    4.6130
   19.140    4.2127
   19.155    4.1496
   19.170    4.2022
   19.185    4.0021
   19.200    4.2233
   19.215    4.0442
   19.230    4.1180
   19.245    4.1811
   19.260    4.0232
   19.275    4.1180
   19.290    4.2022
   19.305    4.5603
   19.320    4.0653
   19.335    4.0337
   19.350    4.1180
   19.365    3.8441
   19.380    4.0337
   19.395    4.3918
   19.410    4.0758
   19.425    4.2759
   19.440    4.2443
   19.455    3.8968
   19.470    4.1706
   19.485    4.1917
   19.500    4.1180
   19.515    4.0126
   19.530    3.9600
   19.545    4.1074
   19.560    4.1601
   19.575    4.0969
   19.590    4.1074
   19.605    3.9705
   19.620    4.0232
   19.635    3.8757
   19.650    3.7283
   19.665    3.9810
   19.680    4.0864
   19.695    4.3286
   19.710    4.3181
   19.725    3.9705
   19.740    3.9073
   19.755    4.0021
   19.770    4.1390
   19.785    3.9600
   19.800    3.8020
   19.815    3.9600
   19.830    4.1706
   19.845    3.9810
   19.860    4.0969
   19.875    4.0864
   19.890    4.3075
   19.905    4.1811
   19.920    3.8125
   19.935    4.0653
   19.950    3.6651
   19.965    4.1390
   19.980    4.1601
   19.995    4.0653
   20.010    3.9494
   20.025    3.7177
   20.040    3.6546
   20.055    3.7915
   20.070    4.2549
   20.085    3.8547
   20.100    4.2022
   20.115    4.0653
   20.130    4.2549
   20.145    4.1180
   20.160    3.9389
   20.175    4.0021
   20.190    3.9705
   20.205    4.0126
   20.220    4.1074
   20.235    3.9389
   20.250    4.1601
   20.265    4.2759
   20.280    4.4234
   20.295    3.9705
   20.310    4.1917
   20.325    4.1390
   20.340    4.1074
   20.355    4.1917
   20.370    4.0548
   20.385    4.1285
   20.400    4.1811
   20.415    3.7493
   20.430    3.9179
   20.445    4.1811
   20.460    4.1917
   20.475    4.1496
   20.490    3.9705
   20.505    3.9916
   20.520    3.9494
   20.535    4.0653
   20.550    4.0864
   20.565    4.1074
   20.580    3.8757
   20.595    3.7915
   20.610    4.0653
   20.625    3.8020
   20.640    3.9705
   20.655    3.9916
   20.670    3.7493
   20.685    4.3391
   20.700    3.9600
   20.715    4.0232
   20.730    3.9600
   20.745    4.0337
   20.760    3.9705
   20.775    4.1496
   20.790    4.1601
   20.805    4.1706
   20.820    4.0969
   20.835    4.2233
   20.850    4.0758
   20.865    4.0021
   20.880    4.0232
   20.895    3.7177
   20.910    4.0969
   20.925    4.1601
   20.940    4.1074
   20.955    3.9494
   20.970    4.1390
   20.985    3.8863
   21.000    4.0232
   21.015    4.3286
   21.030    4.1074
   21.045    4.0758
   21.060    3.9073
   21.075    3.8863
   21.090    4.1180
   21.105    4.2022
   21.120    4.0969
   21.135    4.1390
   21.150    4.1811
   21.165    4.1706
   21.180    4.0758
   21.195    4.1074
   21.210    4.1390
   21.225    3.9600
   21.240    4.1601
   21.255    4.1917
   21.270    4.4234
   21.285    3.9600
   21.300    4.2233
   21.315    4.4655
   21.330    4.0442
   21.345    4.0232
   21.360    4.0126
   21.375    4.0758
   21.390    4.0653
   21.405    4.0126
   21.420    4.0232
   21.435    3.8652
   21.450    4.1496
   21.465    4.3497
   21.480    4.0126
   21.495    4.0232
   21.510    4.0126
   21.525    3.9284
   21.540    3.9389
   21.555    4.3391
   21.570    4.3813
   21.585    3.9389
   21.600    4.0758
   21.615    4.0126
   21.630    4.1285
   21.645    3.9494
   21.660    3.7809
   21.675    3.9705
   21.690    3.9284
   21.705    4.0126
   21.720    4.1706
   21.735    4.3813
   21.750    4.2970
   21.765    4.2443
   21.780    3.9916
   21.795    4.0758
   21.810    4.3602
   21.825    4.2338
   21.840    3.9916
   21.855    3.7915
   21.870    4.3391
   21.885    4.1390
   21.900    4.2022
   21.915    4.3075
   21.930    4.0126
   21.945    3.8652
   21.960    4.0548
   21.975    3.7388
   21.990    4.2865
   22.005    4.2654
   22.020    4.1917
   22.035    3.9705
   22.050    4.1180
   22.065    3.9600
   22.080    4.2970
   22.095    3.9600
   22.110    4.1285
   22.125    4.0126
   22.140    4.3707
   22.155    4.2549
   22.170    4.2549
   22.185    4.1811
   22.200    3.9600
   22.215    4.0126
   22.230    4.1601
   22.245    4.0232
   22.260    4.1811
   22.275    4.2338
   22.290    4.2654
   22.305    4.1180
   22.320    4.0969
   22.335    4.0864
   22.350    3.8231
   22.365    4.2654
   22.380    4.3918
   22.395    4.1706
   22.410    4.2549
   22.425    4.1074
   22.440    4.0864
   22.455    3.9810
   22.470    3.9600
   22.485    3.8968
   22.500    4.0864
   22.515    4.2127
   22.530    4.0653
   22.545    3.9810
   22.560    4.0758
   22.575    4.2022
   22.590    3.9073
   22.605    3.7072
   22.620    3.8547
   22.635    3.7599
   22.650    3.7915
   22.665    4.0337
   22.680    3.9810
   22.695    3.9705
   22.710    3.9705
   22.725    3.9916
   22.740    3.7493
   22.755    4.1601
   22.770    4.1811
   22.785    4.0969
   22.800    4.2338
   22.815    4.1917
   22.830    4.0758
   22.845    3.9179
   22.860    3.8441
   22.875    4.2338
   22.890    4.2654
   22.905    4.2127
   22.920    3.9600
   22.935    3.8968
   22.950    3.9284
   22.965    4.0337
   22.980    3.9073
   22.995    3.7704
   23.010    4.0758
   23.025    3.8020
   23.040    3.7388
   23.055    3.8547
   23.070    3.9179
   23.085    4.1496
   23.100    3.6230
   23.115    4.2022
   23.130    4.0126
   23.145    4.0864
   23.160    3.9705
   23.175    4.1917
   23.190    3.9389
   23.205    4.0337
   23.220    4.0126
   23.235    3.6967
   23.250    3.8652
   23.265    4.0969
   23.280    3.7388
   23.295    3.9494
   23.310    4.0021
   23.325    4.0442
   23.340    4.1496
   23.355    4.1390
   23.370    4.0232
   23.385    4.1285
   23.400    3.9810
   23.415    4.2443
   23.430    3.9600
   23.445    3.8757
   23.460    4.2865
   23.475    3.9389
   23.490    3.7809
   23.505    3.8231
   23.520    3.6019
   23.535    3.8547
   23.550    3.9705
   23.565    3.9389
   23.580    3.9179
   23.595    3.7704
   23.610    4.1706
   23.625    3.8547
   23.640    4.0232
   23.655    4.0442
   23.670    4.2654
   23.685    4.1917
   23.700    3.8231
   23.715    3.7915
   23.730    4.0021
   23.745    4.0232
   23.760    4.0548
   23.775    3.9916
   23.790    3.9600
   23.805    3.6230
   23.820    3.8547
   23.835    4.0232
   23.850    3.8863
   23.865    4.1285
   23.880    3.6546
   23.895    3.9600
   23.910    4.2549
   23.925    3.6440
   23.940    3.8757
   23.955    3.6756
   23.970    3.6862
   23.985    3.8863
   24.000    4.0232
   24.015    3.8652
   24.030    3.8757
   24.045    4.0548
   24.060    3.6124
   24.075    3.8652
   24.090    3.9600
   24.105    3.8231
   24.120    3.8652
   24.135    3.8863
   24.150    3.5914
   24.165    3.7493
   24.180    3.6967
   24.195    3.6124
   24.210    3.7283
   24.225    3.6967
   24.240    4.0021
   24.255    3.7493
   24.270    4.0864
   24.285    3.5914
   24.300    3.6440
   24.315    3.8547
   24.330    3.6756
   24.345    3.6230
   24.360    3.8231
   24.375    3.9073
   24.390    3.8125
   24.405    3.4544
   24.420    3.6546
   24.435    3.8757
   24.450    3.6862
   24.465    3.9810
   24.480    3.8231
   24.495    3.9179
   24.510    3.7388
   24.525    3.6335
   24.540    3.8231
   24.555    4.0021
   24.570    3.6756
   24.585    3.7072
   24.600    3.9810
   24.615    3.9600
   24.630    3.6862
   24.645    3.2438
   24.660    3.6862
   24.675    3.5492
   24.690    3.4123
   24.705    3.9284
   24.720    3.8231
   24.735    3.7072
   24.750    3.6019
   24.765    3.5914
   24.780    3.8125
   24.795    3.7388
   24.810    3.5387
   24.825    3.5071
   24.840    3.8231
   24.855    3.5071
   24.870    3.6124
   24.885    3.8652
   24.900    3.8231
   24.915    3.5808
   24.930    3.5387
   24.945    3.5492
   24.960    3.7072
   24.975    3.4018
   24.990    3.4650
   25.005    3.3807
   25.020    3.5808
   25.035    3.6440
   25.050    3.8547
   25.065    3.6019
   25.080    3.3386
   25.095    3.6967
   25.110    3.7704
   25.125    3.7915
   25.140    3.7388
   25.155    3.5808
   25.170    3.4334
   25.185    3.5282
   25.200    3.7283
   25.215    3.8125
   25.230    3.7599
   25.245    3.5071
   25.260    3.5071
   25.275    3.8441
   25.290    3.6440
   25.305    3.6862
   25.320    3.3281
   25.335    3.5808
   25.350    3.6756
   25.365    3.7072
   25.380    3.8547
   25.395    3.3913
   25.410    3.6967
   25.425    3.5808
   25.440    3.6440
   25.455    3.7072
   25.470    3.5176
   25.485    3.5492
   25.500    3.6124
   25.515    3.3491
   25.530    3.6019
   25.545    3.6019
   25.560    3.7599
   25.575    3.6230
   25.590    3.4860
   25.605    3.3386
   25.620    3.4544
   25.635    3.5492
   25.650    3.4229
   25.665    3.5914
   25.680    3.7177
   25.695    3.5176
   25.710    3.5282
   25.725    3.7388
   25.740    3.3807
   25.755    3.6440
   25.770    3.2438
   25.785    3.2754
   25.800    3.8125
   25.815    3.5176
   25.830    3.3913
   25.845    3.6756
   25.860    3.4334
   25.875    3.3913
   25.890    3.4860
   25.905    3.4439
   25.920    3.4755
   25.935    3.4334
   25.950    3.1385
   25.965    3.3491
   25.980    3.5176
   25.995    3.5703
   26.010    3.3386
   26.025    3.4860
   26.040    3.5703
   26.055    3.5914
   26.070    3.2859
   26.085    3.1385
   26.100    3.1806
   26.115    3.0858
   26.130    3.3702
   26.145    3.4439
   26.160    3.2859
   26.175    3.1912
   26.190    3.3386
   26.205    3.3175
   26.220    3.1912
   26.235    3.6440
   26.250    3.2754
   26.265    3.5598
   26.280    3.3597
   26.295    3.3175
   26.310    3.1385
   26.325    3.3597
   26.340    3.4123
   26.355    3.0226
   26.370    3.0016
   26.385    3.3281
   26.400    3.3175
   26.415    3.4439
   26.430    3.4123
   26.445    2.9173
   26.460    3.0226
   26.475    3.4544
   26.490    3.4650
   26.505    3.2859
   26.520    3.1806
   26.535    3.2438
   26.550    3.3597
   26.565    3.2859
   26.580    2.8752
   26.595    3.3913
   26.610    3.5387
   26.625    3.1280
   26.640    3.2122
   26.655    3.2333
   26.670    3.3491
   26.685    3.1490
   26.700    3.3175
   26.715    3.1912
   26.730    3.0332
   26.745    3.1174
   26.760    2.7909
   26.775    3.0226
   26.790    3.3386
   26.805    3.2333
   26.820    3.0753
   26.835    3.1280
   26.850    3.2017
   26.865    3.4018
   26.880    3.2965
   26.895    3.4755
   26.910    3.3281
   26.925    3.5598
   26.940    3.2122
   26.955    3.1701
   26.970    3.2122
   26.985    3.3913
   27.000    3.4966
   27.015    2.9805
   27.030    3.2227
   27.045    3.2754
   27.060    3.1174
   27.075    3.2754
   27.090    3.3281
   27.105    3.0016
   27.120    3.1280
   27.135    3.3702
   27.150    3.2859
   27.165    3.0753
   27.180    3.0016
   27.195    3.0437
   27.210    3.4439
   27.225    3.1490
   27.240    3.1280
   27.255    3.0226
   27.270    3.3175
   27.285    3.2227
   27.300    3.0753
   27.315    3.2754
   27.330    3.1701
   27.345    3.2965
   27.360    3.2965
   27.375    3.1912
   27.390    3.1069
   27.405    2.8752
   27.420    3.0964
   27.435    3.1701
   27.450    3.1596
   27.465    3.3281
   27.480    3.1174
   27.495    3.1069
   27.510    3.1806
   27.525    3.3386
   27.540    3.3070
   27.555    3.4334
   27.570    3.0858
   27.585    3.2649
   27.600    3.2333
   27.615    3.2859
   27.630    2.8963
   27.645    3.0437
   27.660    3.1912
   27.675    2.9068
   27.690    3.0858
   27.705    3.0226
   27.720    3.3175
   27.735    3.3913
   27.750    3.0648
   27.765    2.9910
   27.780    3.0437
   27.795    2.8225
   27.810    3.1280
   27.825    3.1912
   27.840    3.0542
   27.855    3.0332
   27.870    3.1069
   27.885    3.1596
   27.900    2.9068
   27.915    2.9595
   27.930    2.8225
   27.945    3.0648
   27.960    3.2438
   27.975    3.1174
   27.990    3.0437
   28.005    2.7278
   28.020    2.6856
   28.035    3.0964
   28.050    2.9384
   28.065    2.8436
   28.080    3.1385
   28.095    3.1701
   28.110    3.0226
   28.125    3.0016
   28.140    2.7278
   28.155    2.8752
   28.170    3.0437
   28.185    3.0016
   28.200    3.0753
   28.215    3.2965
   28.230    3.1596
   28.245    3.0016
   28.260    2.9910
   28.275    2.7699
   28.290    2.7804
   28.305    2.7278
   28.320    2.9279
   28.335    2.9279
   28.350    2.9279
   28.365    2.8331
   28.380    3.0437
   28.395    2.9700
   28.410    3.1069
   28.425    3.0964
   28.440    2.9279
   28.455    2.9910
   28.470    2.9173
   28.485    2.7383
   28.500    2.6751
   28.515    2.9279
   28.530    3.2122
   28.545    2.8225
   28.560    2.8752
   28.575    3.0648
   28.590    2.9068
   28.605    3.0121
   28.620    2.7488
   28.635    2.8225
   28.650    2.9279
   28.665    3.0648
   28.680    2.9068
   28.695    2.8015
   28.710    2.7383
   28.725    2.7699
   28.740    2.9173
   28.755    2.9700
   28.770    2.8225
   28.785    2.9173
   28.800    2.8541
   28.815    2.9068
   28.830    2.9489
   28.845    2.7909
   28.860    2.6962
   28.875    2.7593
   28.890    2.8225
   28.905    2.7804
   28.920    2.7804
   28.935    2.7278
   28.950    2.8436
   28.965    2.6224
   28.980    2.6435
   28.995    2.7488
   29.010    2.7383
   29.025    2.8752
   29.040    2.7909
   29.055    2.9595
   29.070    2.7067
   29.085    2.9279
   29.100    2.9068
   29.115    2.9279
   29.130    2.9279
   29.145    2.8541
   29.160    2.9595
   29.175    2.8225
   29.190    3.0121
   29.205    3.0121
   29.220    3.0226
   29.235    2.7699
   29.250    2.5803
   29.265    2.8752
   29.280    2.7383
   29.295    2.7804
   29.310    2.6962
   29.325    2.8436
   29.340    2.7804
   29.355    2.7909
   29.370    2.6119
   29.385    2.8015
   29.400    2.6856
   29.415    2.8857
   29.430    2.8015
   29.445    2.8225
   29.460    2.8225
   29.475    2.7067
   29.490    2.6540
   29.505    2.6119
   29.520    2.8331
   29.535    2.7593
   29.550    2.8963
   29.565    2.6435
   29.580    2.7909
   29.595    2.7593
   29.610    3.0542
   29.625    2.6330
   29.640    2.7593
   29.655    2.8436
   29.670    2.6751
   29.685    2.6751
   29.700    2.6751
   29.715    2.6646
   29.730    2.9279
   29.745    2.7278
   29.760    2.5698
   29.775    2.5592
   29.790    2.6962
   29.805    2.6751
   29.820    2.4750
   29.835    2.3907
   29.850    2.9489
   29.865    2.8857
   29.880    2.5592
   29.895    2.6751
   29.910    2.6856
   29.925    2.6330
   29.940    2.6435
   29.955    2.4645
   29.970    2.8647
   29.985    2.6224
   30.000    2.5908
   30.015    2.5698
   30.030    2.8541
   30.045    2.5487
   30.060    2.4750
   30.075    2.5276
   30.090    2.6646
   30.105    2.8752
   30.120    2.6751
   30.135    2.8752
   30.150    2.6962
   30.165    2.4645
   30.180    2.6330
   30.195    2.5066
   30.210    2.5487
   30.225    2.5066
   30.240    2.6751
   30.255    2.5803
   30.270    2.8015
   30.285    2.5382
   30.300    2.4329
   30.315    2.6224
   30.330    2.4223
   30.345    2.6330
   30.360    2.9173
   30.375    2.6856
   30.390    2.9068
   30.405    2.5698
   30.420    2.4645
   30.435    2.5276
   30.450    2.6330
   30.465    2.7067
   30.480    2.5171
   30.495    2.5803
   30.510    2.4961
   30.525    2.3697
   30.540    2.6119
   30.555    2.8120
   30.570    2.5803
   30.585    2.4645
   30.600    2.3486
   30.615    2.3591
   30.630    2.4013
   30.645    2.4645
   30.660    2.4855
   30.675    2.7488
   30.690    2.6646
   30.705    2.5382
   30.720    2.4645
   30.735    2.3697
   30.750    2.6224
   30.765    2.7067
   30.780    2.6330
   30.795    2.5066
   30.810    2.4329
   30.825    2.5276
   30.840    2.6646
   30.855    2.7278
   30.870    2.5171
   30.885    2.5382
   30.900    2.4750
   30.915    2.4750
   30.930    2.3381
   30.945    2.4013
   30.960    2.4961
   30.975    2.4223
   30.990    2.3907
   31.005    2.4750
   31.020    2.4434
   31.035    2.6119
   31.050    2.5382
   31.065    2.4645
   31.080    2.5171
   31.095    2.5276
   31.110    2.5276
   31.125    2.5487
   31.140    2.4645
   31.155    2.5382
   31.170    2.5276
   31.185    2.3802
   31.200    2.6224
   31.215    2.4645
   31.230    2.4539
   31.245    2.2538
   31.260    2.3170
   31.275    2.2538
   31.290    2.3065
   31.305    2.3486
   31.320    2.4961
   31.335    2.3275
   31.350    2.5592
   31.365    2.6962
   31.380    2.4855
   31.395    2.3591
   31.410    2.6330
   31.425    2.4645
   31.440    2.4961
   31.455    2.7067
   31.470    2.5487
   31.485    2.3802
   31.500    2.3907
   31.515    2.3170
   31.530    2.3486
   31.545    2.4539
   31.560    2.7804
   31.575    2.5171
   31.590    2.3907
   31.605    2.6540
   31.620    2.6751
   31.635    2.4434
   31.650    2.4855
   31.665    2.4013
   31.680    2.5382
   31.695    2.4013
   31.710    2.6646
   31.725    2.4539
   31.740    2.3591
   31.755    2.5698
   31.770    2.1906
   31.785    2.2854
   31.800    2.3486
   31.815    2.2538
   31.830    2.4539
   31.845    2.3591
   31.860    2.5382
   31.875    2.3591
   31.890    2.3381
   31.905    2.3486
   31.920    2.2643
   31.935    2.2222
   31.950    2.3381
   31.965    2.4434
   31.980    2.4013
   31.995    2.2012
   32.010    2.1485
   32.025    2.4855
   32.040    2.3591
   32.055    2.2749
   32.070    2.1380
   32.085    2.1696
   32.100    2.3591
   32.115    2.3591
   32.130    2.4013
   32.145    2.3381
   32.160    2.3170
   32.175    2.6014
   32.190    2.2959
   32.205    2.1169
   32.220    2.1380
   32.235    2.2959
   32.250    2.3065
   32.265    2.0853
   32.280    2.1169
   32.295    2.2538
   32.310    2.3170
   32.325    2.3065
   32.340    2.3486
   32.355    2.2538
   32.370    2.1590
   32.385    2.4118
   32.400    2.2749
   32.415    2.4013
   32.430    2.4118
   32.445    2.5908
   32.460    2.2749
   32.475    2.1485
   32.490    2.1169
   32.505    2.2222
   32.520    2.1380
   32.535    2.3170
   32.550    2.2643
   32.565    2.0221
   32.580    2.3591
   32.595    2.2959
   32.610    2.3381
   32.625    2.2643
   32.640    2.2117
   32.655    2.1064
   32.670    2.2012
   32.685    2.1064
   32.700    2.1696
   32.715    2.2959
   32.730    2.2959
   32.745    2.4645
   32.760    1.9695
   32.775    2.2328
   32.790    2.2117
   32.805    2.2433
   32.820    2.1696
   32.835    2.2012
   32.850    2.2328
   32.865    2.2117
   32.880    2.0748
   32.895    2.1590
   32.910    2.0432
   32.925    2.0748
   32.940    2.2328
   32.955    2.1590
   32.970    2.0326
   32.985    2.0326
   33.000    1.9589
   33.015    2.3065
   33.030    2.2433
   33.045    2.2854
   33.060    2.0011
   33.075    2.0642
   33.090    2.0011
   33.105    2.0748
   33.120    2.0537
   33.135    1.8325
   33.150    2.0221
   33.165    1.8747
   33.180    1.9484
   33.195    1.9484
   33.210    1.8431
   33.225    2.0326
   33.240    2.1274
   33.255    2.0116
   33.270    2.0642
   33.285    2.1906
   33.300    2.0432
   33.315    1.9273
   33.330    2.1169
   33.345    2.0326
   33.360    2.2012
   33.375    2.1169
   33.390    1.9695
   33.405    1.9273
   33.420    2.0748
   33.435    2.0221
   33.450    1.9589
   33.465    1.8852
   33.480    1.7904
   33.495    1.9379
   33.510    2.0011
   33.525    2.1064
   33.540    2.1801
   33.555    2.1064
   33.570    2.0537
   33.585    2.0537
   33.600    1.9273
   33.615    2.1274
   33.630    2.0326
   33.645    2.0853
   33.660    1.9695
   33.675    2.0221
   33.690    1.9168
   33.705    2.0958
   33.720    2.0853
   33.735    2.1169
   33.750    2.1274
   33.765    1.9800
   33.780    1.9484
   33.795    2.0432
   33.810    1.8009
   33.825    1.8641
   33.840    2.0853
   33.855    2.2643
   33.870    2.2117
   33.885    1.8009
   33.900    1.8536
   33.915    2.0116
   33.930    2.0011
   33.945    2.0221
   33.960    2.0537
   33.975    2.2643
   33.990    1.9484
   34.005    2.1696
   34.020    2.2117
   34.035    2.1380
   34.050    2.1590
   34.065    1.9379
   34.080    1.9589
   34.095    1.7378
   34.110    1.9273
   34.125    2.0748
   34.140    2.0326
   34.155    1.8852
   34.170    1.6851
   34.185    1.8009
   34.200    1.7694
   34.215    1.9695
   34.230    1.8325
   34.245    1.9800
   34.260    2.1906
   34.275    2.1169
   34.290    1.9695
   34.305    1.8641
   34.320    1.8852
   34.335    1.7904
   34.350    1.7588
   34.365    1.9273
   34.380    2.0011
   34.395    1.8431
   34.410    1.8115
   34.425    1.8957
   34.440    1.8536
   34.455    1.9168
   34.470    1.8747
   34.485    1.7272
   34.500    1.7799
   34.515    2.0432
   34.530    1.8747
   34.545    1.7378
   34.560    1.7694
   34.575    1.8325
   34.590    1.8009
   34.605    1.8536
   34.620    2.0011
   34.635    1.8641
   34.650    1.9168
   34.665    1.8957
   34.680    1.8325
   34.695    1.8431
   34.710    1.9168
   34.725    1.8431
   34.740    1.9168
   34.755    1.9800
   34.770    1.5903
   34.785    1.7799
   34.800    1.7588
   34.815    1.9695
   34.830    1.8220
   34.845    1.8536
   34.860    1.8325
   34.875    1.8009
   34.890    1.7694
   34.905    1.7167
   34.920    1.6956
   34.935    1.6430
   34.950    1.8009
   34.965    1.7694
   34.980    1.7694
   34.995    1.7588
   35.010    1.7483
   35.025    1.7904
   35.040    1.7588
   35.055    1.7062
   35.070    1.7062
   35.085    1.6535
   35.100    1.8747
   35.115    1.7378
   35.130    1.8431
   35.145    1.8747
   35.160    1.6746
   35.175    1.6219
   35.190    1.7904
   35.205    1.9589
   35.220    1.8431
   35.235    1.8431
   35.250    1.8115
   35.265    1.7694
   35.280    1.6114
   35.295    1.5798
   35.310    1.6956
   35.325    1.5798
   35.340    1.6430
   35.355    1.7272
   35.370    1.8957
   35.385    1.8009
   35.400    1.9484
   35.415    1.8325
   35.430    1.8747
   35.445    1.8747
   35.460    1.7904
   35.475    1.7483
   35.490    1.7378
   35.505    1.7378
   35.520    1.8641
   35.535    1.6219
   35.550    1.8747
   35.565    1.6535
   35.580    1.6430
   35.595    1.8536
   35.610    1.7799
   35.625    1.6851
   35.640    1.8641
   35.655    1.5903
   35.670    1.8431
   35.685    1.7167
   35.700    1.7062
   35.715    1.7904
   35.730    1.6008
   35.745    1.6746
   35.760    1.6851
   35.775    1.7062
   35.790    1.5482
   35.805    1.4850
   35.820    1.6746
   35.835    1.6640
   35.850    1.6219
   35.865    1.7483
   35.880    1.7062
   35.895    1.5166
   35.910    1.4955
   35.925    1.6219
   35.940    1.6008
   35.955    1.5377
   35.970    1.6324
   35.985    1.5692
   36.000    1.6114
   36.015    1.7588
   36.030    1.7378
   36.045    1.6008
   36.060    1.4955
   36.075    1.6324
   36.090    1.6219
   36.105    1.6640
   36.120    1.6851
   36.135    1.6219
   36.150    1.6746
   36.165    1.7904
   36.180    1.8009
   36.195    1.6324
   36.210    1.7062
   36.225    1.5587
   36.240    1.7588
   36.255    1.7167
   36.270    1.6956
   36.285    1.5798
   36.300    1.5587
   36.315    1.7062
   36.330    1.6640
   36.345    1.7483
   36.360    1.7378
   36.375    1.6535
   36.390    1.6430
   36.405    1.5692
   36.420    1.6114
   36.435    1.6746
   36.450    1.4850
   36.465    1.6008
   36.480    1.4639
   36.495    1.3797
   36.510    1.6746
   36.525    1.5166
   36.540    1.5482
   36.555    1.6746
   36.570    1.5271
   36.585    1.5482
   36.600    1.5903
   36.615    1.4113
   36.630    1.4534
   36.645    1.5798
   36.660    1.6114
   36.675    1.7272
   36.690    1.5061
   36.705    1.6430
   36.720    1.5798
   36.735    1.7167
   36.750    1.5271
   36.765    1.5271
   36.780    1.6114
   36.795    1.4850
   36.810    1.4113
   36.825    1.3691
   36.840    1.5587
   36.855    1.7272
   36.870    1.3691
   36.885    1.4218
   36.900    1.5903
   36.915    1.5692
   36.930    1.4745
   36.945    1.5482
   36.960    1.6956
   36.975    1.6324
   36.990    1.6219
   37.005    1.4323
   37.020    1.3797
   37.035    1.5166
   37.050    1.5587
   37.065    1.4218
   37.080    1.4007
   37.095    1.5377
   37.110    1.5061
   37.125    1.4007
   37.140    1.5482
   37.155    1.6008
   37.170    1.4850
   37.185    1.4850
   37.200    1.5377
   37.215    1.5482
   37.230    1.6851
   37.245    1.6535
   37.260    1.4955
   37.275    1.5166
   37.290    1.7378
   37.305    1.7378
   37.320    1.5482
   37.335    1.4113
   37.350    1.5377
   37.365    1.4113
   37.380    1.4534
   37.395    1.4639
   37.410    1.5377
   37.425    1.4218
   37.440    1.4218
   37.455    1.6746
   37.470    1.7483
   37.485    1.3586
   37.500    1.4955
   37.515    1.6008
   37.530    1.7167
   37.545    1.5377
   37.560    1.3060
   37.575    1.4955
   37.590    1.4639
   37.605    1.3165
   37.620    1.4745
   37.635    1.6008
   37.650    1.6956
   37.665    1.6114
   37.680    1.6008
   37.695    1.4218
   37.710    1.4218
   37.725    1.4534
   37.740    1.4534
   37.755    1.2533
   37.770    1.4429
   37.785    1.4850
   37.800    1.3691
   37.815    1.4218
   37.830    1.4850
   37.845    1.4113
   37.860    1.5271
   37.875    1.3586
   37.890    1.5482
   37.905    1.4639
   37.920    1.5692
   37.935    1.5903
   37.950    1.5798
   37.965    1.4113
   37.980    1.2428
   37.995    1.4113
   38.010    1.3481
   38.025    1.4534
   38.040    1.4429
   38.055    1.4007
   38.070    1.2533
   38.085    1.4323
   38.100    1.6956
   38.115    1.6219
   38.130    1.6008
   38.145    1.3481
   38.160    1.3481
   38.175    1.4745
   38.190    1.3797
   38.205    1.3165
   38.220    1.3375
   38.235    1.4007
   38.250    1.5692
   38.265    1.6114
   38.280    1.4534
   38.295    1.4639
   38.310    1.2322
   38.325    1.2954
   38.340    1.4007
   38.355    1.3797
   38.370    1.4429
   38.385    1.2744
   38.400    1.3270
   38.415    1.5903
   38.430    1.4639
   38.445    1.2954
   38.460    1.3165
   38.475    1.5166
   38.490    1.3797
   38.505    1.2849
   38.520    1.4218
   38.535    1.4323
   38.550    1.4639
   38.565    1.4745
   38.580    1.3165
   38.595    1.3165
   38.610    1.5166
   38.625    1.4639
   38.640    1.6324
   38.655    1.5482
   38.670    1.3060
   38.685    1.2744
   38.700    1.3375
   38.715    1.4113
   38.730    1.3270
   38.745    1.2744
   38.760    1.4218
   38.775    1.3586
   38.790    1.4745
   38.805    1.5166
   38.820    1.5271
   38.835    1.4745
   38.850    1.5692
   38.865    1.3797
   38.880    1.4113
   38.895    1.3481
   38.910    1.5798
   38.925    1.4323
   38.940    1.3691
   38.955    1.4639
   38.970    1.3691
   38.985    1.4007
   39.000    1.4218
   39.015    1.4745
   39.030    1.2954
   39.045    1.2533
   39.060    1.5271
   39.075    1.4218
   39.090    1.4323
   39.105    1.2849
   39.120    1.3165
   39.135    1.4323
   39.150    1.2744
   39.165    1.5692
   39.180    1.5166
   39.195    1.4007
   39.210    1.3060
   39.225    1.4955
   39.240    1.3586
   39.255    1.4218
   39.270    1.4534
   39.285    1.4745
   39.300    1.4218
   39.315    1.4218
   39.330    1.3481
   39.345    1.3797
   39.360    1.4113
   39.375    1.2217
   39.390    1.3270
   39.405    1.3797
   39.420    1.6219
   39.435    1.5061
   39.450    1.4745
   39.465    1.2954
   39.480    1.3481
   39.495    1.5166
   39.510    1.3270
   39.525    1.4429
   39.540    1.4113
   39.555    1.3902
   39.570    1.5692
   39.585    1.4850
   39.600    1.3165
   39.615    1.3481
   39.630    1.3797
   39.645    1.2112
   39.660    1.3165
   39.675    1.3270
   39.690    1.4639
   39.705    1.4218
   39.720    1.4745
   39.735    1.1796
   39.750    1.4323
   39.765    1.3797
   39.780    1.4534
   39.795    1.4007
   39.810    1.4745
   39.825    1.3902
   39.840    1.2954
   39.855    1.1585
   39.870    1.3270
   39.885    1.4007
   39.900    1.4745
   39.915    1.3165
   39.930    1.3797
   39.945    1.1901
   39.960    1.3586
   39.975    1.4323
   39.990    1.4323
