    1.500    5.6714
    1.515    5.6661
    1.530    5.6819
    1.545    5.4818
    1.560    5.6293
    1.575    5.9768
    1.590    5.8347
    1.605    5.7135
    1.620    5.6398
    1.635    5.8768
    1.650    5.7978
    1.665    5.5714
    1.680    5.9452
    1.695    5.8926
    1.710    5.3555
    1.725    5.3976
    1.740    5.4818
    1.755    5.7293
    1.770    5.6135
    1.785    5.3818
    1.800    5.3555
    1.815    5.5187
    1.830    5.4450
    1.845    5.5556
    1.860    5.4134
    1.875    5.4555
    1.890    5.6293
    1.905    5.2765
    1.920    5.3555
    1.935    5.5608
    1.950    5.6767
    1.965    5.6925
    1.980    5.7978
    1.995    5.6187
    2.010    5.4081
    2.025    5.4081
    2.040    5.4397
    2.055    5.2449
    2.070    5.5977
    2.085    5.5872
    2.100    5.7399
    2.115    5.5292
    2.130    5.5503
    2.145    5.4818
    2.160    5.5240
    2.175    5.7188
    2.190    5.5766
    2.205    5.9874
    2.220    5.9031
    2.235    6.0664
    2.250    5.7715
    2.265    5.5240
    2.280    5.7925
    2.295    5.8347
    2.310    5.9663
    2.325    6.0137
    2.340    5.9294
    2.355    6.1559
    2.370    5.9716
    2.385    5.8978
    2.400    6.2349
    2.415    6.0664
    2.430    6.1032
    2.445    6.0611
    2.460    6.2191
    2.475    6.2717
    2.490    6.5403
    2.505    6.3981
    2.520    6.4666
    2.535    6.5298
    2.550    6.3612
    2.565    6.6772
    2.580    6.4297
    2.595    6.3086
    2.610    6.5245
    2.625    6.5245
    2.640    7.0563
    2.655    6.7193
    2.670    6.8352
    2.685    6.6351
    2.700    6.7457
    2.715    6.8668
    2.730    6.8668
    2.745    6.8826
    2.760    6.8562
    2.775    6.8510
    2.790    7.0563
    2.805    7.1037
    2.820    7.1090
    2.835    7.5987
    2.850    7.3670
    2.865    7.4513
    2.880    7.7146
    2.895    7.6988
    2.910    7.5829
    2.925    7.4829
    2.940    7.7830
    2.955    7.7988
    2.970    8.3412
    2.985    7.8568
    3.000    8.2201
    3.015    8.1885
    3.030    8.4308
    3.045    8.1411
    3.060    8.2833
    3.075    8.3623
    3.090    8.4413
    3.105    8.7994
    3.120    9.0258
    3.135    8.9889
    3.150    9.0521
    3.165    9.1680
    3.180    9.2101
    3.195    9.0995
    3.210    9.4523
    3.225    9.8104
    3.240    9.9526
    3.255    9.8104
    3.270   10.1369
    3.285   10.1685
    3.300   10.7530
    3.315   10.8636
    3.330   10.8899
    3.345   10.4318
    3.360   10.8004
    3.375   11.1374
    3.390   11.6956
    3.405   11.8747
    3.420   11.8009
    3.435   12.4750
    3.450   12.5961
    3.465   12.9331
    3.480   12.4803
    3.495   12.0958
    3.510   12.1064
    3.525   11.5324
    3.540   11.0585
    3.555   10.9005
    3.570   10.3107
    3.585   10.1527
    3.600    9.8315
    3.615    9.4523
    3.630    9.1943
    3.645    9.1838
    3.660    8.7520
    3.675    8.6572
    3.690    8.5519
    3.705    8.3044
    3.720    8.3360
    3.735    8.8152
    3.750    8.4887
    3.765    8.4413
    3.780    8.1780
    3.795    8.3307
    3.810    8.4992
    3.825    8.3465
    3.840    8.5045
    3.855    8.0463
    3.870    8.1043
    3.885    7.8041
    3.900    7.8304
    3.915    8.0095
    3.930    7.6251
    3.945    7.6725
    3.960    7.3196
    3.975    7.3512
    3.990    7.3828
    4.005    7.2933
    4.020    6.8984
    4.035    6.8457
    4.050    6.6772
    4.065    6.2981
    4.080    6.3876
    4.095    6.1085
    4.110    6.1506
    4.125    6.0242
    4.140    6.0821
    4.155    5.8504
    4.170    5.5187
    4.185    5.4871
    4.200    5.6240
    4.215    5.5714
    4.230    5.2923
    4.245    5.4081
    4.260    5.5398
    4.275    5.4081
    4.290    5.3449
    4.305    5.0290
    4.320    5.0079
    4.335    5.3660
    4.350    5.2343
    4.365    5.3870
    4.380    5.5240
    4.395    5.2080
    4.410    5.0869
    4.425    4.8131
    4.440    5.0606
    4.455    5.0132
    4.470    4.9078
    4.485    4.8605
    4.500    4.9184
    4.515    4.9184
    4.530    5.0395
    4.545    4.9710
    4.560    4.7130
    4.575    4.8710
    4.590    5.0237
    4.605    4.7446
    4.620    4.7288
    4.635    4.7867
    4.650    4.7235
    4.665    4.8394
    4.680    4.7815
    4.695    5.0026
    4.710    4.9500
    4.725    4.8499
    4.740    4.6761
    4.755    4.7077
    4.770    4.8341
    4.785    4.5392
    4.800    4.2917
    4.815    4.5392
    4.830    4.6551
    4.845    4.5340
    4.860    4.6288
    4.875    4.4234
    4.890    4.3760
    4.905    4.3707
    4.920    4.4550
    4.935    4.4181
    4.950    4.4339
    4.965    4.4708
    4.980    4.3549
    4.995    4.3233
    5.010    4.4708
    5.025    4.3655
    5.040    4.4918
    5.055    4.4708
    5.070    4.2549
    5.085    4.1548
    5.100    4.1759
    5.115    4.3655
    5.130    4.1864
    5.145    4.2759
    5.160    4.3233
    5.175    4.2022
    5.190    4.4444
    5.205    4.2443
    5.220    4.1969
    5.235    4.2233
    5.250    4.3760
    5.265    4.0232
    5.280    4.1285
    5.295    4.0811
    5.310    4.2707
    5.325    4.0600
    5.340    4.2654
    5.355    4.2075
    5.370    4.1969
    5.385    4.1390
    5.400    4.2180
    5.415    4.0074
    5.430    4.0284
    5.445    4.1127
    5.460    4.2759
    5.475    4.2391
    5.490    4.4339
    5.505    4.0126
    5.520    4.2127
    5.535    4.0232
    5.550    3.9494
    5.565    4.0811
    5.580    4.1338
    5.595    4.2865
    5.610    4.1074
    5.625    4.2233
    5.640    4.0706
    5.655    3.9389
    5.670    4.0548
    5.685    4.1127
    5.700    4.2022
    5.715    3.9494
    5.730    4.0179
    5.745    4.1390
    5.760    3.9336
    5.775    4.2180
    5.790    4.1654
    5.805    3.7967
    5.820    4.1285
    5.835    4.2233
    5.850    4.1706
    5.865    3.9600
    5.880    4.2127
    5.895    4.1074
    5.910    3.9810
    5.925    3.8968
    5.940    4.1232
    5.955    4.1496
    5.970    4.0021
    5.985    4.0706
    6.000    4.0232
    6.015    4.0916
    6.030    4.1127
    6.045    3.9494
    6.060    3.9547
    6.075    4.0495
    6.090    4.0390
    6.105    4.0442
    6.120    4.0390
    6.135    4.3602
    6.150    4.1232
    6.165    4.1496
    6.180    4.1969
    6.195    4.1074
    6.210    4.3075
    6.225    4.3602
    6.240    3.9652
    6.255    4.1706
    6.270    4.0600
    6.285    4.1811
    6.300    4.4128
    6.315    4.2496
    6.330    4.1232
    6.345    4.0337
    6.360    4.0284
    6.375    4.2707
    6.390    4.2549
    6.405    4.2759
    6.420    3.9336
    6.435    4.2917
    6.450    4.1864
    6.465    4.1127
    6.480    4.1285
    6.495    4.2338
    6.510    4.2180
    6.525    4.2127
    6.540    4.1864
    6.555    4.2443
    6.570    4.3075
    6.585    4.3391
    6.600    4.2970
    6.615    4.4128
    6.630    4.5234
    6.645    4.3655
    6.660    4.5603
    6.675    4.5761
    6.690    4.5182
    6.705    4.3865
    6.720    4.5129
    6.735    4.7183
    6.750    4.5076
    6.765    4.8078
    6.780    4.7077
    6.795    4.7815
    6.810    4.8236
    6.825    4.8025
    6.840    5.0342
    6.855    5.1185
    6.870    5.0342
    6.885    4.6972
    6.900    5.0237
    6.915    5.0395
    6.930    5.2133
    6.945    5.3133
    6.960    5.3870
    6.975    5.2712
    6.990    5.3133
    7.005    5.3449
    7.020    5.3239
    7.035    5.1553
    7.050    4.9605
    7.065    4.9236
    7.080    4.7920
    7.095    4.6919
    7.110    4.7446
    7.125    4.5129
    7.140    4.6235
    7.155    4.4128
    7.170    4.4655
    7.185    4.4813
    7.200    4.5761
    7.215    4.5287
    7.230    4.5076
    7.245    4.4497
    7.260    4.3497
    7.275    4.4444
    7.290    4.6182
    7.305    4.4076
    7.320    4.3444
    7.335    4.5340
    7.350    4.3707
    7.365    4.3339
    7.380    4.8815
    7.395    4.4813
    7.410    4.5076
    7.425    4.4444
    7.440    4.5498
    7.455    4.5919
    7.470    4.5234
    7.485    4.4392
    7.500    4.4286
    7.515    4.5498
    7.530    4.6182
    7.545    4.4076
    7.560    4.5972
    7.575    4.4181
    7.590    4.5656
    7.605    4.5340
    7.620    4.5392
    7.635    4.6393
    7.650    4.6867
    7.665    4.8605
    7.680    5.0869
    7.695    4.8289
    7.710    4.9710
    7.725    4.8341
    7.740    5.0448
    7.755    4.9763
    7.770    4.9605
    7.785    4.9763
    7.800    5.0132
    7.815    4.8289
    7.830    4.9921
    7.845    4.8499
    7.860    5.1080
    7.875    4.7762
    7.890    4.9342
    7.905    5.0606
    7.920    4.9921
    7.935    5.0132
    7.950    4.6867
    7.965    5.0237
    7.980    4.8131
    7.995    4.8710
    8.010    4.8341
    8.025    4.8447
    8.040    4.9184
    8.055    4.7762
    8.070    4.6761
    8.085    4.7288
    8.100    4.5656
    8.115    4.6077
    8.130    4.6235
    8.145    4.5498
    8.160    4.3760
    8.175    4.2127
    8.190    4.2443
    8.205    4.1390
    8.220    4.2075
    8.235    4.1390
    8.250    4.2233
    8.265    4.2812
    8.280    4.1390
    8.295    4.0864
    8.310    3.9916
    8.325    4.2391
    8.340    4.1443
    8.355    4.1601
    8.370    3.7809
    8.385    4.0021
    8.400    4.1654
    8.415    4.1127
    8.430    3.9810
    8.445    4.0811
    8.460    3.8547
    8.475    4.0758
    8.490    3.8020
    8.505    4.0548
    8.520    4.0179
    8.535    3.8441
    8.550    4.0969
    8.565    3.9021
    8.580    3.8915
    8.595    4.0126
    8.610    4.0179
    8.625    3.9073
    8.640    3.9705
    8.655    3.9916
    8.670    3.8810
    8.685    3.9021
    8.700    4.1285
    8.715    3.9231
    8.730    3.9916
    8.745    4.0811
    8.760    3.9126
    8.775    3.9442
    8.790    3.9336
    8.805    3.8494
    8.820    3.9863
    8.835    3.8125
    8.850    3.7072
    8.865    4.0758
    8.880    3.7967
    8.895    3.8863
    8.910    4.1601
    8.925    4.1811
    8.940    3.8494
    8.955    3.9021
    8.970    4.0179
    8.985    3.8652
    9.000    3.9336
    9.015    3.9442
    9.030    3.8968
    9.045    3.9494
    9.060    4.0548
    9.075    3.9600
    9.090    3.8073
    9.105    3.9442
    9.120    3.7757
    9.135    3.7388
    9.150    3.8863
    9.165    3.8178
    9.180    3.8863
    9.195    3.8810
    9.210    3.9442
    9.225    3.8547
    9.240    4.0916
    9.255    4.0442
    9.270    3.9284
    9.285    3.7125
    9.300    3.7757
    9.315    3.8336
    9.330    3.9021
    9.345    3.7546
    9.360    3.8020
    9.375    3.8494
    9.390    3.9547
    9.405    3.7546
    9.420    4.1548
    9.435    3.9494
    9.450    4.0126
    9.465    3.7809
    9.480    3.6335
    9.495    3.6809
    9.510    3.7283
    9.525    3.8231
    9.540    3.8073
    9.555    3.8336
    9.570    3.7809
    9.585    3.8073
    9.600    3.8073
    9.615    3.7599
    9.630    3.7388
    9.645    3.7704
    9.660    3.8547
    9.675    3.8441
    9.690    3.8441
    9.705    3.8599
    9.720    3.7283
    9.735    3.7441
    9.750    3.8863
    9.765    3.7335
    9.780    3.9179
    9.795    3.8705
    9.810    3.9442
    9.825    4.2338
    9.840    3.9442
    9.855    3.8178
    9.870    3.6072
    9.885    3.7757
    9.900    3.8178
    9.915    3.8705
    9.930    3.7335
    9.945    3.7809
    9.960    3.7388
    9.975    3.8231
    9.990    3.8336
   10.005    3.9652
   10.020    3.7388
   10.035    3.6704
   10.050    3.4913
   10.065    3.7388
   10.080    3.5545
   10.095    3.7019
   10.110    3.7125
   10.125    3.8810
   10.140    3.7125
   10.155    3.9494
   10.170    3.7809
   10.185    3.9389
   10.200    3.9810
   10.215    3.9652
   10.230    3.8652
   10.245    3.6809
   10.260    3.6862
   10.275    3.7335
   10.290    3.7177
   10.305    3.7177
   10.320    3.8757
   10.335    3.8231
   10.350    3.8336
   10.365    3.7967
   10.380    3.8652
   10.395    3.9494
   10.410    3.7862
   10.425    3.7441
   10.440    3.8441
   10.455    3.8599
   10.470    3.9968
   10.485    3.8652
   10.500    3.7599
   10.515    3.9073
   10.530    3.7704
   10.545    3.9126
   10.560    3.7388
   10.575    3.7230
   10.590    3.7125
   10.605    3.8231
   10.620    3.7599
   10.635    3.8494
   10.650    3.5808
   10.665    3.8020
   10.680    4.0021
   10.695    3.7441
   10.710    3.7915
   10.725    3.7019
   10.740    3.8705
   10.755    3.9073
   10.770    3.7967
   10.785    3.7967
   10.800    3.9231
   10.815    3.7441
   10.830    3.5808
   10.845    3.7019
   10.860    3.5545
   10.875    3.6440
   10.890    3.8073
   10.905    3.7915
   10.920    3.7125
   10.935    3.6809
   10.950    3.6967
   10.965    3.8336
   10.980    3.5756
   10.995    3.7072
   11.010    3.8652
   11.025    3.5440
   11.040    3.6177
   11.055    3.8863
   11.070    3.9968
   11.085    3.8915
   11.100    3.8073
   11.115    3.6704
   11.130    3.7125
   11.145    3.6546
   11.160    3.6862
   11.175    3.8020
   11.190    3.8336
   11.205    3.9179
   11.220    3.6493
   11.235    3.8863
   11.250    3.5914
   11.265    3.7019
   11.280    3.6546
   11.295    3.8441
   11.310    3.6598
   11.325    3.7441
   11.340    3.8441
   11.355    3.7125
   11.370    3.7546
   11.385    3.7599
   11.400    3.7915
   11.415    3.7493
   11.430    3.6388
   11.445    3.6124
   11.460    3.5282
   11.475    3.7809
   11.490    3.4808
   11.505    3.7388
   11.520    3.6914
   11.535    3.8178
   11.550    3.8652
   11.565    3.7651
   11.580    3.5176
   11.595    3.5861
   11.610    3.7704
   11.625    3.8020
   11.640    3.8020
   11.655    3.6335
   11.670    3.9968
   11.685    4.0600
   11.700    3.7809
   11.715    3.7967
   11.730    3.7125
   11.745    3.5861
   11.760    3.7388
   11.775    3.6388
   11.790    3.8020
   11.805    3.9600
   11.820    3.7335
   11.835    3.7757
   11.850    3.8547
   11.865    3.6914
   11.880    3.8231
   11.895    3.8652
   11.910    3.7651
   11.925    3.5545
   11.940    3.7072
   11.955    3.4755
   11.970    3.5598
   11.985    3.6914
   12.000    3.6493
   12.015    3.5703
   12.030    3.8494
   12.045    3.6546
   12.060    3.9284
   12.075    3.8441
   12.090    3.6651
   12.105    3.8283
   12.120    3.7599
   12.135    3.7651
   12.150    3.9758
   12.165    3.7915
   12.180    3.6651
   12.195    3.8863
   12.210    3.7230
   12.225    3.5071
   12.240    3.7967
   12.255    3.7546
   12.270    3.7335
   12.285    3.8547
   12.300    3.5861
   12.315    3.7335
   12.330    3.5861
   12.345    3.6335
   12.360    3.5808
   12.375    3.6598
   12.390    3.6704
   12.405    3.7546
   12.420    3.7757
   12.435    3.7493
   12.450    3.6335
   12.465    3.5914
   12.480    3.5966
   12.495    3.5229
   12.510    3.4808
   12.525    3.7388
   12.540    3.6651
   12.555    3.5598
   12.570    3.4439
   12.585    3.4018
   12.600    3.7125
   12.615    3.5756
   12.630    3.6493
   12.645    3.6493
   12.660    3.6809
   12.675    3.5966
   12.690    3.6651
   12.705    3.7177
   12.720    3.6072
   12.735    3.6019
   12.750    3.6230
   12.765    3.6756
   12.780    3.8125
   12.795    4.0390
   12.810    3.7599
   12.825    3.5703
   12.840    3.7230
   12.855    3.7177
   12.870    3.6651
   12.885    3.7177
   12.900    3.7441
   12.915    3.8283
   12.930    3.7125
   12.945    3.7072
   12.960    3.9073
   12.975    3.7546
   12.990    3.7125
   13.005    3.7019
   13.020    3.3913
   13.035    3.3228
   13.050    3.5703
   13.065    3.5282
   13.080    3.7809
   13.095    3.6335
   13.110    3.4439
   13.125    3.7757
   13.140    3.6914
   13.155    3.6809
   13.170    3.9126
   13.185    3.7862
   13.200    3.5756
   13.215    3.7441
   13.230    3.5966
   13.245    3.7809
   13.260    3.6177
   13.275    3.6756
   13.290    3.8231
   13.305    3.8441
   13.320    3.6335
   13.335    3.4176
   13.350    3.5545
   13.365    3.6598
   13.380    3.5071
   13.395    3.5756
   13.410    3.4018
   13.425    3.4597
   13.440    3.6704
   13.455    3.6914
   13.470    3.5018
   13.485    3.6809
   13.500    3.5756
   13.515    3.6440
   13.530    3.6019
   13.545    3.6124
   13.560    3.7230
   13.575    3.6546
   13.590    3.3439
   13.605    3.5966
   13.620    3.4281
   13.635    3.7019
   13.650    3.8757
   13.665    3.5018
   13.680    3.4018
   13.695    3.5124
   13.710    3.3913
   13.725    3.5914
   13.740    3.5966
   13.755    3.6914
   13.770    3.7019
   13.785    3.5861
   13.800    3.8441
   13.815    3.8073
   13.830    3.5861
   13.845    3.6019
   13.860    3.6493
   13.875    3.5808
   13.890    3.5650
   13.905    3.4544
   13.920    3.6177
   13.935    3.7335
   13.950    3.5229
   13.965    3.6230
   13.980    3.5756
   13.995    3.5966
   14.010    3.7230
   14.025    3.8125
   14.040    3.7862
   14.055    3.6440
   14.070    3.4018
   14.085    3.6651
   14.100    3.5492
   14.115    3.5440
   14.130    3.7019
   14.145    3.5808
   14.160    3.6072
   14.175    3.8231
   14.190    3.6756
   14.205    3.6493
   14.220    3.6651
   14.235    3.6809
   14.250    3.5808
   14.265    3.6124
   14.280    3.6651
   14.295    3.6704
   14.310    3.6546
   14.325    3.5861
   14.340    3.5387
   14.355    3.4544
   14.370    3.4334
   14.385    3.4544
   14.400    3.4597
   14.415    3.5966
   14.430    3.5966
   14.445    3.5703
   14.460    3.7546
   14.475    3.6914
   14.490    3.7125
   14.505    3.5387
   14.520    3.6440
   14.535    3.9073
   14.550    3.7546
   14.565    3.3965
   14.580    3.5914
   14.595    3.7546
   14.610    3.6282
   14.625    3.6756
   14.640    3.6388
   14.655    3.4439
   14.670    3.4913
   14.685    3.6967
   14.700    3.6704
   14.715    3.6704
   14.730    3.5808
   14.745    3.6756
   14.760    3.5492
   14.775    3.6072
   14.790    3.6072
   14.805    3.3807
   14.820    3.5650
   14.835    3.4913
   14.850    3.6282
   14.865    3.5861
   14.880    3.6177
   14.895    3.6862
   14.910    3.5598
   14.925    3.6651
   14.940    3.8336
   14.955    3.6335
   14.970    3.6124
   14.985    3.3860
   15.000    3.6546
   15.015    3.6388
   15.030    3.5598
   15.045    3.8178
   15.060    3.6914
   15.075    3.5229
   15.090    3.6177
   15.105    3.6072
   15.120    3.5808
   15.135    3.6124
   15.150    3.6335
   15.165    3.7230
   15.180    3.5808
   15.195    3.6809
   15.210    3.6598
   15.225    3.4808
   15.240    3.5387
   15.255    3.4439
   15.270    3.5071
   15.285    3.4860
   15.300    3.3123
   15.315    3.5808
   15.330    3.8494
   15.345    3.9494
   15.360    3.8441
   15.375    3.5808
   15.390    3.5808
   15.405    3.5703
   15.420    3.6704
   15.435    3.6914
   15.450    3.6967
   15.465    3.6440
   15.480    3.6177
   15.495    3.4755
   15.510    3.6493
   15.525    3.7125
   15.540    3.5492
   15.555    3.5650
   15.570    3.6335
   15.585    3.7493
   15.600    3.8020
   15.615    3.7335
   15.630    3.6177
   15.645    3.6019
   15.660    3.5492
   15.675    3.6177
   15.690    3.5703
   15.705    3.6914
   15.720    3.5124
   15.735    3.7072
   15.750    3.7177
   15.765    3.6493
   15.780    3.7283
   15.795    3.5071
   15.810    3.4808
   15.825    3.4387
   15.840    3.7967
   15.855    3.4597
   15.870    3.7704
   15.885    3.8125
   15.900    3.5440
   15.915    3.6546
   15.930    3.6598
   15.945    3.4229
   15.960    3.4913
   15.975    3.5492
   15.990    3.5756
   16.005    3.5861
   16.020    3.6335
   16.035    3.7546
   16.050    3.5176
   16.065    3.5018
   16.080    3.4492
   16.095    3.5650
   16.110    3.6704
   16.125    3.6704
   16.140    3.6072
   16.155    3.6019
   16.170    3.6598
   16.185    3.6546
   16.200    3.3965
   16.215    3.4702
   16.230    3.6230
   16.245    3.4966
   16.260    3.6493
   16.275    3.5703
   16.290    3.7072
   16.305    3.3965
   16.320    3.5229
   16.335    3.8125
   16.350    3.8441
   16.365    3.6124
   16.380    3.6019
   16.395    3.6335
   16.410    3.5545
   16.425    3.5492
   16.440    3.6809
   16.455    3.5387
   16.470    3.5229
   16.485    3.3807
   16.500    3.5545
   16.515    3.6967
   16.530    3.5387
   16.545    3.6019
   16.560    3.6756
   16.575    3.6651
   16.590    3.7493
   16.605    3.6704
   16.620    3.6230
   16.635    3.7967
   16.650    3.5914
   16.665    3.7388
   16.680    3.7388
   16.695    3.8599
   16.710    3.7493
   16.725    3.6546
   16.740    3.6177
   16.755    3.6124
   16.770    3.6546
   16.785    3.4755
   16.800    3.3597
   16.815    3.7072
   16.830    3.4387
   16.845    3.4071
   16.860    3.5440
   16.875    3.6704
   16.890    3.7072
   16.905    3.5808
   16.920    3.4913
   16.935    3.6072
   16.950    3.6651
   16.965    3.6967
   16.980    3.5966
   16.995    3.7388
   17.010    3.6704
   17.025    3.7072
   17.040    3.6967
   17.055    3.7809
   17.070    3.4334
   17.085    3.7283
   17.100    3.8073
   17.115    3.7441
   17.130    3.6598
   17.145    3.6072
   17.160    3.7757
   17.175    3.7283
   17.190    3.7441
   17.205    3.6756
   17.220    3.7967
   17.235    3.6809
   17.250    3.8283
   17.265    3.7546
   17.280    3.5229
   17.295    3.7125
   17.310    3.8020
   17.325    3.7704
   17.340    3.8389
   17.355    3.9494
   17.370    3.9126
   17.385    3.8810
   17.400    3.9705
   17.415    3.7283
   17.430    3.7599
   17.445    3.8494
   17.460    3.6809
   17.475    3.7599
   17.490    3.8599
   17.505    3.8283
   17.520    3.7809
   17.535    4.0021
   17.550    3.9442
   17.565    3.9179
   17.580    3.9916
   17.595    3.9126
   17.610    3.9389
   17.625    4.1127
   17.640    4.1022
   17.655    3.8389
   17.670    4.0074
   17.685    4.1180
   17.700    4.3918
   17.715    4.2391
   17.730    4.2707
   17.745    4.3707
   17.760    4.2549
   17.775    4.1390
   17.790    4.1022
   17.805    4.2285
   17.820    4.4023
   17.835    4.4866
   17.850    4.5392
   17.865    4.6077
   17.880    4.4023
   17.895    4.4550
   17.910    4.8131
   17.925    4.7604
   17.940    4.8657
   17.955    4.7393
   17.970    4.7762
   17.985    4.7604
   18.000    4.7393
   18.015    4.4444
   18.030    4.5550
   18.045    4.7973
   18.060    4.8131
   18.075    4.7025
   18.090    4.4760
   18.105    4.3444
   18.120    4.4076
   18.135    4.3655
   18.150    4.1548
   18.165    4.0811
   18.180    4.1390
   18.195    4.0653
   18.210    3.7651
   18.225    4.0653
   18.240    3.9758
   18.255    3.9863
   18.270    3.8389
   18.285    3.9021
   18.300    3.7019
   18.315    3.7651
   18.330    3.6809
   18.345    3.7546
   18.360    3.9600
   18.375    3.7967
   18.390    3.7546
   18.405    3.8283
   18.420    3.6651
   18.435    3.6756
   18.450    3.7546
   18.465    3.7230
   18.480    3.7230
   18.495    3.6809
   18.510    3.7177
   18.525    3.7441
   18.540    3.9389
   18.555    3.8915
   18.570    3.7388
   18.585    3.7019
   18.600    3.7967
   18.615    3.6598
   18.630    3.8968
   18.645    3.9021
   18.660    3.9810
   18.675    3.8020
   18.690    3.5282
   18.705    3.6177
   18.720    3.8125
   18.735    3.8231
   18.750    3.8547
   18.765    3.9442
   18.780    3.9442
   18.795    3.7125
   18.810    3.8599
   18.825    3.6862
   18.840    3.9073
   18.855    3.7651
   18.870    3.7809
   18.885    3.7599
   18.900    3.7809
   18.915    3.8441
   18.930    3.6809
   18.945    3.7493
   18.960    3.7335
   18.975    3.7651
   18.990    3.6440
   19.005    3.7809
   19.020    3.8652
   19.035    3.5808
   19.050    3.6282
   19.065    3.7704
   19.080    3.7915
   19.095    3.6862
   19.110    3.8073
   19.125    3.8757
   19.140    3.7704
   19.155    3.6124
   19.170    3.5492
   19.185    3.7599
   19.200    3.7546
   19.215    3.6914
   19.230    3.6862
   19.245    3.9073
   19.260    3.6756
   19.275    3.7177
   19.290    3.8073
   19.305    3.7704
   19.320    3.8336
   19.335    3.8073
   19.350    3.6440
   19.365    3.7125
   19.380    3.7546
   19.395    3.7704
   19.410    3.5176
   19.425    3.8863
   19.440    3.9073
   19.455    3.7441
   19.470    3.5756
   19.485    3.8073
   19.500    3.7177
   19.515    3.7651
   19.530    3.8494
   19.545    3.7493
   19.560    3.7125
   19.575    3.8389
   19.590    3.7862
   19.605    3.7967
   19.620    3.8178
   19.635    3.8020
   19.650    3.9336
   19.665    3.7177
   19.680    3.8231
   19.695    3.7546
   19.710    3.9073
   19.725    3.6651
   19.740    3.4755
   19.755    3.6598
   19.770    3.9021
   19.785    3.7809
   19.800    3.8125
   19.815    3.6493
   19.830    3.8652
   19.845    3.6282
   19.860    3.7546
   19.875    4.0179
   19.890    3.8810
   19.905    3.7915
   19.920    3.8283
   19.935    3.9231
   19.950    3.7915
   19.965    3.8494
   19.980    3.8494
   19.995    3.8652
   20.010    4.0337
   20.025    3.9231
   20.040    3.7704
   20.055    3.9863
   20.070    3.9442
   20.085    3.7441
   20.100    3.7019
   20.115    3.6756
   20.130    3.6440
   20.145    3.5176
   20.160    3.8599
   20.175    3.9758
   20.190    3.7599
   20.205    3.7230
   20.220    3.8389
   20.235    3.7651
   20.250    3.9810
   20.265    3.7809
   20.280    3.7072
   20.295    3.7809
   20.310    3.9336
   20.325    3.7335
   20.340    3.9126
   20.355    4.0548
   20.370    3.9442
   20.385    3.7809
   20.400    3.9442
   20.415    3.9442
   20.430    3.8863
   20.445    3.7546
   20.460    3.8757
   20.475    3.9073
   20.490    3.8915
   20.505    3.8810
   20.520    3.8073
   20.535    3.8020
   20.550    3.7177
   20.565    4.0074
   20.580    3.9073
   20.595    3.7493
   20.610    3.9336
   20.625    3.9863
   20.640    3.8705
   20.655    3.9336
   20.670    3.9284
   20.685    4.1127
   20.700    3.8705
   20.715    3.7757
   20.730    3.9547
   20.745    3.8178
   20.760    3.7599
   20.775    3.8863
   20.790    3.7651
   20.805    3.7125
   20.820    3.8863
   20.835    3.8389
   20.850    3.6546
   20.865    3.8389
   20.880    3.8757
   20.895    3.6914
   20.910    3.6862
   20.925    3.8599
   20.940    4.0179
   20.955    3.9810
   20.970    3.8705
   20.985    3.8915
   21.000    3.9231
   21.015    3.9126
   21.030    3.8020
   21.045    3.8494
   21.060    3.9494
   21.075    3.8863
   21.090    4.0758
   21.105    3.9600
   21.120    3.8441
   21.135    3.7757
   21.150    3.8810
   21.165    3.7757
   21.180    3.8599
   21.195    3.9073
   21.210    4.0969
   21.225    3.7967
   21.240    4.0390
   21.255    4.0021
   21.270    3.9021
   21.285    3.9389
   21.300    3.8125
   21.315    3.6914
   21.330    4.0284
   21.345    3.7388
   21.360    3.6704
   21.375    3.7757
   21.390    3.7757
   21.405    3.6072
   21.420    3.8283
   21.435    3.8599
   21.450    3.8178
   21.465    3.8547
   21.480    3.8073
   21.495    3.8915
   21.510    3.8863
   21.525    3.8599
   21.540    3.9179
   21.555    3.6809
   21.570    3.7177
   21.585    3.7546
   21.600    3.8915
   21.615    3.8810
   21.630    3.8652
   21.645    3.9284
   21.660    4.1180
   21.675    4.0758
   21.690    4.0706
   21.705    3.8705
   21.720    3.6756
   21.735    3.9126
   21.750    3.7177
   21.765    3.7599
   21.780    4.0390
   21.795    3.7862
   21.810    3.8757
   21.825    3.9810
   21.840    4.2233
   21.855    3.9231
   21.870    3.8757
   21.885    3.7967
   21.900    3.9442
   21.915    3.7177
   21.930    3.9442
   21.945    3.8441
   21.960    3.9547
   21.975    3.9442
   21.990    3.9810
   22.005    3.9916
   22.020    3.8231
   22.035    3.6651
   22.050    4.0653
   22.065    4.0495
   22.080    3.9652
   22.095    3.9863
   22.110    4.0074
   22.125    3.7493
   22.140    3.9284
   22.155    3.9494
   22.170    3.9021
   22.185    4.0284
   22.200    3.9652
   22.215    3.6756
   22.230    4.0232
   22.245    3.7599
   22.260    3.8599
   22.275    3.9494
   22.290    3.9494
   22.305    3.7862
   22.320    3.9547
   22.335    4.0074
   22.350    3.8283
   22.365    3.9442
   22.380    4.0548
   22.395    3.9073
   22.410    4.0495
   22.425    4.0179
   22.440    4.0074
   22.455    3.9336
   22.470    4.2496
   22.485    3.9336
   22.500    3.9547
   22.515    4.0337
   22.530    3.8915
   22.545    3.9810
   22.560    3.8441
   22.575    3.6335
   22.590    3.6282
   22.605    4.0390
   22.620    3.9968
   22.635    3.9547
   22.650    4.1074
   22.665    4.0442
   22.680    3.7072
   22.695    3.6651
   22.710    3.7335
   22.725    3.7283
   22.740    3.9600
   22.755    4.0179
   22.770    3.9494
   22.785    3.8705
   22.800    4.0916
   22.815    4.0495
   22.830    4.0074
   22.845    3.9284
   22.860    3.9968
   22.875    3.8073
   22.890    3.9073
   22.905    3.9810
   22.920    3.7441
   22.935    3.8389
   22.950    3.8231
   22.965    3.8599
   22.980    3.9705
   22.995    3.6282
   23.010    3.8863
   23.025    3.7493
   23.040    3.8073
   23.055    3.8389
   23.070    3.8283
   23.085    3.9126
   23.100    3.8599
   23.115    3.9179
   23.130    3.7441
   23.145    3.9389
   23.160    4.0653
   23.175    3.8283
   23.190    3.9126
   23.205    4.0916
   23.220    4.0390
   23.235    3.9968
   23.250    3.7862
   23.265    3.5492
   23.280    3.8073
   23.295    3.6651
   23.310    3.8283
   23.325    3.7809
   23.340    3.7072
   23.355    3.8968
   23.370    3.8968
   23.385    3.9916
   23.400    3.8389
   23.415    3.7967
   23.430    3.9389
   23.445    3.8915
   23.460    3.9652
   23.475    3.8705
   23.490    3.6756
   23.505    3.7125
   23.520    3.8231
   23.535    3.8599
   23.550    3.7704
   23.565    3.6019
   23.580    3.8652
   23.595    3.8389
   23.610    3.8494
   23.625    3.8283
   23.640    3.7599
   23.655    3.9231
   23.670    3.7704
   23.685    3.7862
   23.700    3.9126
   23.715    4.0758
   23.730    3.7809
   23.745    3.6440
   23.760    3.7704
   23.775    3.8020
   23.790    3.9073
   23.805    3.8389
   23.820    3.8652
   23.835    3.9705
   23.850    3.8125
   23.865    3.7177
   23.880    3.9389
   23.895    3.9073
   23.910    3.8336
   23.925    3.7125
   23.940    3.6862
   23.955    3.7546
   23.970    3.9073
   23.985    3.8968
   24.000    3.6967
   24.015    3.7915
   24.030    3.6230
   24.045    3.8915
   24.060    3.8494
   24.075    3.8178
   24.090    3.9863
   24.105    3.9494
   24.120    3.9968
   24.135    3.9758
   24.150    3.7862
   24.165    3.8547
   24.180    3.9073
   24.195    3.7704
   24.210    3.7335
   24.225    3.6440
   24.240    3.8020
   24.255    3.7862
   24.270    3.8178
   24.285    3.9968
   24.300    3.8389
   24.315    3.7757
   24.330    3.8915
   24.345    3.8915
   24.360    3.7704
   24.375    3.7283
   24.390    3.6809
   24.405    3.5598
   24.420    3.7757
   24.435    3.6388
   24.450    3.6967
   24.465    3.7757
   24.480    3.8389
   24.495    3.7230
   24.510    3.8020
   24.525    3.7388
   24.540    3.6230
   24.555    3.7546
   24.570    3.6230
   24.585    3.8336
   24.600    3.7283
   24.615    3.8178
   24.630    3.7283
   24.645    3.6756
   24.660    3.6230
   24.675    3.7125
   24.690    3.6914
   24.705    3.7072
   24.720    3.7125
   24.735    3.5545
   24.750    3.5966
   24.765    3.5966
   24.780    3.7862
   24.795    3.6440
   24.810    3.6809
   24.825    3.6440
   24.840    3.7441
   24.855    3.6862
   24.870    3.7388
   24.885    3.5914
   24.900    3.7072
   24.915    3.6651
   24.930    3.5545
   24.945    3.7072
   24.960    3.6546
   24.975    3.9073
   24.990    3.6967
   25.005    3.6809
   25.020    3.6967
   25.035    3.8125
   25.050    3.7915
   25.065    3.7125
   25.080    3.7915
   25.095    3.8547
   25.110    3.5229
   25.125    3.4492
   25.140    3.6335
   25.155    3.7704
   25.170    3.6019
   25.185    3.6493
   25.200    3.7757
   25.215    3.8336
   25.230    3.5124
   25.245    3.5861
   25.260    3.6756
   25.275    3.6651
   25.290    3.5176
   25.305    3.5598
   25.320    3.6177
   25.335    3.3491
   25.350    3.6124
   25.365    3.7283
   25.380    3.6809
   25.395    3.6335
   25.410    3.5914
   25.425    3.4544
   25.440    3.5703
   25.455    3.7177
   25.470    3.4860
   25.485    3.4071
   25.500    3.5334
   25.515    3.6967
   25.530    3.6440
   25.545    3.5229
   25.560    3.4334
   25.575    3.5650
   25.590    3.7230
   25.605    3.8178
   25.620    3.7230
   25.635    3.6914
   25.650    3.4071
   25.665    3.5282
   25.680    3.5492
   25.695    3.6177
   25.710    3.7283
   25.725    3.5229
   25.740    3.6282
   25.755    3.6493
   25.770    3.4808
   25.785    3.4281
   25.800    3.5598
   25.815    3.4439
   25.830    3.4597
   25.845    3.4966
   25.860    3.5545
   25.875    3.5387
   25.890    3.5861
   25.905    3.3017
   25.920    3.3755
   25.935    3.6704
   25.950    3.5334
   25.965    3.5018
   25.980    3.4966
   25.995    3.5861
   26.010    3.5440
   26.025    3.5703
   26.040    3.4387
   26.055    3.5282
   26.070    3.4702
   26.085    3.6598
   26.100    3.7177
   26.115    3.4808
   26.130    3.3913
   26.145    3.5703
   26.160    3.5914
   26.175    3.5124
   26.190    3.5440
   26.205    3.3597
   26.220    3.4860
   26.235    3.4123
   26.250    3.4176
   26.265    3.4966
   26.280    3.5914
   26.295    3.4913
   26.310    3.3807
   26.325    3.4018
   26.340    3.3175
   26.355    3.6862
   26.370    3.4387
   26.385    3.4071
   26.400    3.5334
   26.415    3.3491
   26.430    3.2965
   26.445    3.4176
   26.460    3.5440
   26.475    3.5334
   26.490    3.3544
   26.505    3.3860
   26.520    3.4281
   26.535    3.5124
   26.550    3.5282
   26.565    3.3228
   26.580    3.2965
   26.595    3.5387
   26.610    3.3281
   26.625    3.3491
   26.640    3.2807
   26.655    3.2754
   26.670    3.4755
   26.685    3.4702
   26.700    3.6230
   26.715    3.4808
   26.730    3.5756
   26.745    3.4808
   26.760    3.3913
   26.775    3.2859
   26.790    3.4387
   26.805    3.5018
   26.820    3.4755
   26.835    3.4913
   26.850    3.4071
   26.865    3.3807
   26.880    3.4018
   26.895    3.5176
   26.910    3.3386
   26.925    3.2385
   26.940    3.1490
   26.955    3.3017
   26.970    3.3702
   26.985    3.6967
   27.000    3.7388
   27.015    3.6335
   27.030    3.4439
   27.045    3.3491
   27.060    3.5018
   27.075    3.3702
   27.090    3.4176
   27.105    3.2385
   27.120    3.3702
   27.135    3.3386
   27.150    3.4913
   27.165    3.5492
   27.180    3.1859
   27.195    3.1806
   27.210    3.4860
   27.225    3.5071
   27.240    3.4966
   27.255    3.4334
   27.270    3.2701
   27.285    3.2859
   27.300    3.2175
   27.315    3.1648
   27.330    3.3491
   27.345    3.5282
   27.360    3.5756
   27.375    3.5018
   27.390    3.3333
   27.405    3.3017
   27.420    3.2385
   27.435    3.4071
   27.450    3.4018
   27.465    3.2701
   27.480    3.2649
   27.495    3.3965
   27.510    3.3491
   27.525    3.4387
   27.540    3.4439
   27.555    3.2965
   27.570    3.4229
   27.585    3.2754
   27.600    3.3597
   27.615    3.4544
   27.630    3.3807
   27.645    3.3913
   27.660    3.3175
   27.675    3.3544
   27.690    3.6651
   27.705    3.2965
   27.720    3.2965
   27.735    3.2438
   27.750    3.3807
   27.765    3.3649
   27.780    3.3281
   27.795    3.2649
   27.810    3.3544
   27.825    3.1648
   27.840    3.3491
   27.855    3.2491
   27.870    3.2175
   27.885    3.2859
   27.900    3.3965
   27.915    3.2491
   27.930    3.3070
   27.945    3.1648
   27.960    3.2754
   27.975    3.2649
   27.990    3.3544
   28.005    3.5440
   28.020    3.3070
   28.035    3.1859
   28.050    3.4808
   28.065    3.2912
   28.080    3.3386
   28.095    3.3913
   28.110    3.1859
   28.125    3.2596
   28.140    3.2912
   28.155    3.3386
   28.170    3.1385
   28.185    3.4334
   28.200    3.2385
   28.215    3.3017
   28.230    3.4597
   28.245    3.3755
   28.260    3.3281
   28.275    3.3491
   28.290    3.3123
   28.305    3.3333
   28.320    3.2385
   28.335    3.2122
   28.350    3.3281
   28.365    3.0964
   28.380    3.0174
   28.395    3.1701
   28.410    3.2070
   28.425    3.1543
   28.440    3.1701
   28.455    3.1280
   28.470    3.2227
   28.485    3.1280
   28.500    3.1964
   28.515    3.1280
   28.530    3.1332
   28.545    3.2965
   28.560    3.1754
   28.575    3.1806
   28.590    3.2122
   28.605    3.2912
   28.620    3.4018
   28.635    3.2807
   28.650    3.3913
   28.665    3.0700
   28.680    3.2965
   28.695    3.2227
   28.710    3.1543
   28.725    3.3965
   28.740    3.4071
   28.755    3.1754
   28.770    3.1596
   28.785    3.1543
   28.800    3.3333
   28.815    3.3281
   28.830    3.2385
   28.845    3.1438
   28.860    3.2175
   28.875    3.4071
   28.890    3.2649
   28.905    3.2227
   28.920    3.3175
   28.935    3.2596
   28.950    3.1069
   28.965    3.0384
   28.980    3.2491
   28.995    3.2543
   29.010    3.2596
   29.025    2.9173
   29.040    3.2385
   29.055    3.4492
   29.070    3.3070
   29.085    3.1227
   29.100    3.0753
   29.115    3.2596
   29.130    3.1490
   29.145    3.0648
   29.160    2.9700
   29.175    3.1543
   29.190    3.1964
   29.205    3.2070
   29.220    2.9805
   29.235    3.1332
   29.250    3.0648
   29.265    3.1596
   29.280    3.1859
   29.295    3.0226
   29.310    3.2912
   29.325    3.3807
   29.340    3.3491
   29.355    3.1701
   29.370    3.1701
   29.385    3.0858
   29.400    3.0121
   29.415    3.0437
   29.430    3.0753
   29.445    2.9753
   29.460    3.1543
   29.475    3.2333
   29.490    3.0911
   29.505    3.1385
   29.520    3.0648
   29.535    3.2017
   29.550    3.3175
   29.565    3.1227
   29.580    3.1543
   29.595    3.1754
   29.610    2.9384
   29.625    2.9910
   29.640    3.1227
   29.655    3.1122
   29.670    3.0964
   29.685    3.0332
   29.700    3.0858
   29.715    3.1016
   29.730    3.1648
   29.745    3.2280
   29.760    3.2438
   29.775    2.9068
   29.790    2.9700
   29.805    3.0174
   29.820    3.0542
   29.835    3.0174
   29.850    3.0753
   29.865    3.0437
   29.880    2.8541
   29.895    3.1596
   29.910    3.0174
   29.925    3.0121
   29.940    2.9963
   29.955    3.1016
   29.970    3.1490
   29.985    3.0753
   30.000    3.0964
   30.015    3.0700
   30.030    2.9226
   30.045    3.0542
   30.060    2.9173
   30.075    3.1859
   30.090    3.1227
   30.105    3.2175
   30.120    3.0121
   30.135    3.1174
   30.150    3.2807
   30.165    2.8910
   30.180    3.0595
   30.195    3.1332
   30.210    3.0542
   30.225    3.0226
   30.240    3.2227
   30.255    3.1438
   30.270    3.1490
   30.285    2.9963
   30.300    2.9226
   30.315    2.9489
   30.330    3.2227
   30.345    3.0490
   30.360    3.0332
   30.375    3.0068
   30.390    3.2965
   30.405    3.0964
   30.420    2.9542
   30.435    3.0226
   30.450    3.0279
   30.465    3.1069
   30.480    3.0753
   30.495    2.9279
   30.510    2.9963
   30.525    3.2701
   30.540    3.1596
   30.555    3.0279
   30.570    2.8436
   30.585    2.8699
   30.600    2.9384
   30.615    3.0753
   30.630    3.0753
   30.645    3.0121
   30.660    2.9753
   30.675    3.1280
   30.690    2.9647
   30.705    3.1596
   30.720    2.9121
   30.735    2.8436
   30.750    3.1122
   30.765    2.9647
   30.780    3.0542
   30.795    3.0332
   30.810    2.8752
   30.825    2.9858
   30.840    2.9595
   30.855    2.9279
   30.870    2.9384
   30.885    2.9068
   30.900    2.9542
   30.915    3.0332
   30.930    2.8805
   30.945    2.8173
   30.960    2.9068
   30.975    2.9700
   30.990    3.0858
   31.005    3.1016
   31.020    2.9910
   31.035    3.0911
   31.050    2.8647
   31.065    2.7699
   31.080    2.8383
   31.095    2.8120
   31.110    2.9015
   31.125    3.1859
   31.140    3.0437
   31.155    3.0911
   31.170    3.0016
   31.185    2.9173
   31.200    2.9858
   31.215    2.9121
   31.230    3.0332
   31.245    3.1490
   31.260    2.8805
   31.275    2.8278
   31.290    2.9963
   31.305    3.0753
   31.320    3.0068
   31.335    2.6698
   31.350    2.8963
   31.365    3.0068
   31.380    2.8278
   31.395    2.8278
   31.410    2.9595
   31.425    3.0700
   31.440    3.0490
   31.455    2.9331
   31.470    3.0595
   31.485    2.8857
   31.500    3.1438
   31.515    2.7962
   31.530    2.9963
   31.545    3.0753
   31.560    3.0437
   31.575    3.1174
   31.590    2.8857
   31.605    2.9068
   31.620    2.8963
   31.635    2.9384
   31.650    2.9173
   31.665    2.8436
   31.680    2.8857
   31.695    3.0490
   31.710    2.9331
   31.725    2.7909
   31.740    2.7804
   31.755    2.8173
   31.770    2.7699
   31.785    2.8699
   31.800    2.8436
   31.815    2.7962
   31.830    2.9226
   31.845    2.7857
   31.860    2.8594
   31.875    2.8699
   31.890    2.7330
   31.905    2.7067
   31.920    2.6066
   31.935    2.6751
   31.950    2.8225
   31.965    2.7435
   31.980    2.8120
   31.995    2.7014
   32.010    2.7541
   32.025    2.7278
   32.040    2.8067
   32.055    2.7541
   32.070    2.9226
   32.085    2.8805
   32.100    2.8436
   32.115    3.0174
   32.130    2.9068
   32.145    2.6382
   32.160    2.7067
   32.175    2.8015
   32.190    2.6224
   32.205    2.7699
   32.220    2.8910
   32.235    2.8225
   32.250    2.8910
   32.265    2.8225
   32.280    2.8120
   32.295    2.8067
   32.310    2.6962
   32.325    2.6698
   32.340    2.8278
   32.355    2.8857
   32.370    2.6646
   32.385    2.6962
   32.400    2.5592
   32.415    2.6804
   32.430    2.8699
   32.445    2.9015
   32.460    2.8541
   32.475    2.6488
   32.490    2.7067
   32.505    2.7699
   32.520    2.7330
   32.535    2.7857
   32.550    2.7488
   32.565    2.8173
   32.580    2.7593
   32.595    2.8805
   32.610    2.8173
   32.625    2.6909
   32.640    2.6488
   32.655    2.5908
   32.670    2.6646
   32.685    2.8963
   32.700    2.8383
   32.715    2.6698
   32.730    2.6540
   32.745    2.6540
   32.760    2.8857
   32.775    2.7172
   32.790    2.6488
   32.805    2.5066
   32.820    2.6856
   32.835    2.8278
   32.850    2.6909
   32.865    2.5276
   32.880    2.5698
   32.895    2.6330
   32.910    2.6909
   32.925    2.6014
   32.940    2.6119
   32.955    2.7751
   32.970    2.7172
   32.985    2.7014
   33.000    2.6014
   33.015    2.5329
   33.030    2.6593
   33.045    2.6962
   33.060    2.6435
   33.075    2.6593
   33.090    2.5487
   33.105    2.6224
   33.120    2.7435
   33.135    2.5750
   33.150    2.5066
   33.165    2.5434
   33.180    2.7383
   33.195    2.5382
   33.210    2.5487
   33.225    2.5803
   33.240    2.4539
   33.255    2.5592
   33.270    2.7593
   33.285    2.5750
   33.300    2.5224
   33.315    2.5750
   33.330    2.5487
   33.345    2.7014
   33.360    2.5224
   33.375    2.4750
   33.390    2.3591
   33.405    2.4171
   33.420    2.3802
   33.435    2.7067
   33.450    2.5856
   33.465    2.4276
   33.480    2.4961
   33.495    2.6751
   33.510    2.4276
   33.525    2.5224
   33.540    2.5961
   33.555    2.5961
   33.570    2.5645
   33.585    2.6330
   33.600    2.6014
   33.615    2.6962
   33.630    2.5013
   33.645    2.6014
   33.660    2.6382
   33.675    2.6172
   33.690    2.6277
   33.705    2.6277
   33.720    2.4171
   33.735    2.4592
   33.750    2.5013
   33.765    2.5961
   33.780    2.5013
   33.795    2.6646
   33.810    2.3907
   33.825    2.4803
   33.840    2.5803
   33.855    2.6540
   33.870    2.5276
   33.885    2.5276
   33.900    2.6066
   33.915    2.5592
   33.930    2.5382
   33.945    2.4065
   33.960    2.5118
   33.975    2.7014
   33.990    2.6751
   34.005    2.3223
   34.020    2.3433
   34.035    2.4118
   34.050    2.5118
   34.065    2.3802
   34.080    2.4487
   34.095    2.5961
   34.110    2.5013
   34.125    2.4487
   34.140    2.5434
   34.155    2.6330
   34.170    2.5750
   34.185    2.4223
   34.200    2.5592
   34.215    2.5329
   34.230    2.4750
   34.245    2.4645
   34.260    2.5013
   34.275    2.5540
   34.290    2.4434
   34.305    2.3802
   34.320    2.3644
   34.335    2.3960
   34.350    2.4329
   34.365    2.3749
   34.380    2.4697
   34.395    2.4381
   34.410    2.2380
   34.425    2.2591
   34.440    2.4592
   34.455    2.3644
   34.470    2.3749
   34.485    2.4434
   34.500    2.4329
   34.515    2.4855
   34.530    2.5329
   34.545    2.4539
   34.560    2.4118
   34.575    2.4645
   34.590    2.3328
   34.605    2.3749
   34.620    2.3855
   34.635    2.2907
   34.650    2.2696
   34.665    2.4171
   34.680    2.5645
   34.695    2.5434
   34.710    2.3539
   34.725    2.2854
   34.740    2.4276
   34.755    2.3802
   34.770    2.4750
   34.785    2.4381
   34.800    2.4013
   34.815    2.5118
   34.830    2.3170
   34.845    2.4013
   34.860    2.3012
   34.875    2.4592
   34.890    2.4013
   34.905    2.2012
   34.920    2.3065
   34.935    2.2275
   34.950    2.3644
   34.965    2.2591
   34.980    2.4171
   34.995    2.4855
   35.010    2.3802
   35.025    2.3644
   35.040    2.4065
   35.055    2.3539
   35.070    2.4171
   35.085    2.4645
   35.100    2.3433
   35.115    2.2696
   35.130    2.3591
   35.145    2.2801
   35.160    2.2538
   35.175    2.3855
   35.190    2.1959
   35.205    2.2643
   35.220    2.2222
   35.235    2.1590
   35.250    2.3749
   35.265    2.2749
   35.280    2.4118
   35.295    2.3223
   35.310    2.3644
   35.325    2.3223
   35.340    2.3539
   35.355    2.3381
   35.370    2.5171
   35.385    2.2433
   35.400    2.4118
   35.415    2.4276
   35.430    2.2275
   35.445    2.4013
   35.460    2.3539
   35.475    2.2275
   35.490    2.3960
   35.505    2.3802
   35.520    2.2170
   35.535    2.3275
   35.550    2.1643
   35.565    2.2696
   35.580    2.3486
   35.595    2.2959
   35.610    2.1327
   35.625    2.2591
   35.640    2.3065
   35.655    2.2117
   35.670    2.3381
   35.685    2.3117
   35.700    2.2591
   35.715    2.1959
   35.730    2.2117
   35.745    2.3328
   35.760    2.3065
   35.775    2.3170
   35.790    2.3328
   35.805    2.3644
   35.820    2.1854
   35.835    2.0748
   35.850    2.2064
   35.865    2.2012
   35.880    2.2854
   35.895    2.0800
   35.910    2.1169
   35.925    2.1854
   35.940    2.3328
   35.955    2.2959
   35.970    2.2064
   35.985    2.2222
   36.000    2.1590
   36.015    2.1801
   36.030    2.2117
   36.045    2.2538
   36.060    2.0642
   36.075    2.1327
   36.090    2.0537
   36.105    2.1011
   36.120    2.2696
   36.135    2.0326
   36.150    2.1432
   36.165    2.2328
   36.180    2.2328
   36.195    2.0748
   36.210    2.1327
   36.225    2.1643
   36.240    2.1959
   36.255    2.1959
   36.270    2.2749
   36.285    2.1748
   36.300    2.2170
   36.315    2.2486
   36.330    2.2222
   36.345    2.1643
   36.360    2.1485
   36.375    2.1116
   36.390    2.3802
   36.405    2.3170
   36.420    2.2222
   36.435    2.1801
   36.450    2.2591
   36.465    2.2012
   36.480    2.0853
   36.495    2.1538
   36.510    2.1696
   36.525    2.1906
   36.540    2.2064
   36.555    2.1959
   36.570    2.2538
   36.585    2.2380
   36.600    2.2486
   36.615    2.1380
   36.630    2.2012
   36.645    2.1222
   36.660    2.1643
   36.675    2.1643
   36.690    2.1801
   36.705    2.1748
   36.720    2.1116
   36.735    2.1748
   36.750    2.0906
   36.765    1.9273
   36.780    2.1485
   36.795    2.2854
   36.810    2.3275
   36.825    2.1380
   36.840    2.0011
   36.855    2.0379
   36.870    2.2801
   36.885    2.2696
   36.900    2.1485
   36.915    2.2959
   36.930    2.0853
   36.945    2.1485
   36.960    2.2170
   36.975    2.0326
   36.990    2.0537
   37.005    2.1748
   37.020    2.2591
   37.035    2.0853
   37.050    2.1590
   37.065    2.1380
   37.080    2.1485
   37.095    2.0642
   37.110    2.0695
   37.125    2.0484
   37.140    2.0379
   37.155    2.1432
   37.170    2.1590
   37.185    2.0695
   37.200    2.2170
   37.215    2.2170
   37.230    2.0274
   37.245    2.0484
   37.260    2.0853
   37.275    1.9168
   37.290    2.1169
   37.305    2.1116
   37.320    2.0800
   37.335    2.0800
   37.350    2.1485
   37.365    2.1485
   37.380    2.1064
   37.395    2.1274
   37.410    2.1906
   37.425    2.1169
   37.440    2.0484
   37.455    2.0169
   37.470    2.1590
   37.485    2.2591
   37.500    1.8115
   37.515    1.9010
   37.530    2.1380
   37.545    2.1748
   37.560    2.0958
   37.575    1.9273
   37.590    2.0853
   37.605    2.2170
   37.620    2.0958
   37.635    2.0063
   37.650    2.0695
   37.665    2.0642
   37.680    2.0958
   37.695    2.1801
   37.710    2.1064
   37.725    2.0537
   37.740    2.0432
   37.755    2.1169
   37.770    2.0800
   37.785    1.9747
   37.800    1.8747
   37.815    2.0221
   37.830    2.0537
   37.845    1.8799
   37.860    2.0116
   37.875    1.9537
   37.890    2.0326
   37.905    1.9168
   37.920    1.9853
   37.935    2.0695
   37.950    2.1643
   37.965    2.1222
   37.980    2.0484
   37.995    2.0432
   38.010    2.0274
   38.025    2.0326
   38.040    2.1274
   38.055    2.1169
   38.070    2.0958
   38.085    2.0484
   38.100    1.9695
   38.115    1.9326
   38.130    2.0642
   38.145    2.1064
   38.160    2.0274
   38.175    1.8957
   38.190    2.0063
   38.205    2.1064
   38.220    2.2801
   38.235    2.0748
   38.250    2.1380
   38.265    2.0958
   38.280    2.0274
   38.295    1.9695
   38.310    1.7746
   38.325    2.1011
   38.340    1.9695
   38.355    1.9379
   38.370    1.9905
   38.385    2.0379
   38.400    1.9642
   38.415    2.0432
   38.430    1.8536
   38.445    1.9537
   38.460    2.0116
   38.475    1.8747
   38.490    1.8483
   38.505    1.8641
   38.520    2.0695
   38.535    1.9695
   38.550    2.0063
   38.565    2.0274
   38.580    2.1274
   38.595    2.0906
   38.610    2.0063
   38.625    2.0958
   38.640    1.9958
   38.655    1.8115
   38.670    1.9747
   38.685    1.9905
   38.700    1.9905
   38.715    2.0432
   38.730    2.0063
   38.745    2.1327
   38.760    2.2801
   38.775    2.0432
   38.790    1.9326
   38.805    2.1169
   38.820    2.0326
   38.835    2.0379
   38.850    2.0326
   38.865    2.0169
   38.880    1.9379
   38.895    1.9905
   38.910    2.0432
   38.925    2.1011
   38.940    2.1222
   38.955    2.0063
   38.970    2.0484
   38.985    2.1064
   39.000    1.9800
   39.015    2.0432
   39.030    1.9273
   39.045    1.9800
   39.060    1.8273
   39.075    2.0274
   39.090    2.0169
   39.105    1.9326
   39.120    1.9221
   39.135    2.0642
   39.150    1.9010
   39.165    1.9168
   39.180    2.0853
   39.195    1.9800
   39.210    2.0537
   39.225    2.0011
   39.240    1.9537
   39.255    1.9168
   39.270    2.0642
   39.285    2.0958
   39.300    2.0169
   39.315    2.0642
   39.330    2.0169
   39.345    1.8431
   39.360    1.8325
   39.375    1.8325
   39.390    1.9747
   39.405    1.8220
   39.420    1.8167
   39.435    1.9589
   39.450    2.0906
   39.465    1.9853
   39.480    1.8641
   39.495    2.0221
   39.510    2.1011
   39.525    2.0011
   39.540    1.9853
   39.555    1.9747
   39.570    1.9589
   39.585    2.0958
   39.600    1.8220
   39.615    1.9537
   39.630    2.1222
   39.645    2.0432
   39.660    2.0800
   39.675    1.9063
   39.690    1.8694
   39.705    2.0116
   39.720    2.0800
   39.735    1.9695
   39.750    2.0432
   39.765    1.9800
   39.780    1.9695
   39.795    1.8905
   39.810    1.8641
   39.825    1.8220
   39.840    2.0484
   39.855    2.0063
   39.870    1.9800
   39.885    1.9221
   39.900    1.9273
   39.915    1.9221
   39.930    1.9431
   39.945    2.1011
   39.960    1.9326
   39.975    2.0432
   39.990    2.0274
