    1.500   15.3133
    1.515   15.3344
    1.530   15.2923
    1.545   15.2712
    1.560   14.9026
    1.575   14.3444
    1.590   14.5445
    1.605   13.7757
    1.620   14.5340
    1.635   13.7125
    1.650   13.1543
    1.665   13.2175
    1.680   13.3544
    1.695   13.0595
    1.710   12.7225
    1.725   12.3749
    1.740   12.1538
    1.755   11.9221
    1.770   11.7641
    1.785   11.7536
    1.800   11.9431
    1.815   11.3639
    1.830   11.6798
    1.845   11.6588
    1.860   10.8268
    1.875   10.8268
    1.890   11.2270
    1.905   10.4581
    1.920    9.9842
    1.935   10.5003
    1.950   10.1632
    1.965   10.4581
    1.980   10.0263
    1.995   10.2475
    2.010   10.3318
    2.025   10.1211
    2.040   10.3318
    2.055    9.6998
    2.070    9.7736
    2.085    9.0469
    2.100    9.7420
    2.115    9.3418
    2.130    9.2680
    2.145    9.1838
    2.160    8.7836
    2.175    8.8678
    2.190    9.4787
    2.205    9.6682
    2.220    8.6888
    2.235    8.9731
    2.250    9.0890
    2.265    9.2680
    2.280    8.8152
    2.295    9.0574
    2.310    9.0469
    2.325    8.6467
    2.340    8.5519
    2.355    8.4150
    2.370    8.6993
    2.385    8.3728
    2.400    8.4150
    2.415    8.2991
    2.430    8.0147
    2.445    8.2780
    2.460    8.6151
    2.475    8.3096
    2.490    8.1833
    2.505    8.1306
    2.520    8.1411
    2.535    7.9831
    2.550    8.2570
    2.565    8.4044
    2.580    8.3939
    2.595    8.2464
    2.610    8.4044
    2.625    8.5203
    2.640    8.4992
    2.655    8.0569
    2.670    8.4571
    2.685    8.8152
    2.700    8.5519
    2.715    8.6888
    2.730    8.2675
    2.745    8.4992
    2.760    8.8784
    2.775    8.9205
    2.790    8.2675
    2.805    8.4781
    2.820    8.9100
    2.835    9.1417
    2.850    9.2364
    2.865    8.7941
    2.880    9.3102
    2.895    9.4155
    2.910    9.9105
    2.925    9.9105
    2.940    9.6261
    2.955    9.8473
    2.970    9.3734
    2.985   10.1422
    3.000   10.2580
    3.015   10.5424
    3.030   10.6793
    3.045   11.2902
    3.060   11.4376
    3.075   12.3328
    3.090   12.2591
    3.105   12.7436
    3.120   13.0806
    3.135   12.9226
    3.150   14.0179
    3.165   13.6177
    3.180   14.7341
    3.195   15.7451
    3.210   16.5245
    3.225   16.7351
    3.240   17.4829
    3.255   18.5466
    3.270   19.1785
    3.285   19.8210
    3.300   21.2006
    3.315   22.3065
    3.330   23.8652
    3.345   24.6867
    3.360   27.2249
    3.375   28.2780
    3.390   30.0895
    3.405   31.4271
    3.420   33.6072
    3.435   34.7762
    3.450   35.9663
    3.465   35.2923
    3.480   34.3549
    3.495   32.0695
    3.510   29.1627
    3.525   26.0769
    3.540   23.7177
    3.555   21.0321
    3.570   18.6519
    3.585   16.3876
    3.600   15.2185
    3.615   14.6603
    3.630   13.8915
    3.645   13.4913
    3.660   13.4071
    3.675   12.8383
    3.690   13.0174
    3.705   12.8489
    3.720   13.1227
    3.735   12.3644
    3.750   12.4065
    3.765   12.8489
    3.780   13.7230
    3.795   13.9652
    3.810   13.2175
    3.825   13.6388
    3.840   14.0811
    3.855   13.7862
    3.870   14.5761
    3.885   14.7341
    3.900   14.4602
    3.915   13.9968
    3.930   14.9658
    3.945   14.9447
    3.960   15.1975
    3.975   15.4924
    3.990   15.7557
    4.005   16.4718
    4.020   16.6403
    4.035   16.5245
    4.050   16.3033
    4.065   16.0927
    4.080   16.4718
    4.095   16.4402
    4.110   15.9242
    4.125   15.8083
    4.140   15.3555
    4.155   14.7341
    4.170   15.3449
    4.185   15.2291
    4.200   14.9658
    4.215   13.6914
    4.230   13.5124
    4.245   13.4387
    4.260   12.4381
    4.275   12.2486
    4.290   11.7746
    4.305   11.5534
    4.320   10.8478
    4.335   10.4897
    4.350   10.2791
    4.365    9.9631
    4.380    9.1101
    4.395    8.9205
    4.410    9.0153
    4.425    8.5203
    4.440    8.5097
    4.455    8.0463
    4.470    8.0990
    4.485    7.7409
    4.500    7.6883
    4.515    7.5408
    4.530    7.2038
    4.545    6.4244
    4.560    6.6140
    4.575    6.6772
    4.590    7.1933
    4.605    6.6877
    4.620    6.5613
    4.635    7.1406
    4.650    7.0985
    4.665    6.5824
    4.680    6.3612
    4.695    6.3086
    4.710    6.4244
    4.725    6.4244
    4.740    6.6245
    4.755    6.6351
    4.770    6.4876
    4.785    6.4560
    4.800    6.5719
    4.815    6.4034
    4.830    6.5403
    4.845    6.5403
    4.860    6.3928
    4.875    6.3086
    4.890    6.0979
    4.905    6.2875
    4.920    6.2559
    4.935    6.7193
    4.950    6.3928
    4.965    6.5087
    4.980    6.5192
    4.995    6.2665
    5.010    6.5824
    5.025    6.6035
    5.040    6.3612
    5.055    6.4244
    5.070    6.3823
    5.085    6.6035
    5.100    6.6877
    5.115    6.4455
    5.130    6.6035
    5.145    6.4982
    5.160    6.4560
    5.175    6.1611
    5.190    6.8246
    5.205    7.2354
    5.220    6.5929
    5.235    6.8562
    5.250    7.2038
    5.265    7.4776
    5.280    7.0248
    5.295    7.0142
    5.310    7.3407
    5.325    7.0037
    5.340    7.0248
    5.355    7.3512
    5.370    6.9405
    5.385    7.3407
    5.400    6.9510
    5.415    7.2880
    5.430    7.1933
    5.445    7.1511
    5.460    7.5197
    5.475    7.1406
    5.490    7.0879
    5.505    7.3828
    5.520    7.5303
    5.535    7.4144
    5.550    7.2775
    5.565    7.3091
    5.580    7.8673
    5.595    7.7514
    5.610    7.3512
    5.625    7.4144
    5.640    7.2459
    5.655    7.4250
    5.670    7.2775
    5.685    6.7509
    5.700    7.3091
    5.715    7.3934
    5.730    6.7088
    5.745    6.8352
    5.760    6.7193
    5.775    6.1822
    5.790    6.5192
    5.805    6.5929
    5.820    6.6140
    5.835    6.4771
    5.850    6.2665
    5.865    6.6877
    5.880    6.6983
    5.895    6.0348
    5.910    6.3191
    5.925    6.0137
    5.940    5.9716
    5.955    6.1401
    5.970    5.9505
    5.985    6.0874
    6.000    5.9505
    6.015    6.1927
    6.030    5.9716
    6.045    5.6451
    6.060    5.8452
    6.075    5.9084
    6.090    5.6556
    6.105    5.7925
    6.120    5.7188
    6.135    5.5819
    6.150    5.5503
    6.165    5.9294
    6.180    5.4871
    6.195    5.0026
    6.210    5.4134
    6.225    5.8452
    6.240    5.2870
    6.255    5.3186
    6.270    5.2975
    6.285    5.1922
    6.300    5.4134
    6.315    5.0764
    6.330    5.6345
    6.345    5.3186
    6.360    5.4239
    6.375    5.3607
    6.390    5.4660
    6.405    5.5398
    6.420    5.3081
    6.435    5.1606
    6.450    5.1711
    6.465    5.3818
    6.480    5.3186
    6.495    5.5714
    6.510    5.0974
    6.525    5.1922
    6.540    5.4239
    6.555    5.2238
    6.570    5.3818
    6.585    5.3291
    6.600    5.3607
    6.615    5.1395
    6.630    5.1817
    6.645    5.4028
    6.660    5.4450
    6.675    5.2449
    6.690    5.5398
    6.705    5.5187
    6.720    5.6661
    6.735    5.6661
    6.750    5.3923
    6.765    5.7609
    6.780    5.9189
    6.795    5.9610
    6.810    5.6240
    6.825    6.0874
    6.840    6.2243
    6.855    6.4560
    6.870    6.2559
    6.885    6.2770
    6.900    7.3091
    6.915    7.0985
    6.930    7.6777
    6.945    7.1933
    6.960    7.4671
    6.975    7.3196
    6.990    7.3196
    7.005    7.1301
    7.020    7.0669
    7.035    6.2454
    7.050    5.8241
    7.065    5.4344
    7.080    5.7083
    7.095    5.9084
    7.110    5.5819
    7.125    5.4239
    7.140    4.8763
    7.155    5.2343
    7.170    5.1080
    7.185    4.7815
    7.200    4.6972
    7.215    4.8341
    7.230    4.8552
    7.245    4.9078
    7.260    4.5919
    7.275    4.7077
    7.290    4.4339
    7.305    4.4760
    7.320    4.5603
    7.335    4.4339
    7.350    4.5498
    7.365    4.4128
    7.380    4.5287
    7.395    4.4444
    7.410    4.4760
    7.425    4.8552
    7.440    4.6235
    7.455    4.2654
    7.470    4.5814
    7.485    4.2022
    7.500    4.4444
    7.515    4.2654
    7.530    4.2970
    7.545    4.2549
    7.560    4.2549
    7.575    4.4655
    7.590    4.2233
    7.605    3.8863
    7.620    4.4023
    7.635    4.6130
    7.650    4.4655
    7.665    4.4760
    7.680    4.3707
    7.695    4.4234
    7.710    4.0758
    7.725    4.0864
    7.740    4.2233
    7.755    4.1074
    7.770    4.0864
    7.785    4.5287
    7.800    4.1285
    7.815    4.1917
    7.830    4.2338
    7.845    4.4339
    7.860    4.2127
    7.875    4.1917
    7.890    4.1285
    7.905    4.2338
    7.920    4.3181
    7.935    4.2970
    7.950    4.4444
    7.965    4.3181
    7.980    4.5814
    7.995    4.5708
    8.010    4.4444
    8.025    4.5708
    8.040    4.4234
    8.055    4.1601
    8.070    4.3497
    8.085    4.4971
    8.100    4.5708
    8.115    4.4550
    8.130    4.4760
    8.145    4.6656
    8.160    4.5392
    8.175    4.4866
    8.190    4.3918
    8.205    4.3286
    8.220    4.3181
    8.235    4.8657
    8.250    4.6340
    8.265    4.2865
    8.280    4.2233
    8.295    4.1706
    8.310    4.4234
    8.325    4.1390
    8.340    4.2865
    8.355    4.2970
    8.370    4.1811
    8.385    4.2865
    8.400    4.3602
    8.415    4.5919
    8.430    4.5708
    8.445    4.4128
    8.460    4.3391
    8.475    4.7604
    8.490    4.1917
    8.505    4.2654
    8.520    4.3286
    8.535    4.0864
    8.550    4.4023
    8.565    4.4128
    8.580    4.3286
    8.595    4.7288
    8.610    4.1285
    8.625    3.8652
    8.640    4.1180
    8.655    3.9073
    8.670    4.1917
    8.685    3.9389
    8.700    3.8968
    8.715    4.0021
    8.730    3.8652
    8.745    3.8020
    8.760    3.7493
    8.775    3.8336
    8.790    3.6124
    8.805    3.9073
    8.820    3.5914
    8.835    3.7493
    8.850    3.8968
    8.865    3.9389
    8.880    3.9389
    8.895    3.9600
    8.910    3.8652
    8.925    3.8757
    8.940    3.5387
    8.955    3.5914
    8.970    3.3807
    8.985    3.2543
    9.000    3.3491
    9.015    3.6230
    9.030    3.8336
    9.045    3.8231
    9.060    3.5282
    9.075    3.6230
    9.090    3.6335
    9.105    3.4755
    9.120    3.5598
    9.135    3.7599
    9.150    3.6967
    9.165    3.4229
    9.180    3.3491
    9.195    3.3175
    9.210    3.4755
    9.225    3.3281
    9.240    3.4966
    9.255    3.5071
    9.270    3.2965
    9.285    3.4018
    9.300    3.1280
    9.315    3.2017
    9.330    3.6230
    9.345    3.3702
    9.360    3.4123
    9.375    3.5176
    9.390    3.4650
    9.405    3.5703
    9.420    3.4755
    9.435    3.2965
    9.450    3.3491
    9.465    3.6230
    9.480    3.8968
    9.495    3.3807
    9.510    3.4334
    9.525    3.4018
    9.540    3.3281
    9.555    3.3386
    9.570    3.5492
    9.585    3.3597
    9.600    3.2227
    9.615    3.1490
    9.630    3.0121
    9.645    3.2649
    9.660    3.1490
    9.675    3.2122
    9.690    3.3070
    9.705    3.4334
    9.720    3.2859
    9.735    3.2859
    9.750    3.3597
    9.765    3.4439
    9.780    3.4544
    9.795    3.6546
    9.810    3.3913
    9.825    3.5808
    9.840    3.2754
    9.855    3.3386
    9.870    3.4755
    9.885    3.2649
    9.900    3.3807
    9.915    3.3913
    9.930    3.6124
    9.945    3.2754
    9.960    3.5492
    9.975    3.6862
    9.990    3.3491
   10.005    3.3913
   10.020    3.5598
   10.035    3.5703
   10.050    3.4018
   10.065    3.0437
   10.080    3.1912
   10.095    3.2859
   10.110    3.5703
   10.125    3.6230
   10.140    3.5703
   10.155    3.5598
   10.170    3.5598
   10.185    3.3281
   10.200    3.3491
   10.215    3.4439
   10.230    3.2438
   10.245    3.2649
   10.260    3.7177
   10.275    3.5176
   10.290    3.4334
   10.305    3.2649
   10.320    3.2543
   10.335    3.2859
   10.350    3.6124
   10.365    3.4544
   10.380    3.8020
   10.395    3.6440
   10.410    3.3070
   10.425    3.6019
   10.440    3.6651
   10.455    3.6756
   10.470    3.6651
   10.485    3.6651
   10.500    3.4544
   10.515    3.6335
   10.530    3.3807
   10.545    3.6019
   10.560    3.6124
   10.575    3.5071
   10.590    3.3386
   10.605    3.6862
   10.620    3.4966
   10.635    3.5071
   10.650    3.5387
   10.665    3.7177
   10.680    3.4650
   10.695    3.5914
   10.710    3.7177
   10.725    3.4123
   10.740    3.5598
   10.755    3.2754
   10.770    4.0232
   10.785    3.5176
   10.800    3.4229
   10.815    3.7915
   10.830    3.7283
   10.845    3.6546
   10.860    3.5282
   10.875    3.8441
   10.890    3.5703
   10.905    3.4334
   10.920    3.5808
   10.935    3.5598
   10.950    3.4650
   10.965    3.8020
   10.980    3.5282
   10.995    3.5176
   11.010    3.4755
   11.025    3.6756
   11.040    3.3281
   11.055    3.4229
   11.070    3.5808
   11.085    3.5808
   11.100    3.5703
   11.115    3.6756
   11.130    3.7493
   11.145    3.6440
   11.160    3.6967
   11.175    3.4966
   11.190    3.5387
   11.205    3.3807
   11.220    3.5703
   11.235    3.5808
   11.250    3.2754
   11.265    3.5387
   11.280    3.5387
   11.295    3.4755
   11.310    3.6124
   11.325    3.4966
   11.340    3.5387
   11.355    3.7704
   11.370    3.5387
   11.385    3.5703
   11.400    3.2965
   11.415    3.6124
   11.430    3.5598
   11.445    3.5492
   11.460    3.6335
   11.475    3.6546
   11.490    3.4018
   11.505    3.7283
   11.520    3.4966
   11.535    3.4334
   11.550    3.4334
   11.565    3.6546
   11.580    3.5176
   11.595    3.6440
   11.610    3.8652
   11.625    3.6967
   11.640    3.7388
   11.655    3.4966
   11.670    3.3702
   11.685    3.3597
   11.700    3.2754
   11.715    3.3386
   11.730    3.4439
   11.745    3.2438
   11.760    3.5387
   11.775    3.4650
   11.790    3.6862
   11.805    3.4334
   11.820    3.4755
   11.835    3.4229
   11.850    3.5703
   11.865    3.7177
   11.880    3.5071
   11.895    3.1701
   11.910    3.4439
   11.925    3.3597
   11.940    3.2965
   11.955    3.4018
   11.970    3.6862
   11.985    3.5703
   12.000    3.7493
   12.015    3.4123
   12.030    3.3386
   12.045    3.4229
   12.060    3.5282
   12.075    3.4123
   12.090    3.3175
   12.105    3.5282
   12.120    3.7283
   12.135    3.5387
   12.150    3.3597
   12.165    3.6124
   12.180    3.5176
   12.195    3.6546
   12.210    3.2965
   12.225    3.4966
   12.240    3.5387
   12.255    3.5071
   12.270    3.6124
   12.285    3.3597
   12.300    3.5914
   12.315    3.7283
   12.330    3.6124
   12.345    3.9179
   12.360    3.6124
   12.375    3.4439
   12.390    3.3913
   12.405    3.8863
   12.420    4.0126
   12.435    3.6546
   12.450    3.2333
   12.465    3.6230
   12.480    3.7915
   12.495    3.7283
   12.510    3.6440
   12.525    3.3386
   12.540    3.4966
   12.555    3.4439
   12.570    3.2965
   12.585    3.4650
   12.600    3.8020
   12.615    3.4439
   12.630    3.5492
   12.645    3.6019
   12.660    3.4650
   12.675    3.8231
   12.690    3.6756
   12.705    3.6651
   12.720    3.8968
   12.735    3.4860
   12.750    3.7809
   12.765    3.8441
   12.780    3.4966
   12.795    3.8020
   12.810    3.6335
   12.825    3.3175
   12.840    3.7493
   12.855    3.5492
   12.870    3.6967
   12.885    3.6124
   12.900    3.3702
   12.915    3.5282
   12.930    3.2017
   12.945    3.3807
   12.960    3.6019
   12.975    3.5176
   12.990    3.6546
   13.005    3.4966
   13.020    3.6124
   13.035    3.4229
   13.050    3.7388
   13.065    3.3597
   13.080    3.3913
   13.095    3.5071
   13.110    3.5176
   13.125    3.6124
   13.140    3.6440
   13.155    3.3597
   13.170    3.4544
   13.185    3.6440
   13.200    3.5387
   13.215    3.3281
   13.230    3.3702
   13.245    3.2543
   13.260    3.6019
   13.275    3.5914
   13.290    3.5703
   13.305    3.3281
   13.320    3.3702
   13.335    3.5071
   13.350    3.2859
   13.365    3.3070
   13.380    3.1912
   13.395    3.6967
   13.410    3.4229
   13.425    3.4018
   13.440    3.5808
   13.455    3.6335
   13.470    3.5071
   13.485    3.6440
   13.500    3.3807
   13.515    3.2965
   13.530    3.3491
   13.545    3.3702
   13.560    3.3807
   13.575    3.6546
   13.590    3.3175
   13.605    3.5703
   13.620    3.3702
   13.635    3.5808
   13.650    3.5598
   13.665    3.3807
   13.680    3.3702
   13.695    3.5282
   13.710    3.4229
   13.725    3.2227
   13.740    3.3070
   13.755    3.1912
   13.770    3.1490
   13.785    3.5914
   13.800    3.5914
   13.815    3.5598
   13.830    3.5282
   13.845    3.6756
   13.860    3.7177
   13.875    3.5703
   13.890    3.7072
   13.905    3.4650
   13.920    3.5282
   13.935    3.3070
   13.950    3.5914
   13.965    3.6756
   13.980    3.3807
   13.995    3.8231
   14.010    3.6019
   14.025    3.5387
   14.040    3.7493
   14.055    3.6651
   14.070    3.6440
   14.085    3.6651
   14.100    3.4229
   14.115    3.5071
   14.130    3.8336
   14.145    3.8652
   14.160    3.4229
   14.175    3.8020
   14.190    3.6230
   14.205    3.6124
   14.220    3.7072
   14.235    3.8863
   14.250    3.8020
   14.265    3.8547
   14.280    3.6019
   14.295    3.6967
   14.310    4.0232
   14.325    3.6756
   14.340    3.7599
   14.355    3.8336
   14.370    3.7915
   14.385    3.6546
   14.400    3.7283
   14.415    3.7704
   14.430    3.5914
   14.445    4.0021
   14.460    3.5176
   14.475    3.8020
   14.490    3.7283
   14.505    3.4123
   14.520    3.4439
   14.535    3.4123
   14.550    3.6546
   14.565    3.7388
   14.580    3.6651
   14.595    3.5387
   14.610    3.5914
   14.625    3.6335
   14.640    3.8757
   14.655    3.8441
   14.670    3.5703
   14.685    3.6019
   14.700    3.6967
   14.715    3.6230
   14.730    3.5071
   14.745    3.7388
   14.760    3.4755
   14.775    3.3807
   14.790    3.3386
   14.805    3.7072
   14.820    3.5598
   14.835    3.6019
   14.850    3.6440
   14.865    3.6440
   14.880    3.3702
   14.895    3.3913
   14.910    3.4334
   14.925    3.4544
   14.940    3.1701
   14.955    3.2754
   14.970    3.2017
   14.985    3.4650
   15.000    3.1280
   15.015    3.1385
   15.030    3.4966
   15.045    3.4229
   15.060    3.1069
   15.075    3.0753
   15.090    3.2543
   15.105    3.4860
   15.120    3.3491
   15.135    3.2965
   15.150    3.6019
   15.165    3.2333
   15.180    3.3281
   15.195    3.2017
   15.210    3.3070
   15.225    3.3175
   15.240    3.3175
   15.255    3.2754
   15.270    3.3807
   15.285    3.3386
   15.300    3.3913
   15.315    3.2965
   15.330    3.3597
   15.345    3.0964
   15.360    3.3070
   15.375    3.4966
   15.390    3.4334
   15.405    3.5387
   15.420    3.3702
   15.435    3.2438
   15.450    3.3597
   15.465    3.3597
   15.480    3.4755
   15.495    3.6967
   15.510    3.4123
   15.525    3.5176
   15.540    3.2859
   15.555    3.3281
   15.570    3.3386
   15.585    3.2122
   15.600    3.4755
   15.615    3.1490
   15.630    3.2017
   15.645    3.2017
   15.660    3.4966
   15.675    3.3702
   15.690    3.2965
   15.705    3.2754
   15.720    3.2227
   15.735    3.2122
   15.750    3.3491
   15.765    3.2859
   15.780    3.5282
   15.795    3.3281
   15.810    3.6230
   15.825    3.3281
   15.840    3.6335
   15.855    3.2649
   15.870    3.1806
   15.885    3.1385
   15.900    3.3281
   15.915    3.2859
   15.930    3.3175
   15.945    3.6124
   15.960    3.3386
   15.975    3.5492
   15.990    3.4439
   16.005    3.3807
   16.020    3.2543
   16.035    3.4544
   16.050    3.5808
   16.065    3.2965
   16.080    3.0121
   16.095    3.2543
   16.110    3.2543
   16.125    3.3702
   16.140    3.1385
   16.155    3.5703
   16.170    3.5071
   16.185    3.4018
   16.200    3.1280
   16.215    3.2859
   16.230    3.3913
   16.245    3.2227
   16.260    3.4544
   16.275    3.4229
   16.290    3.4860
   16.305    3.2227
   16.320    3.2859
   16.335    3.5282
   16.350    3.1596
   16.365    3.2122
   16.380    3.5808
   16.395    3.5282
   16.410    3.3913
   16.425    3.4650
   16.440    3.1490
   16.455    3.1596
   16.470    3.3175
   16.485    3.3913
   16.500    3.1806
   16.515    3.3175
   16.530    3.2649
   16.545    3.2649
   16.560    3.3702
   16.575    3.1596
   16.590    3.3807
   16.605    3.3070
   16.620    3.0858
   16.635    3.1174
   16.650    3.0964
   16.665    3.2754
   16.680    3.3597
   16.695    3.4650
   16.710    3.1701
   16.725    3.1069
   16.740    3.2965
   16.755    3.2649
   16.770    3.2859
   16.785    3.3597
   16.800    3.4966
   16.815    3.1912
   16.830    3.2859
   16.845    3.0437
   16.860    3.1490
   16.875    3.4123
   16.890    3.2438
   16.905    3.2122
   16.920    3.1701
   16.935    3.0542
   16.950    3.0753
   16.965    3.2754
   16.980    3.2859
   16.995    3.1806
   17.010    2.9805
   17.025    3.1069
   17.040    3.0226
   17.055    3.1069
   17.070    3.0753
   17.085    3.2965
   17.100    3.2649
   17.115    3.2227
   17.130    3.2859
   17.145    3.5071
   17.160    3.3491
   17.175    3.0753
   17.190    3.2859
   17.205    3.0858
   17.220    2.9384
   17.235    3.1806
   17.250    3.1490
   17.265    3.0332
   17.280    3.2438
   17.295    3.2017
   17.310    2.9279
   17.325    3.0964
   17.340    3.0542
   17.355    3.2017
   17.370    3.2543
   17.385    3.0964
   17.400    2.9173
   17.415    3.1596
   17.430    2.8752
   17.445    3.3281
   17.460    3.2543
   17.475    3.3281
   17.490    3.3702
   17.505    3.2543
   17.520    3.0332
   17.535    2.8752
   17.550    3.2017
   17.565    3.1596
   17.580    3.3386
   17.595    3.2649
   17.610    3.1596
   17.625    3.1490
   17.640    3.3386
   17.655    3.2122
   17.670    3.3386
   17.685    3.4123
   17.700    3.1174
   17.715    3.1806
   17.730    2.9173
   17.745    3.0016
   17.760    3.0437
   17.775    3.2227
   17.790    3.2754
   17.805    3.2754
   17.820    3.2438
   17.835    3.3386
   17.850    3.4123
   17.865    3.3807
   17.880    3.1490
   17.895    3.3281
   17.910    3.1069
   17.925    3.2122
   17.940    3.1280
   17.955    3.0121
   17.970    3.2017
   17.985    2.9384
   18.000    3.1912
   18.015    3.2122
   18.030    3.2122
   18.045    3.2859
   18.060    3.4334
   18.075    3.2543
   18.090    3.1490
   18.105    3.1385
   18.120    3.1596
   18.135    2.9910
   18.150    3.0964
   18.165    3.2227
   18.180    3.0542
   18.195    3.0648
   18.210    3.0648
   18.225    3.0226
   18.240    3.4544
   18.255    3.0753
   18.270    3.3491
   18.285    3.1069
   18.300    3.2543
   18.315    3.3913
   18.330    3.1490
   18.345    3.1596
   18.360    3.2965
   18.375    3.3491
   18.390    3.3386
   18.405    3.2438
   18.420    3.3807
   18.435    3.2965
   18.450    3.3807
   18.465    3.2438
   18.480    3.1806
   18.495    3.4018
   18.510    3.2333
   18.525    3.4755
   18.540    3.6335
   18.555    3.2649
   18.570    3.1701
   18.585    3.0016
   18.600    2.9595
   18.615    3.1280
   18.630    3.1596
   18.645    3.4439
   18.660    3.4439
   18.675    3.1701
   18.690    3.2017
   18.705    3.0858
   18.720    3.1806
   18.735    3.3070
   18.750    3.3281
   18.765    3.3491
   18.780    3.1280
   18.795    3.2017
   18.810    3.3070
   18.825    3.2965
   18.840    3.0964
   18.855    3.0437
   18.870    2.9279
   18.885    3.0648
   18.900    3.0648
   18.915    3.1806
   18.930    3.5282
   18.945    3.4123
   18.960    3.3491
   18.975    3.4966
   18.990    3.5282
   19.005    3.2649
   19.020    3.3070
   19.035    3.1280
   19.050    3.0542
   19.065    3.2017
   19.080    3.3597
   19.095    3.1174
   19.110    3.0648
   19.125    3.0858
   19.140    3.3807
   19.155    3.0226
   19.170    3.1596
   19.185    3.3070
   19.200    3.2438
   19.215    3.2438
   19.230    3.3913
   19.245    3.1806
   19.260    2.8857
   19.275    3.0332
   19.290    3.1280
   19.305    3.2333
   19.320    3.2333
   19.335    3.1280
   19.350    3.2017
   19.365    3.0226
   19.380    3.2227
   19.395    3.4544
   19.410    3.3386
   19.425    3.2227
   19.440    3.3386
   19.455    3.0648
   19.470    3.0226
   19.485    2.9805
   19.500    3.1069
   19.515    3.0753
   19.530    3.0121
   19.545    3.1174
   19.560    3.1806
   19.575    2.9700
   19.590    3.1385
   19.605    3.0332
   19.620    2.7804
   19.635    3.0858
   19.650    3.2543
   19.665    3.3175
   19.680    3.0542
   19.695    3.0437
   19.710    3.0437
   19.725    3.0964
   19.740    3.0437
   19.755    3.2333
   19.770    3.2543
   19.785    3.2649
   19.800    3.1174
   19.815    3.2543
   19.830    3.0542
   19.845    3.0332
   19.860    3.0648
   19.875    3.4229
   19.890    3.1701
   19.905    3.0016
   19.920    2.8225
   19.935    3.1280
   19.950    3.2122
   19.965    3.2017
   19.980    3.4860
   19.995    3.0753
   20.010    3.3702
   20.025    3.1069
   20.040    2.9700
   20.055    2.9910
   20.070    2.8752
   20.085    3.0121
   20.100    3.0121
   20.115    2.9910
   20.130    2.9805
   20.145    3.1069
   20.160    2.8331
   20.175    2.7804
   20.190    3.0332
   20.205    3.2859
   20.220    3.3807
   20.235    3.2754
   20.250    3.2543
   20.265    3.4018
   20.280    3.1069
   20.295    3.1806
   20.310    3.2438
   20.325    2.9700
   20.340    3.0121
   20.355    3.2122
   20.370    3.0858
   20.385    3.0016
   20.400    2.8015
   20.415    2.8541
   20.430    2.6435
   20.445    2.9595
   20.460    3.1069
   20.475    3.1174
   20.490    2.9910
   20.505    3.1490
   20.520    2.9279
   20.535    2.9279
   20.550    3.0332
   20.565    3.2333
   20.580    3.1174
   20.595    3.0437
   20.610    2.9279
   20.625    2.9595
   20.640    3.2017
   20.655    3.1174
   20.670    3.1490
   20.685    3.0016
   20.700    2.9489
   20.715    3.2017
   20.730    3.2965
   20.745    3.0016
   20.760    2.9805
   20.775    2.9068
   20.790    2.8331
   20.805    2.8857
   20.820    2.9489
   20.835    2.9595
   20.850    3.1280
   20.865    3.0226
   20.880    3.0121
   20.895    3.0648
   20.910    3.1806
   20.925    3.0016
   20.940    2.9910
   20.955    3.0964
   20.970    2.9595
   20.985    2.9489
   21.000    3.1806
   21.015    3.1385
   21.030    2.9595
   21.045    2.9279
   21.060    2.8647
   21.075    3.0437
   21.090    3.3175
   21.105    3.0858
   21.120    3.1806
   21.135    3.0121
   21.150    3.0858
   21.165    3.0858
   21.180    2.7593
   21.195    3.1280
   21.210    3.1385
   21.225    2.7172
   21.240    2.8541
   21.255    2.8857
   21.270    3.0542
   21.285    2.9384
   21.300    2.9489
   21.315    3.2017
   21.330    2.8647
   21.345    2.8120
   21.360    2.7909
   21.375    2.9384
   21.390    3.1490
   21.405    3.0437
   21.420    2.9173
   21.435    2.9910
   21.450    2.8541
   21.465    2.6540
   21.480    2.9279
   21.495    2.9279
   21.510    3.0226
   21.525    3.1596
   21.540    2.9700
   21.555    2.8857
   21.570    3.1490
   21.585    3.0121
   21.600    3.0753
   21.615    2.9595
   21.630    2.9805
   21.645    2.9068
   21.660    3.0753
   21.675    2.8015
   21.690    3.0437
   21.705    2.9700
   21.720    2.7593
   21.735    2.6119
   21.750    2.6119
   21.765    2.5803
   21.780    2.6646
   21.795    2.9173
   21.810    2.7383
   21.825    2.8647
   21.840    3.0016
   21.855    3.1385
   21.870    3.2333
   21.885    2.8647
   21.900    3.1174
   21.915    2.8331
   21.930    2.8436
   21.945    2.7067
   21.960    2.9595
   21.975    2.9384
   21.990    2.7488
   22.005    2.7909
   22.020    2.9173
   22.035    2.7383
   22.050    2.8541
   22.065    2.8963
   22.080    2.8225
   22.095    2.8752
   22.110    3.0332
   22.125    2.9595
   22.140    2.7172
   22.155    2.8541
   22.170    2.8225
   22.185    2.6646
   22.200    2.8015
   22.215    3.0964
   22.230    2.9068
   22.245    2.7278
   22.260    2.6224
   22.275    3.0964
   22.290    2.6224
   22.305    2.7699
   22.320    2.7172
   22.335    2.8225
   22.350    2.5487
   22.365    2.7488
   22.380    2.9068
   22.395    2.9700
   22.410    2.7593
   22.425    2.8331
   22.440    2.8963
   22.455    3.1174
   22.470    2.8331
   22.485    2.4750
   22.500    2.6014
   22.515    2.4329
   22.530    2.5171
   22.545    2.7067
   22.560    2.8120
   22.575    2.8225
   22.590    2.5487
   22.605    2.9173
   22.620    2.7172
   22.635    2.7699
   22.650    3.0437
   22.665    2.6330
   22.680    2.5487
   22.695    2.6224
   22.710    2.7383
   22.725    3.0332
   22.740    2.9173
   22.755    2.7488
   22.770    2.6856
   22.785    2.6119
   22.800    2.5382
   22.815    2.9700
   22.830    2.7278
   22.845    2.7804
   22.860    2.9279
   22.875    2.6014
   22.890    2.6540
   22.905    2.9384
   22.920    2.9384
   22.935    2.8752
   22.950    2.7909
   22.965    2.7067
   22.980    2.9068
   22.995    2.6856
   23.010    2.8963
   23.025    2.7278
   23.040    2.8963
   23.055    2.9700
   23.070    2.7067
   23.085    2.6540
   23.100    2.6540
   23.115    2.8647
   23.130    2.9384
   23.145    2.7593
   23.160    2.4118
   23.175    2.4750
   23.190    2.5382
   23.205    2.6856
   23.220    2.5698
   23.235    2.5592
   23.250    2.8436
   23.265    2.4434
   23.280    2.2433
   23.295    2.5803
   23.310    2.8225
   23.325    2.8015
   23.340    2.5171
   23.355    2.5908
   23.370    2.5276
   23.385    2.7278
   23.400    2.8015
   23.415    2.5592
   23.430    2.6962
   23.445    2.5803
   23.460    2.6435
   23.475    2.5592
   23.490    2.6224
   23.505    2.5803
   23.520    2.5487
   23.535    2.6435
   23.550    2.4855
   23.565    2.6224
   23.580    2.6540
   23.595    2.6224
   23.610    2.6962
   23.625    2.7278
   23.640    2.5382
   23.655    2.6962
   23.670    2.6014
   23.685    2.5803
   23.700    2.6119
   23.715    2.5382
   23.730    2.5276
   23.745    2.5487
   23.760    2.6119
   23.775    2.6330
   23.790    2.6119
   23.805    2.6224
   23.820    2.7383
   23.835    2.7488
   23.850    2.4855
   23.865    2.5592
   23.880    2.3907
   23.895    2.4855
   23.910    2.6435
   23.925    2.4645
   23.940    2.4329
   23.955    2.4961
   23.970    2.6435
   23.985    2.6540
   24.000    2.4645
   24.015    2.5276
   24.030    2.6962
   24.045    2.8436
   24.060    2.1801
   24.075    2.2959
   24.090    2.6962
   24.105    2.8541
   24.120    2.3907
   24.135    2.6962
   24.150    2.4329
   24.165    2.5382
   24.180    2.4329
   24.195    2.2538
   24.210    2.5276
   24.225    2.2222
   24.240    2.1590
   24.255    2.3697
   24.270    2.6751
   24.285    2.7067
   24.300    2.5171
   24.315    2.1906
   24.330    2.4329
   24.345    2.6119
   24.360    2.4013
   24.375    2.4118
   24.390    2.6119
   24.405    2.7593
   24.420    2.5803
   24.435    2.4645
   24.450    2.7383
   24.465    2.5066
   24.480    2.2749
   24.495    2.2643
   24.510    2.5171
   24.525    2.6540
   24.540    2.6224
   24.555    2.5698
   24.570    2.3381
   24.585    2.3591
   24.600    2.7278
   24.615    2.7488
   24.630    2.7804
   24.645    2.6224
   24.660    2.4539
   24.675    2.4329
   24.690    2.3591
   24.705    2.4961
   24.720    2.2854
   24.735    2.4750
   24.750    2.4645
   24.765    2.6646
   24.780    2.7067
   24.795    2.4961
   24.810    2.4961
   24.825    2.5487
   24.840    2.4223
   24.855    2.3486
   24.870    2.6751
   24.885    2.6962
   24.900    2.3275
   24.915    2.3697
   24.930    2.3907
   24.945    2.4013
   24.960    2.4750
   24.975    2.3907
   24.990    2.5276
   25.005    2.2959
   25.020    2.5487
   25.035    2.2643
   25.050    2.3802
   25.065    2.3907
   25.080    2.5171
   25.095    2.6014
   25.110    2.4013
   25.125    2.4855
   25.140    2.6646
   25.155    2.5698
   25.170    2.3381
   25.185    2.2959
   25.200    2.2433
   25.215    2.4223
   25.230    2.2328
   25.245    2.3065
   25.260    2.2854
   25.275    2.5066
   25.290    2.5908
   25.305    2.4539
   25.320    2.2433
   25.335    2.2749
   25.350    2.1485
   25.365    2.4118
   25.380    2.4961
   25.395    2.4434
   25.410    2.4223
   25.425    2.3697
   25.440    2.3907
   25.455    2.4329
   25.470    2.4434
   25.485    2.0326
   25.500    2.3591
   25.515    2.4118
   25.530    2.3381
   25.545    2.5276
   25.560    2.2959
   25.575    2.3065
   25.590    2.2643
   25.605    2.3802
   25.620    2.2433
   25.635    2.5803
   25.650    2.3170
   25.665    2.2328
   25.680    2.4645
   25.695    2.4855
   25.710    2.3591
   25.725    2.4434
   25.740    2.4961
   25.755    2.3065
   25.770    2.2643
   25.785    2.2538
   25.800    2.3275
   25.815    2.1696
   25.830    2.2433
   25.845    2.3065
   25.860    2.0748
   25.875    2.3275
   25.890    2.4329
   25.905    2.5276
   25.920    2.4329
   25.935    2.2328
   25.950    2.1590
   25.965    2.3697
   25.980    2.2538
   25.995    2.2328
   26.010    2.1274
   26.025    2.1485
   26.040    2.1906
   26.055    2.2433
   26.070    2.2433
   26.085    1.9905
   26.100    2.1590
   26.115    2.3381
   26.130    2.3381
   26.145    2.3065
   26.160    2.1906
   26.175    2.3591
   26.190    2.4118
   26.205    2.3381
   26.220    2.3802
   26.235    2.2854
   26.250    2.2749
   26.265    2.0748
   26.280    2.2222
   26.295    2.2222
   26.310    2.3275
   26.325    2.1485
   26.340    2.3907
   26.355    2.2222
   26.370    2.2854
   26.385    2.2749
   26.400    2.4539
   26.415    2.0116
   26.430    1.9800
   26.445    2.1274
   26.460    2.0537
   26.475    2.3591
   26.490    2.3170
   26.505    2.1169
   26.520    2.3591
   26.535    2.0432
   26.550    2.3170
   26.565    2.2222
   26.580    2.5276
   26.595    2.3381
   26.610    2.1906
   26.625    2.1801
   26.640    2.1801
   26.655    2.0958
   26.670    2.1169
   26.685    2.1274
   26.700    2.1696
   26.715    2.2433
   26.730    2.1590
   26.745    2.0853
   26.760    2.0642
   26.775    2.0011
   26.790    2.2328
   26.805    2.1274
   26.820    2.2643
   26.835    2.2538
   26.850    2.3591
   26.865    2.4961
   26.880    2.3381
   26.895    2.1169
   26.910    2.1906
   26.925    2.1590
   26.940    2.2328
   26.955    2.0537
   26.970    2.0326
   26.985    2.0432
   27.000    2.1064
   27.015    2.0537
   27.030    2.0958
   27.045    2.2222
   27.060    2.0221
   27.075    1.8641
   27.090    2.0537
   27.105    2.0116
   27.120    1.8852
   27.135    2.1801
   27.150    2.1590
   27.165    2.0537
   27.180    2.2749
   27.195    2.0326
   27.210    1.9695
   27.225    2.1380
   27.240    2.0432
   27.255    2.1906
   27.270    2.1274
   27.285    2.1485
   27.300    2.2538
   27.315    2.0748
   27.330    2.0537
   27.345    2.0537
   27.360    2.2117
   27.375    1.9379
   27.390    1.9484
   27.405    2.0011
   27.420    1.9168
   27.435    2.0326
   27.450    1.8957
   27.465    2.2328
   27.480    2.0537
   27.495    2.1590
   27.510    2.0537
   27.525    2.1380
   27.540    1.9379
   27.555    2.2538
   27.570    2.3170
   27.585    2.0853
   27.600    2.2749
   27.615    2.1590
   27.630    2.1169
   27.645    2.2222
   27.660    2.0116
   27.675    1.9800
   27.690    1.9484
   27.705    2.1169
   27.720    2.1064
   27.735    1.8747
   27.750    2.1274
   27.765    2.0853
   27.780    2.1169
   27.795    2.0537
   27.810    2.0326
   27.825    1.9695
   27.840    2.1801
   27.855    2.1064
   27.870    2.1064
   27.885    1.8641
   27.900    1.9695
   27.915    2.1590
   27.930    2.1380
   27.945    2.0853
   27.960    2.0011
   27.975    2.1380
   27.990    2.1064
   28.005    1.7378
   28.020    2.0432
   28.035    2.0958
   28.050    2.2643
   28.065    2.1696
   28.080    2.0116
   28.095    2.0432
   28.110    1.9168
   28.125    2.1064
   28.140    1.9589
   28.155    1.9484
   28.170    2.0011
   28.185    2.1274
   28.200    2.0642
   28.215    2.1590
   28.230    2.0958
   28.245    2.0116
   28.260    2.1696
   28.275    1.8536
   28.290    1.8852
   28.305    2.0748
   28.320    2.0432
   28.335    2.1801
   28.350    2.1274
   28.365    2.1696
   28.380    1.9695
   28.395    1.9063
   28.410    1.9484
   28.425    2.0011
   28.440    2.1380
   28.455    2.0432
   28.470    2.0432
   28.485    1.9905
   28.500    2.2117
   28.515    2.2012
   28.530    2.1696
   28.545    2.0748
   28.560    2.0011
   28.575    1.8641
   28.590    1.8536
   28.605    1.9589
   28.620    2.0958
   28.635    2.0537
   28.650    2.0432
   28.665    2.1485
   28.680    2.0958
   28.695    2.1590
   28.710    2.0748
   28.725    2.1064
   28.740    2.1696
   28.755    2.1064
   28.770    2.2959
   28.785    1.9695
   28.800    1.7799
   28.815    1.9484
   28.830    2.1380
   28.845    2.0011
   28.860    1.8009
   28.875    2.2538
   28.890    2.0432
   28.905    1.8641
   28.920    2.0537
   28.935    2.0326
   28.950    1.9800
   28.965    2.2012
   28.980    2.1380
   28.995    1.8852
   29.010    1.8220
   29.025    1.9589
   29.040    2.1274
   29.055    2.0958
   29.070    2.1064
   29.085    2.0326
   29.100    1.9379
   29.115    1.9589
   29.130    2.0432
   29.145    2.1064
   29.160    2.1274
   29.175    2.1485
   29.190    1.9800
   29.205    2.0432
   29.220    2.0326
   29.235    2.0853
   29.250    2.0432
   29.265    2.0221
   29.280    1.8536
   29.295    1.8852
   29.310    1.8852
   29.325    2.0958
   29.340    2.0537
   29.355    1.8115
   29.370    1.8747
   29.385    1.9800
   29.400    1.8641
   29.415    1.9273
   29.430    1.7062
   29.445    1.8852
   29.460    1.7588
   29.475    1.7694
   29.490    1.8957
   29.505    2.0116
   29.520    2.0116
   29.535    1.7799
   29.550    1.6851
   29.565    1.8641
   29.580    1.9695
   29.595    2.1064
   29.610    1.9800
   29.625    1.8852
   29.640    1.7694
   29.655    1.8536
   29.670    1.8747
   29.685    1.8325
   29.700    1.6746
   29.715    1.6640
   29.730    1.8852
   29.745    1.8641
   29.760    1.7694
   29.775    1.7272
   29.790    1.7799
   29.805    1.7799
   29.820    1.9168
   29.835    1.8325
   29.850    1.8325
   29.865    1.7694
   29.880    1.7799
   29.895    2.0011
   29.910    1.9484
   29.925    1.9273
   29.940    1.8747
   29.955    1.9063
   29.970    1.7904
   29.985    1.7167
   30.000    1.8747
   30.015    1.7167
   30.030    1.6535
   30.045    1.6851
   30.060    1.7378
   30.075    1.8220
   30.090    1.8325
   30.105    1.6535
   30.120    1.7904
   30.135    1.7272
   30.150    1.9484
   30.165    2.0221
   30.180    1.7272
   30.195    1.6535
   30.210    1.7483
   30.225    1.8431
   30.240    1.8115
   30.255    1.6640
   30.270    1.6851
   30.285    1.5798
   30.300    1.7272
   30.315    1.6535
   30.330    1.6008
   30.345    1.5692
   30.360    1.7588
   30.375    1.8220
   30.390    1.8220
   30.405    1.8536
   30.420    1.7694
   30.435    1.8431
   30.450    1.7904
   30.465    1.7272
   30.480    1.7904
   30.495    1.9063
   30.510    2.0011
   30.525    1.6219
   30.540    1.7588
   30.555    1.7799
   30.570    1.7062
   30.585    1.5692
   30.600    1.7483
   30.615    1.8536
   30.630    1.6851
   30.645    1.7588
   30.660    1.6430
   30.675    1.9800
   30.690    1.6008
   30.705    1.6008
   30.720    1.8115
   30.735    1.5482
   30.750    1.6851
   30.765    1.7272
   30.780    1.7483
   30.795    1.6008
   30.810    1.7062
   30.825    1.6324
   30.840    1.5798
   30.855    1.5798
   30.870    1.7272
   30.885    1.7272
   30.900    1.7272
   30.915    1.8852
   30.930    1.5166
   30.945    1.6008
   30.960    1.8536
   30.975    1.7167
   30.990    1.7588
   31.005    1.6640
   31.020    1.5377
   31.035    1.6430
   31.050    1.6114
   31.065    1.6851
   31.080    1.6746
   31.095    1.6640
   31.110    1.7167
   31.125    1.7272
   31.140    1.7904
   31.155    1.5482
   31.170    1.4850
   31.185    1.6851
   31.200    1.8431
   31.215    1.6219
   31.230    1.5692
   31.245    1.6008
   31.260    1.6114
   31.275    1.8536
   31.290    1.8115
   31.305    1.6956
   31.320    1.7483
   31.335    1.7483
   31.350    1.7799
   31.365    1.7588
   31.380    1.6430
   31.395    1.6324
   31.410    1.6324
   31.425    1.5798
   31.440    1.6114
   31.455    1.7694
   31.470    1.6851
   31.485    1.7588
   31.500    1.5482
   31.515    1.6008
   31.530    1.7062
   31.545    1.6746
   31.560    1.6535
   31.575    1.5166
   31.590    1.8009
   31.605    1.7588
   31.620    1.5166
   31.635    1.5903
   31.650    1.4113
   31.665    1.3165
   31.680    1.4429
   31.695    1.5587
   31.710    1.6535
   31.725    1.6535
   31.740    1.7694
   31.755    1.7588
   31.770    1.5061
   31.785    1.7483
   31.800    1.6114
   31.815    1.7272
   31.830    1.7062
   31.845    1.6008
   31.860    1.6430
   31.875    1.6851
   31.890    1.6640
   31.905    1.8115
   31.920    1.5377
   31.935    1.6956
   31.950    1.8115
   31.965    1.8431
   31.980    1.7272
   31.995    1.4850
   32.010    1.6430
   32.025    1.6640
   32.040    1.7167
   32.055    1.6008
   32.070    1.4007
   32.085    1.3270
   32.100    1.4007
   32.115    1.6640
   32.130    1.7904
   32.145    1.5271
   32.160    1.4639
   32.175    1.5587
   32.190    1.6640
   32.205    1.5166
   32.220    1.3375
   32.235    1.5061
   32.250    1.5903
   32.265    1.7378
   32.280    1.6219
   32.295    1.6324
   32.310    1.3797
   32.325    1.5692
   32.340    1.5061
   32.355    1.6008
   32.370    1.5482
   32.385    1.5482
   32.400    1.4323
   32.415    1.7272
   32.430    1.5903
   32.445    1.6219
   32.460    1.5798
   32.475    1.5377
   32.490    1.5061
   32.505    1.5166
   32.520    1.6008
   32.535    1.4429
   32.550    1.5798
   32.565    1.5482
   32.580    1.5482
   32.595    1.5166
   32.610    1.5061
   32.625    1.5377
   32.640    1.6114
   32.655    1.5271
   32.670    1.6535
   32.685    1.4639
   32.700    1.6324
   32.715    1.5798
   32.730    1.6746
   32.745    1.5692
   32.760    1.5061
   32.775    1.5692
   32.790    1.5587
   32.805    1.3902
   32.820    1.4323
   32.835    1.4955
   32.850    1.6324
   32.865    1.5587
   32.880    1.4218
   32.895    1.4534
   32.910    1.4323
   32.925    1.6851
   32.940    1.5798
   32.955    1.4323
   32.970    1.4429
   32.985    1.3270
   33.000    1.5166
   33.015    1.4850
   33.030    1.4429
   33.045    1.2638
   33.060    1.4113
   33.075    1.4639
   33.090    1.5377
   33.105    1.6746
   33.120    1.4955
   33.135    1.5061
   33.150    1.3691
   33.165    1.4007
   33.180    1.1690
   33.195    1.5798
   33.210    1.4113
   33.225    1.4323
   33.240    1.5692
   33.255    1.3691
   33.270    1.4639
   33.285    1.6219
   33.300    1.5798
   33.315    1.6324
   33.330    1.5061
   33.345    1.4429
   33.360    1.4534
   33.375    1.4534
   33.390    1.4323
   33.405    1.4534
   33.420    1.5271
   33.435    1.4429
   33.450    1.4007
   33.465    1.4850
   33.480    1.4534
   33.495    1.3902
   33.510    1.3481
   33.525    1.6219
   33.540    1.5482
   33.555    1.4955
   33.570    1.4639
   33.585    1.4955
   33.600    1.5903
   33.615    1.5377
   33.630    1.6008
   33.645    1.5377
   33.660    1.7694
   33.675    1.4850
   33.690    1.6008
   33.705    1.3902
   33.720    1.4007
   33.735    1.5061
   33.750    1.6114
   33.765    1.3797
   33.780    1.4955
   33.795    1.4007
   33.810    1.4323
   33.825    1.3270
   33.840    1.4323
   33.855    1.3481
   33.870    1.2849
   33.885    1.4218
   33.900    1.5903
   33.915    1.5798
   33.930    1.3691
   33.945    1.5377
   33.960    1.7062
   33.975    1.4429
   33.990    1.4007
   34.005    1.4113
   34.020    1.4429
   34.035    1.5482
   34.050    1.6535
   34.065    1.5377
   34.080    1.4113
   34.095    1.2954
   34.110    1.2533
   34.125    1.4429
   34.140    1.5482
   34.155    1.4113
   34.170    1.6114
   34.185    1.5482
   34.200    1.4745
   34.215    1.4745
   34.230    1.5271
   34.245    1.5798
   34.260    1.5482
   34.275    1.4850
   34.290    1.4323
   34.305    1.4218
   34.320    1.4113
   34.335    1.6324
   34.350    1.4218
   34.365    1.4534
   34.380    1.5482
   34.395    1.5587
   34.410    1.5271
   34.425    1.5798
   34.440    1.4113
   34.455    1.4007
   34.470    1.4323
   34.485    1.4218
   34.500    1.4534
   34.515    1.5061
   34.530    1.3060
   34.545    1.4007
   34.560    1.2006
   34.575    1.4323
   34.590    1.5692
   34.605    1.4429
   34.620    1.4955
   34.635    1.5482
   34.650    1.4218
   34.665    1.4534
   34.680    1.2112
   34.695    1.4323
   34.710    1.4955
   34.725    1.5692
   34.740    1.4113
   34.755    1.3481
   34.770    1.3797
   34.785    1.5587
   34.800    1.2954
   34.815    1.4955
   34.830    1.4745
   34.845    1.4007
   34.860    1.3375
   34.875    1.5482
   34.890    1.6430
   34.905    1.5061
   34.920    1.4534
   34.935    1.4429
   34.950    1.4850
   34.965    1.3797
   34.980    1.4007
   34.995    1.3060
   35.010    1.2112
   35.025    1.4323
   35.040    1.3797
   35.055    1.3797
   35.070    1.4534
   35.085    1.6114
   35.100    1.4639
   35.115    1.3375
   35.130    1.3586
   35.145    1.4955
   35.160    1.3691
   35.175    1.3797
   35.190    1.4323
   35.205    1.4745
   35.220    1.5271
   35.235    1.4113
   35.250    1.6430
   35.265    1.5798
   35.280    1.4955
   35.295    1.4113
   35.310    1.3270
   35.325    1.4323
   35.340    1.4639
   35.355    1.2533
   35.370    1.3902
   35.385    1.2533
   35.400    1.3375
   35.415    1.4007
   35.430    1.4534
   35.445    1.4429
   35.460    1.4745
   35.475    1.3375
   35.490    1.5482
   35.505    1.4007
   35.520    1.4323
   35.535    1.4745
   35.550    1.4745
   35.565    1.3270
   35.580    1.4639
   35.595    1.4007
   35.610    1.4745
   35.625    1.4007
   35.640    1.2112
   35.655    1.4113
   35.670    1.4955
   35.685    1.3902
   35.700    1.4007
   35.715    1.5903
   35.730    1.4218
   35.745    1.4429
   35.760    1.3691
   35.775    1.3270
   35.790    1.3902
   35.805    1.3902
   35.820    1.3902
   35.835    1.3691
   35.850    1.4218
   35.865    1.4323
   35.880    1.3691
   35.895    1.5271
   35.910    1.4218
   35.925    1.3902
   35.940    1.3270
   35.955    1.4639
   35.970    1.5377
   35.985    1.4534
   36.000    1.3481
   36.015    1.4218
   36.030    1.3165
   36.045    1.3165
   36.060    1.3375
   36.075    1.3060
   36.090    1.3586
   36.105    1.5482
   36.120    1.3797
   36.135    1.5061
   36.150    1.4007
   36.165    1.4850
   36.180    1.3902
   36.195    1.1901
   36.210    1.3797
   36.225    1.5482
   36.240    1.4745
   36.255    1.4534
   36.270    1.4534
   36.285    1.5692
   36.300    1.3270
   36.315    1.3797
   36.330    1.4113
   36.345    1.2638
   36.360    1.3165
   36.375    1.4113
   36.390    1.3691
   36.405    1.4218
   36.420    1.4007
   36.435    1.3691
   36.450    1.2112
   36.465    1.2849
   36.480    1.3902
   36.495    1.4007
   36.510    1.3797
   36.525    1.5061
   36.540    1.5271
   36.555    1.6114
   36.570    1.4007
   36.585    1.2849
   36.600    1.4429
   36.615    1.5061
   36.630    1.5482
   36.645    1.3481
   36.660    1.4218
   36.675    1.3270
   36.690    1.5166
   36.705    1.3375
   36.720    1.4745
   36.735    1.5798
   36.750    1.2006
   36.765    1.2744
   36.780    1.2428
   36.795    1.3481
   36.810    1.1796
   36.825    1.1480
   36.840    1.3797
   36.855    1.3165
   36.870    1.2744
   36.885    1.1796
   36.900    1.1901
   36.915    1.3691
   36.930    1.4007
   36.945    1.4745
   36.960    1.3060
   36.975    1.3902
   36.990    1.3375
   37.005    1.4850
   37.020    1.2954
   37.035    1.3481
   37.050    1.2217
   37.065    1.3165
   37.080    1.4955
   37.095    1.4534
   37.110    1.2112
   37.125    1.3270
   37.140    1.4218
   37.155    1.4745
   37.170    1.4639
   37.185    1.4007
   37.200    1.2533
   37.215    1.3270
   37.230    1.2217
   37.245    1.2112
   37.260    1.4323
   37.275    1.3797
   37.290    1.3481
   37.305    1.1901
   37.320    1.6114
   37.335    1.5166
   37.350    1.3375
   37.365    1.3375
   37.380    1.3797
   37.395    1.2849
   37.410    1.2849
   37.425    1.3270
   37.440    1.4218
   37.455    1.4007
   37.470    1.4429
   37.485    1.3165
   37.500    1.3060
   37.515    1.4534
   37.530    1.2533
   37.545    1.3586
   37.560    1.2638
   37.575    1.1480
   37.590    1.2533
   37.605    1.2638
   37.620    1.4323
   37.635    1.4218
   37.650    1.3691
   37.665    1.3691
   37.680    1.2954
   37.695    1.2638
   37.710    1.4639
   37.725    1.4429
   37.740    1.3375
   37.755    1.3586
   37.770    1.4113
   37.785    1.4218
   37.800    1.4218
   37.815    1.4323
   37.830    1.2428
   37.845    1.2744
   37.860    1.4534
   37.875    1.3375
   37.890    1.2849
   37.905    1.3060
   37.920    1.2849
   37.935    1.5061
   37.950    1.4429
   37.965    1.2006
   37.980    1.3375
   37.995    1.3165
   38.010    1.3586
   38.025    1.5271
   38.040    1.2112
   38.055    1.3270
   38.070    1.2744
   38.085    1.3270
   38.100    1.2849
   38.115    1.5061
   38.130    1.5166
   38.145    1.3165
   38.160    1.2112
   38.175    1.2322
   38.190    1.1690
   38.205    1.4429
   38.220    1.1585
   38.235    1.2638
   38.250    1.4429
   38.265    1.4955
   38.280    1.4850
   38.295    1.3060
   38.310    1.1796
   38.325    1.2744
   38.340    1.4850
   38.355    1.4113
   38.370    1.3691
   38.385    1.2217
   38.400    1.3165
   38.415    1.5271
   38.430    1.1796
   38.445    1.4007
   38.460    1.4639
   38.475    1.4429
   38.490    1.2744
   38.505    1.1480
   38.520    1.0742
   38.535    1.2428
   38.550    1.4323
   38.565    1.3165
   38.580    1.3691
   38.595    1.2744
   38.610    1.2428
   38.625    1.4534
   38.640    1.3586
   38.655    1.4429
   38.670    1.3691
   38.685    1.4323
   38.700    1.3165
   38.715    1.3060
   38.730    1.3481
   38.745    1.3270
   38.760    1.4639
   38.775    1.2533
   38.790    1.3586
   38.805    1.2006
   38.820    1.2428
   38.835    1.2954
   38.850    1.3797
   38.865    1.3165
   38.880    1.3902
   38.895    1.3902
   38.910    1.4007
   38.925    1.3165
   38.940    1.2006
   38.955    1.2638
   38.970    1.4113
   38.985    1.4955
   39.000    1.3165
   39.015    1.3375
   39.030    1.4218
   39.045    1.3797
   39.060    1.2849
   39.075    1.5271
   39.090    1.2744
   39.105    1.1690
   39.120    1.1480
   39.135    1.3902
   39.150    1.2322
   39.165    1.4113
   39.180    1.3375
   39.195    1.3691
   39.210    1.2533
   39.225    1.3375
   39.240    1.2638
   39.255    1.2744
   39.270    1.2744
   39.285    1.3375
   39.300    1.2006
   39.315    1.2533
   39.330    1.4113
   39.345    1.3586
   39.360    1.2533
   39.375    1.2428
   39.390    1.3060
   39.405    1.2006
   39.420    1.1690
   39.435    1.2954
   39.450    1.3691
   39.465    1.2322
   39.480    1.3060
   39.495    1.3165
   39.510    1.3481
   39.525    1.3797
   39.540    1.3270
   39.555    1.2006
   39.570    1.3165
   39.585    1.1374
   39.600    1.0532
   39.615    1.1269
   39.630    1.3165
   39.645    1.2322
   39.660    1.3375
   39.675    1.3691
   39.690    1.2954
   39.705    1.2006
   39.720    1.2006
   39.735    1.0953
   39.750    1.3902
   39.765    1.3481
   39.780    1.3375
   39.795    1.2533
   39.810    1.3165
   39.825    1.2849
   39.840    1.4639
   39.855    1.1796
   39.870    1.2112
   39.885    1.4218
   39.900    1.3060
   39.915    1.3270
   39.930    1.3165
   39.945    1.2744
   39.960    1.2638
   39.975    1.2428
   39.990    1.2322
