    1.500   27.9410
    1.515   28.4781
    1.530   27.3934
    1.545   26.9510
    1.560   26.5508
    1.575   25.5292
    1.590   25.1395
    1.605   24.9500
    1.620   23.4860
    1.635   23.6546
    1.650   23.1385
    1.665   21.6640
    1.680   21.2849
    1.695   20.4423
    1.710   20.6319
    1.725   20.3791
    1.740   19.8526
    1.755   19.2944
    1.770   19.3154
    1.785   18.5045
    1.800   17.7251
    1.815   17.5671
    1.830   16.8931
    1.845   17.5566
    1.860   17.1564
    1.875   16.2612
    1.890   16.2717
    1.905   15.8189
    1.920   15.5872
    1.935   16.0611
    1.950   15.7346
    1.965   15.1448
    1.980   14.7867
    1.995   15.0184
    2.010   14.6814
    2.025   14.9026
    2.040   14.6393
    2.055   13.8494
    2.070   13.4702
    2.085   13.6809
    2.100   13.0595
    2.115   13.3544
    2.130   12.9647
    2.145   12.9226
    2.160   13.0595
    2.175   12.2696
    2.190   12.6909
    2.205   12.7962
    2.220   12.2591
    2.235   12.1959
    2.250   12.3328
    2.265   11.7957
    2.280   11.6166
    2.295   11.4903
    2.310   11.8378
    2.325   11.3323
    2.340   11.5324
    2.355   11.9326
    2.370   11.5956
    2.385   11.4481
    2.400   11.3849
    2.415   10.7425
    2.430   10.7846
    2.445   11.4376
    2.460   11.5324
    2.475   10.9531
    2.490   11.0795
    2.505   11.0900
    2.520   11.5113
    2.535   11.2059
    2.550   11.3007
    2.565   10.5108
    2.580   10.0474
    2.595   10.7004
    2.610   10.8583
    2.625   11.0269
    2.640   11.2375
    2.655   11.0585
    2.670   10.4265
    2.685   10.1632
    2.700   11.1006
    2.715   10.6056
    2.730   10.2370
    2.745   10.4792
    2.760   10.6793
    2.775   10.7846
    2.790   10.3528
    2.805   10.1948
    2.820   10.5845
    2.835   10.8583
    2.850   11.2375
    2.865   10.6161
    2.880   10.8373
    2.895   10.8057
    2.910   11.2375
    2.925   11.6166
    2.940   11.1638
    2.955   11.3428
    2.970   11.4587
    2.985   12.0274
    3.000   11.7641
    3.015   11.9747
    3.030   11.6588
    3.045   11.4797
    3.060   11.9221
    3.075   12.3855
    3.090   12.0800
    3.105   12.8805
    3.120   12.8067
    3.135   12.5329
    3.150   12.8489
    3.165   12.3328
    3.180   13.1438
    3.195   13.0911
    3.210   13.5966
    3.225   13.8705
    3.240   14.1759
    3.255   14.1759
    3.270   14.2285
    3.285   14.6919
    3.300   15.4924
    3.315   15.4186
    3.330   15.3976
    3.345   16.3139
    3.360   16.8931
    3.375   16.8299
    3.390   16.8404
    3.405   17.6725
    3.420   17.4934
    3.435   17.7672
    3.450   18.2622
    3.465   19.0732
    3.480   19.8736
    3.495   19.6840
    3.510   19.8631
    3.525   19.7788
    3.540   19.5682
    3.555   20.1264
    3.570   20.6214
    3.585   20.5477
    3.600   20.4213
    3.615   20.5161
    3.630   19.3470
    3.645   19.5787
    3.660   19.7578
    3.675   19.2101
    3.690   19.2944
    3.705   18.8626
    3.720   18.1359
    3.735   17.5250
    3.750   17.3460
    3.765   16.8720
    3.780   16.0716
    3.795   16.0400
    3.810   15.9136
    3.825   15.3765
    3.840   15.3660
    3.855   15.3344
    3.870   14.3865
    3.885   14.0074
    3.900   13.8494
    3.915   13.7019
    3.930   13.5124
    3.945   12.7436
    3.960   12.2591
    3.975   12.3644
    3.990   12.4171
    4.005   11.7536
    4.020   11.8062
    4.035   11.7641
    4.050   10.9847
    4.065   10.4265
    4.080   11.1954
    4.095   10.7214
    4.110   10.3844
    4.125   10.2896
    4.140   10.3739
    4.155   10.2791
    4.170    9.6788
    4.185    9.9947
    4.200   10.3212
    4.215    9.5840
    4.230    9.4787
    4.245    9.5103
    4.260    9.0469
    4.275    9.1732
    4.290    9.2048
    4.305    9.1522
    4.320    9.2048
    4.335    9.2680
    4.350    8.8784
    4.365    8.9731
    4.380    9.0469
    4.395    8.7414
    4.410    9.1101
    4.425    9.0469
    4.440    8.7941
    4.455    8.6888
    4.470    8.2675
    4.485    8.4360
    4.500    8.3307
    4.515    8.8678
    4.530    8.4150
    4.545    8.2149
    4.560    8.3939
    4.575    8.3834
    4.590    7.9200
    4.605    8.3412
    4.620    8.1201
    4.635    8.0779
    4.650    7.9937
    4.665    8.2780
    4.680    8.0885
    4.695    8.4571
    4.710    8.0147
    4.725    7.9831
    4.740    7.6567
    4.755    8.1622
    4.770    8.0358
    4.785    8.1622
    4.800    7.9094
    4.815    7.8462
    4.830    7.8357
    4.845    8.1411
    4.860    7.9621
    4.875    8.0779
    4.890    8.0147
    4.905    8.2043
    4.920    7.5619
    4.935    7.8462
    4.950    7.5619
    4.965    7.6777
    4.980    7.4566
    4.995    7.6883
    5.010    8.0253
    5.025    7.4039
    5.040    7.3091
    5.055    6.9616
    5.070    7.2986
    5.085    7.2880
    5.100    7.7409
    5.115    7.3934
    5.130    7.1090
    5.145    7.2249
    5.160    7.3934
    5.175    7.4882
    5.190    7.5829
    5.205    7.7199
    5.220    7.3196
    5.235    7.5829
    5.250    7.4039
    5.265    7.2986
    5.280    7.2565
    5.295    7.2354
    5.310    7.0142
    5.325    6.8773
    5.340    7.0037
    5.355    7.5303
    5.370    7.3618
    5.385    7.1933
    5.400    7.2459
    5.415    7.1301
    5.430    6.8773
    5.445    7.2670
    5.460    7.2459
    5.475    7.0248
    5.490    7.0037
    5.505    6.9721
    5.520    7.2565
    5.535    6.6351
    5.550    6.8562
    5.565    6.6351
    5.580    7.0563
    5.595    6.8984
    5.610    6.8773
    5.625    6.9300
    5.640    6.6245
    5.655    6.5403
    5.670    6.2559
    5.685    7.0774
    5.700    7.1090
    5.715    6.3718
    5.730    6.3507
    5.745    6.6245
    5.760    6.6561
    5.775    6.4560
    5.790    6.5087
    5.805    6.4034
    5.820    6.4139
    5.835    6.5403
    5.850    6.6667
    5.865    6.8773
    5.880    6.7088
    5.895    6.2559
    5.910    6.4455
    5.925    6.2770
    5.940    6.3612
    5.955    6.1927
    5.970    6.2981
    5.985    5.9400
    6.000    6.2033
    6.015    6.3296
    6.030    6.6983
    6.045    6.2665
    6.060    6.1401
    6.075    5.7188
    6.090    5.9926
    6.105    6.0979
    6.120    6.2981
    6.135    6.1085
    6.150    6.1822
    6.165    6.4350
    6.180    6.2875
    6.195    5.9400
    6.210    5.9084
    6.225    6.3086
    6.240    6.1927
    6.255    6.2454
    6.270    5.9400
    6.285    5.9400
    6.300    6.1611
    6.315    5.7820
    6.330    5.9505
    6.345    6.3086
    6.360    5.9294
    6.375    6.1190
    6.390    6.6877
    6.405    6.0979
    6.420    5.9610
    6.435    6.1822
    6.450    5.8662
    6.465    6.0032
    6.480    6.0558
    6.495    5.8662
    6.510    5.6872
    6.525    5.9294
    6.540    6.1611
    6.555    6.2875
    6.570    6.0137
    6.585    5.9610
    6.600    6.1717
    6.615    6.1401
    6.630    5.6451
    6.645    6.0137
    6.660    6.0558
    6.675    6.0348
    6.690    6.1927
    6.705    6.4244
    6.720    6.4350
    6.735    6.2770
    6.750    6.4350
    6.765    6.4666
    6.780    6.4771
    6.795    6.2559
    6.810    6.4350
    6.825    6.2033
    6.840    6.3191
    6.855    6.7193
    6.870    6.6140
    6.885    6.5403
    6.900    6.6140
    6.915    6.8141
    6.930    6.5192
    6.945    6.2770
    6.960    6.6877
    6.975    6.9300
    6.990    6.8773
    7.005    6.6245
    7.020    7.2880
    7.035    7.2143
    7.050    7.4776
    7.065    7.2354
    7.080    7.3723
    7.095    6.8773
    7.110    6.9510
    7.125    7.0774
    7.140    7.0879
    7.155    7.4355
    7.170    7.4039
    7.185    7.3091
    7.200    7.1827
    7.215    7.4987
    7.230    7.1827
    7.245    7.0458
    7.260    7.0879
    7.275    7.3302
    7.290    6.6983
    7.305    6.9405
    7.320    7.2880
    7.335    7.0985
    7.350    6.7720
    7.365    6.9194
    7.380    6.7825
    7.395    6.8984
    7.410    6.8878
    7.425    6.7509
    7.440    6.4244
    7.455    6.1401
    7.470    6.6561
    7.485    6.4455
    7.500    6.2243
    7.515    5.8241
    7.530    6.5508
    7.545    6.4244
    7.560    6.2770
    7.575    5.8557
    7.590    5.5608
    7.605    5.3186
    7.620    5.9400
    7.635    6.0453
    7.650    5.7609
    7.665    5.3186
    7.680    5.4134
    7.695    5.4766
    7.710    5.4660
    7.725    5.4450
    7.740    5.1395
    7.755    5.1606
    7.770    5.3291
    7.785    5.2027
    7.800    5.2870
    7.815    5.5398
    7.830    5.7715
    7.845    5.1711
    7.860    5.1606
    7.875    5.2975
    7.890    5.2975
    7.905    5.4344
    7.920    5.2133
    7.935    5.1922
    7.950    4.9078
    7.965    4.8763
    7.980    5.0658
    7.995    5.2659
    8.010    5.7083
    8.025    5.2765
    8.040    4.7604
    8.055    4.9921
    8.070    4.9078
    8.085    4.7077
    8.100    4.9921
    8.115    4.8447
    8.130    5.0342
    8.145    4.6761
    8.160    4.8552
    8.175    4.8763
    8.190    4.7183
    8.205    5.0342
    8.220    4.9078
    8.235    4.8447
    8.250    4.6972
    8.265    4.7709
    8.280    4.8341
    8.295    4.3497
    8.310    4.3602
    8.325    4.4866
    8.340    4.8868
    8.355    4.9394
    8.370    4.6761
    8.385    4.7815
    8.400    4.7077
    8.415    4.1811
    8.430    4.3707
    8.445    4.5919
    8.460    4.6761
    8.475    4.7709
    8.490    4.2865
    8.505    4.4128
    8.520    4.3286
    8.535    4.2233
    8.550    4.1917
    8.565    4.5182
    8.580    4.3286
    8.595    4.2443
    8.610    4.2233
    8.625    4.3918
    8.640    4.2233
    8.655    4.3813
    8.670    4.7077
    8.685    4.4339
    8.700    4.2338
    8.715    4.6340
    8.730    4.4023
    8.745    4.2443
    8.760    4.5182
    8.775    4.3813
    8.790    4.1706
    8.805    4.3286
    8.820    4.2865
    8.835    4.2443
    8.850    4.5603
    8.865    4.2443
    8.880    4.4655
    8.895    4.1285
    8.910    4.1811
    8.925    4.2654
    8.940    4.7499
    8.955    4.4234
    8.970    4.3075
    8.985    4.3813
    9.000    4.1917
    9.015    4.3497
    9.030    4.2022
    9.045    4.1180
    9.060    4.1917
    9.075    4.0021
    9.090    4.2970
    9.105    4.0232
    9.120    4.2549
    9.135    4.0548
    9.150    3.8231
    9.165    4.1706
    9.180    4.2443
    9.195    4.3707
    9.210    4.3602
    9.225    4.4128
    9.240    4.3286
    9.255    4.0126
    9.270    4.1180
    9.285    4.0232
    9.300    3.9494
    9.315    4.2970
    9.330    4.0548
    9.345    3.8968
    9.360    4.1074
    9.375    4.2338
    9.390    4.2970
    9.405    4.1074
    9.420    4.4339
    9.435    4.3707
    9.450    4.3918
    9.465    3.9389
    9.480    3.9389
    9.495    4.1811
    9.510    3.9284
    9.525    4.1390
    9.540    3.9705
    9.555    4.3286
    9.570    4.1706
    9.585    4.1496
    9.600    4.1706
    9.615    4.2654
    9.630    4.4760
    9.645    4.3813
    9.660    4.2654
    9.675    4.2338
    9.690    4.2759
    9.705    4.3391
    9.720    4.4128
    9.735    4.2549
    9.750    3.9179
    9.765    3.8231
    9.780    4.0126
    9.795    4.1496
    9.810    3.9600
    9.825    4.1496
    9.840    4.2654
    9.855    4.3286
    9.870    4.3181
    9.885    4.2127
    9.900    3.7809
    9.915    4.1706
    9.930    4.0758
    9.945    3.9179
    9.960    4.2338
    9.975    4.0126
    9.990    4.0758
   10.005    4.0337
   10.020    4.1390
   10.035    3.9600
   10.050    4.3391
   10.065    3.8968
   10.080    4.0758
   10.095    3.5071
   10.110    3.9389
   10.125    4.2443
   10.140    4.1706
   10.155    4.1285
   10.170    4.3602
   10.185    3.9494
   10.200    4.1601
   10.215    4.3707
   10.230    3.8020
   10.245    3.8547
   10.260    4.1496
   10.275    4.2443
   10.290    3.8968
   10.305    3.8757
   10.320    3.9179
   10.335    4.0021
   10.350    3.9916
   10.365    3.9810
   10.380    3.8125
   10.395    4.0548
   10.410    4.0337
   10.425    3.8863
   10.440    4.2443
   10.455    4.6024
   10.470    4.2865
   10.485    4.3707
   10.500    4.4760
   10.515    4.1811
   10.530    3.8757
   10.545    4.0864
   10.560    4.1390
   10.575    4.0021
   10.590    4.1180
   10.605    4.2654
   10.620    4.2549
   10.635    4.3286
   10.650    4.0232
   10.665    4.1917
   10.680    4.1917
   10.695    4.1180
   10.710    4.1706
   10.725    4.1180
   10.740    4.2127
   10.755    4.2759
   10.770    4.2549
   10.785    4.2865
   10.800    4.4128
   10.815    3.9916
   10.830    4.5708
   10.845    4.0758
   10.860    4.1180
   10.875    4.0337
   10.890    4.1496
   10.905    4.1180
   10.920    4.2549
   10.935    4.3075
   10.950    4.5708
   10.965    4.5919
   10.980    4.3707
   10.995    4.2443
   11.010    4.3181
   11.025    4.2233
   11.040    4.2127
   11.055    4.1285
   11.070    3.9810
   11.085    4.3075
   11.100    4.0758
   11.115    4.0969
   11.130    4.1706
   11.145    4.3286
   11.160    4.7077
   11.175    4.4444
   11.190    4.6130
   11.205    4.4023
   11.220    3.9916
   11.235    4.2865
   11.250    4.5603
   11.265    4.3391
   11.280    4.1285
   11.295    4.1917
   11.310    4.4866
   11.325    4.2654
   11.340    4.3286
   11.355    4.4234
   11.370    4.4339
   11.385    4.4971
   11.400    4.7815
   11.415    4.5076
   11.430    4.4339
   11.445    4.2759
   11.460    4.2127
   11.475    4.3707
   11.490    4.4023
   11.505    4.5182
   11.520    4.4023
   11.535    4.3181
   11.550    4.3286
   11.565    4.4128
   11.580    4.3707
   11.595    4.3286
   11.610    4.0864
   11.625    4.0126
   11.640    3.9284
   11.655    4.2759
   11.670    4.2759
   11.685    4.1285
   11.700    4.1390
   11.715    4.0021
   11.730    4.1074
   11.745    4.3497
   11.760    4.2654
   11.775    4.2970
   11.790    4.2865
   11.805    4.3075
   11.820    4.2654
   11.835    4.2443
   11.850    4.1285
   11.865    3.9810
   11.880    4.2338
   11.895    4.0337
   11.910    4.2022
   11.925    4.4339
   11.940    4.4339
   11.955    4.2970
   11.970    4.2338
   11.985    4.1917
   12.000    4.2443
   12.015    4.3075
   12.030    3.9494
   12.045    3.9600
   12.060    4.0653
   12.075    3.9179
   12.090    4.2022
   12.105    4.0548
   12.120    4.0337
   12.135    4.1496
   12.150    4.5076
   12.165    4.0758
   12.180    4.2338
   12.195    4.1496
   12.210    3.8652
   12.225    4.1601
   12.240    4.2022
   12.255    4.0126
   12.270    4.0758
   12.285    4.2654
   12.300    4.3286
   12.315    4.2127
   12.330    3.9494
   12.345    4.2127
   12.360    4.3391
   12.375    4.3813
   12.390    4.1706
   12.405    4.3286
   12.420    4.2970
   12.435    4.2443
   12.450    4.1180
   12.465    3.8547
   12.480    4.3707
   12.495    4.3181
   12.510    4.4234
   12.525    4.4128
   12.540    4.2759
   12.555    3.9916
   12.570    4.2443
   12.585    4.1917
   12.600    4.5498
   12.615    4.2443
   12.630    4.1180
   12.645    4.0232
   12.660    4.2233
   12.675    4.5498
   12.690    4.3181
   12.705    4.1811
   12.720    4.2970
   12.735    4.1180
   12.750    3.9073
   12.765    4.4550
   12.780    4.0021
   12.795    3.8441
   12.810    3.9073
   12.825    3.9705
   12.840    4.3813
   12.855    3.8968
   12.870    3.6967
   12.885    4.0337
   12.900    4.1074
   12.915    4.0126
   12.930    4.2338
   12.945    4.0758
   12.960    4.0021
   12.975    4.2127
   12.990    4.0548
   13.005    3.8020
   13.020    3.8547
   13.035    3.8757
   13.050    3.8652
   13.065    3.9810
   13.080    3.8652
   13.095    4.0232
   13.110    3.8125
   13.125    3.7388
   13.140    3.7283
   13.155    3.8968
   13.170    4.1706
   13.185    4.1811
   13.200    3.9389
   13.215    4.2127
   13.230    3.9073
   13.245    4.2338
   13.260    4.2970
   13.275    4.0021
   13.290    3.9284
   13.305    4.0442
   13.320    3.7072
   13.335    4.1496
   13.350    4.2022
   13.365    3.9705
   13.380    4.0232
   13.395    4.1601
   13.410    4.0337
   13.425    3.8441
   13.440    4.0232
   13.455    3.8652
   13.470    3.6967
   13.485    4.1180
   13.500    4.1285
   13.515    4.1917
   13.530    3.6967
   13.545    4.0126
   13.560    3.8652
   13.575    3.8547
   13.590    3.9073
   13.605    3.9179
   13.620    3.7704
   13.635    3.8441
   13.650    3.9600
   13.665    3.8863
   13.680    4.1180
   13.695    3.9810
   13.710    3.6546
   13.725    3.8336
   13.740    4.0969
   13.755    3.7915
   13.770    3.7599
   13.785    3.9810
   13.800    3.9600
   13.815    3.8968
   13.830    4.1496
   13.845    3.7177
   13.860    3.5808
   13.875    3.8547
   13.890    3.9705
   13.905    3.4544
   13.920    4.0442
   13.935    3.9705
   13.950    3.8968
   13.965    3.8863
   13.980    4.0126
   13.995    4.2759
   14.010    4.0021
   14.025    3.9284
   14.040    3.9494
   14.055    4.1811
   14.070    4.1811
   14.085    4.0232
   14.100    4.0653
   14.115    4.0969
   14.130    4.0969
   14.145    4.0337
   14.160    4.1390
   14.175    4.0337
   14.190    3.8547
   14.205    3.8757
   14.220    3.8652
   14.235    4.0969
   14.250    3.8336
   14.265    4.2022
   14.280    4.2759
   14.295    4.3181
   14.310    4.3497
   14.325    4.3918
   14.340    4.1811
   14.355    3.9916
   14.370    4.2443
   14.385    4.3497
   14.400    3.9179
   14.415    4.3181
   14.430    4.1285
   14.445    4.5708
   14.460    4.5182
   14.475    4.1285
   14.490    4.0442
   14.505    4.3497
   14.520    4.2759
   14.535    4.1074
   14.550    4.1496
   14.565    3.9705
   14.580    3.8441
   14.595    3.9810
   14.610    4.1285
   14.625    4.2549
   14.640    3.6546
   14.655    4.1285
   14.670    4.0126
   14.685    3.9600
   14.700    3.6967
   14.715    3.9600
   14.730    4.1811
   14.745    4.0969
   14.760    4.2549
   14.775    4.3391
   14.790    3.8652
   14.805    4.2759
   14.820    4.3075
   14.835    3.8757
   14.850    4.2865
   14.865    4.0969
   14.880    4.1706
   14.895    3.7599
   14.910    4.0864
   14.925    4.0864
   14.940    4.1496
   14.955    4.2127
   14.970    3.9389
   14.985    3.7599
   15.000    4.1601
   15.015    4.1496
   15.030    4.2022
   15.045    4.1390
   15.060    4.2127
   15.075    4.0969
   15.090    4.2654
   15.105    3.9705
   15.120    3.9073
   15.135    4.1180
   15.150    4.0126
   15.165    4.2338
   15.180    4.3075
   15.195    4.1390
   15.210    3.8757
   15.225    3.9916
   15.240    4.0337
   15.255    4.0653
   15.270    3.9389
   15.285    3.8441
   15.300    4.0337
   15.315    3.8863
   15.330    4.3075
   15.345    4.0442
   15.360    4.1074
   15.375    3.9705
   15.390    4.0337
   15.405    3.8020
   15.420    3.7809
   15.435    4.4444
   15.450    4.4655
   15.465    4.1285
   15.480    4.2233
   15.495    4.1917
   15.510    4.0337
   15.525    3.9810
   15.540    4.1917
   15.555    4.2443
   15.570    3.8020
   15.585    3.7599
   15.600    4.1601
   15.615    3.9073
   15.630    3.9810
   15.645    3.9389
   15.660    3.7809
   15.675    4.0337
   15.690    3.9705
   15.705    3.9916
   15.720    4.0969
   15.735    4.1390
   15.750    4.0653
   15.765    4.1706
   15.780    3.8863
   15.795    3.9705
   15.810    4.2022
   15.825    4.1917
   15.840    4.4971
   15.855    4.1601
   15.870    4.1917
   15.885    4.1074
   15.900    3.9810
   15.915    4.3918
   15.930    4.4971
   15.945    4.4023
   15.960    4.2233
   15.975    4.2759
   15.990    4.4760
   16.005    4.2022
   16.020    4.3918
   16.035    4.3391
   16.050    3.9600
   16.065    4.1285
   16.080    4.2338
   16.095    4.5603
   16.110    4.2970
   16.125    4.2970
   16.140    4.3602
   16.155    4.4971
   16.170    4.4234
   16.185    4.3813
   16.200    4.5076
   16.215    4.3075
   16.230    4.2127
   16.245    4.4023
   16.260    4.1496
   16.275    4.3602
   16.290    4.1496
   16.305    4.3181
   16.320    4.5919
   16.335    4.3286
   16.350    4.5498
   16.365    4.4866
   16.380    4.2549
   16.395    4.6024
   16.410    4.1917
   16.425    4.2549
   16.440    4.1706
   16.455    4.1601
   16.470    4.3286
   16.485    4.2654
   16.500    4.1074
   16.515    4.3075
   16.530    4.1285
   16.545    4.3918
   16.560    4.3602
   16.575    4.5498
   16.590    4.2759
   16.605    4.4760
   16.620    4.1180
   16.635    4.0548
   16.650    4.2654
   16.665    4.4760
   16.680    4.2022
   16.695    4.5814
   16.710    4.3286
   16.725    4.3181
   16.740    4.4971
   16.755    4.3391
   16.770    4.0864
   16.785    4.1390
   16.800    4.1601
   16.815    4.2127
   16.830    4.2233
   16.845    4.2759
   16.860    3.9810
   16.875    4.2233
   16.890    4.2233
   16.905    4.0337
   16.920    4.1390
   16.935    3.9494
   16.950    4.0548
   16.965    4.1496
   16.980    4.3391
   16.995    3.9916
   17.010    4.0442
   17.025    4.3181
   17.040    4.1496
   17.055    4.2233
   17.070    4.3286
   17.085    4.1601
   17.100    3.9494
   17.115    4.4866
   17.130    4.1601
   17.145    4.0653
   17.160    4.3602
   17.175    4.2443
   17.190    4.2549
   17.205    4.2338
   17.220    4.1074
   17.235    4.1811
   17.250    4.1074
   17.265    4.2654
   17.280    4.2549
   17.295    4.2654
   17.310    4.4128
   17.325    4.3286
   17.340    4.5919
   17.355    4.0232
   17.370    4.2443
   17.385    4.2549
   17.400    4.4444
   17.415    4.5498
   17.430    4.2970
   17.445    4.2759
   17.460    4.3707
   17.475    4.4128
   17.490    4.4444
   17.505    4.3497
   17.520    4.0864
   17.535    4.2654
   17.550    4.4023
   17.565    4.4234
   17.580    4.4339
   17.595    4.4444
   17.610    4.8341
   17.625    4.4550
   17.640    4.5287
   17.655    4.4971
   17.670    4.5603
   17.685    4.4550
   17.700    4.5182
   17.715    4.4023
   17.730    4.2022
   17.745    4.7709
   17.760    4.4444
   17.775    4.4550
   17.790    4.5287
   17.805    4.5603
   17.820    4.5392
   17.835    4.5076
   17.850    4.5392
   17.865    4.4339
   17.880    4.5287
   17.895    4.7288
   17.910    4.9184
   17.925    4.7920
   17.940    4.6761
   17.955    4.8973
   17.970    4.8657
   17.985    4.8447
   18.000    4.7709
   18.015    4.7920
   18.030    4.9500
   18.045    4.9394
   18.060    5.2870
   18.075    5.2765
   18.090    4.9710
   18.105    5.0658
   18.120    5.3081
   18.135    5.0237
   18.150    4.9500
   18.165    4.8447
   18.180    5.0132
   18.195    5.0974
   18.210    4.9605
   18.225    4.6130
   18.240    4.7815
   18.255    4.9078
   18.270    4.9710
   18.285    4.9078
   18.300    4.6445
   18.315    4.5814
   18.330    5.1185
   18.345    4.7393
   18.360    4.8341
   18.375    4.8973
   18.390    4.8552
   18.405    4.8447
   18.420    4.7288
   18.435    4.7709
   18.450    4.8447
   18.465    4.9605
   18.480    4.8447
   18.495    4.9921
   18.510    5.0658
   18.525    4.9078
   18.540    4.7920
   18.555    5.1080
   18.570    4.9605
   18.585    4.8341
   18.600    4.7604
   18.615    4.2865
   18.630    4.9289
   18.645    5.1606
   18.660    5.0974
   18.675    4.9078
   18.690    4.9184
   18.705    4.7709
   18.720    4.7815
   18.735    4.7393
   18.750    5.1711
   18.765    4.9605
   18.780    4.8025
   18.795    4.8341
   18.810    4.6761
   18.825    4.6445
   18.840    4.5708
   18.855    4.8025
   18.870    4.9710
   18.885    5.0974
   18.900    5.0237
   18.915    4.9500
   18.930    5.0237
   18.945    4.8868
   18.960    4.7288
   18.975    5.0869
   18.990    5.4344
   19.005    5.0764
   19.020    4.7393
   19.035    4.9816
   19.050    4.8447
   19.065    5.0974
   19.080    5.1817
   19.095    5.2659
   19.110    4.8447
   19.125    4.8236
   19.140    4.5814
   19.155    4.8025
   19.170    4.8657
   19.185    5.0764
   19.200    4.9921
   19.215    4.6445
   19.230    4.8868
   19.245    4.5182
   19.260    4.1811
   19.275    4.6024
   19.290    4.5287
   19.305    4.7499
   19.320    4.6867
   19.335    4.9394
   19.350    4.8236
   19.365    4.7288
   19.380    4.5919
   19.395    4.7709
   19.410    4.8236
   19.425    5.0237
   19.440    4.8447
   19.455    5.0132
   19.470    4.7920
   19.485    4.5919
   19.500    4.4866
   19.515    4.2233
   19.530    4.5919
   19.545    4.5392
   19.560    4.6761
   19.575    4.4444
   19.590    4.3286
   19.605    4.7815
   19.620    4.6761
   19.635    4.6235
   19.650    4.7499
   19.665    4.6445
   19.680    4.5603
   19.695    4.4655
   19.710    4.4655
   19.725    4.5498
   19.740    4.5392
   19.755    4.5919
   19.770    4.7077
   19.785    4.7499
   19.800    4.8447
   19.815    4.2970
   19.830    4.2127
   19.845    4.5919
   19.860    4.7709
   19.875    4.6445
   19.890    4.4023
   19.905    4.3497
   19.920    4.6445
   19.935    4.4234
   19.950    4.4971
   19.965    4.7604
   19.980    4.6024
   19.995    4.4339
   20.010    4.7288
   20.025    4.7288
   20.040    4.7288
   20.055    4.8657
   20.070    4.9394
   20.085    4.8025
   20.100    4.8341
   20.115    4.6445
   20.130    4.4234
   20.145    4.2549
   20.160    4.4128
   20.175    4.3497
   20.190    4.6551
   20.205    4.6551
   20.220    4.7920
   20.235    4.6867
   20.250    4.4339
   20.265    4.3813
   20.280    4.5814
   20.295    4.6656
   20.310    4.1496
   20.325    4.3497
   20.340    4.4971
   20.355    4.4866
   20.370    4.6656
   20.385    4.3391
   20.400    4.3602
   20.415    4.3602
   20.430    4.5708
   20.445    4.4023
   20.460    4.1706
   20.475    4.4866
   20.490    4.7604
   20.505    4.3602
   20.520    4.5076
   20.535    4.5603
   20.550    4.4339
   20.565    4.2654
   20.580    4.6024
   20.595    4.7183
   20.610    4.2338
   20.625    4.2759
   20.640    4.3707
   20.655    4.4655
   20.670    4.5498
   20.685    4.6235
   20.700    4.9184
   20.715    4.6445
   20.730    4.4760
   20.745    4.4234
   20.760    4.2865
   20.775    4.1706
   20.790    4.7499
   20.805    4.6656
   20.820    4.8025
   20.835    4.6867
   20.850    4.4023
   20.865    4.3181
   20.880    4.5392
   20.895    4.8341
   20.910    4.6551
   20.925    4.6445
   20.940    4.9184
   20.955    4.8657
   20.970    4.6024
   20.985    4.6551
   21.000    4.8341
   21.015    4.4655
   21.030    4.3391
   21.045    4.5182
   21.060    4.2654
   21.075    4.4550
   21.090    4.5603
   21.105    4.5498
   21.120    4.6551
   21.135    4.8131
   21.150    4.6656
   21.165    4.5182
   21.180    4.6130
   21.195    4.5603
   21.210    4.5814
   21.225    4.3707
   21.240    4.3602
   21.255    4.7183
   21.270    4.2338
   21.285    4.3181
   21.300    4.2233
   21.315    4.5498
   21.330    4.6656
   21.345    4.7499
   21.360    4.4655
   21.375    4.4971
   21.390    4.8868
   21.405    4.9816
   21.420    4.7920
   21.435    4.5708
   21.450    4.3391
   21.465    4.6867
   21.480    4.8236
   21.495    4.6445
   21.510    4.8236
   21.525    4.8447
   21.540    4.7183
   21.555    4.4971
   21.570    4.4760
   21.585    4.7393
   21.600    4.5076
   21.615    4.6340
   21.630    4.6551
   21.645    4.3918
   21.660    4.5708
   21.675    4.7288
   21.690    4.5498
   21.705    4.6656
   21.720    4.8552
   21.735    4.6867
   21.750    4.7288
   21.765    4.8131
   21.780    4.7077
   21.795    4.6340
   21.810    4.7393
   21.825    4.6024
   21.840    4.4550
   21.855    4.6024
   21.870    4.9500
   21.885    4.8657
   21.900    5.0132
   21.915    4.8341
   21.930    4.5708
   21.945    4.8973
   21.960    4.9921
   21.975    4.7604
   21.990    4.4866
   22.005    4.7393
   22.020    4.9710
   22.035    4.8236
   22.050    4.7393
   22.065    4.7077
   22.080    4.8657
   22.095    4.7077
   22.110    4.5814
   22.125    4.5708
   22.140    4.5708
   22.155    4.4655
   22.170    4.6867
   22.185    4.7920
   22.200    4.9394
   22.215    4.5603
   22.230    4.3075
   22.245    4.3813
   22.260    4.5919
   22.275    4.4971
   22.290    4.6867
   22.305    4.4339
   22.320    4.4655
   22.335    4.5603
   22.350    4.5603
   22.365    4.3181
   22.380    4.6656
   22.395    4.5076
   22.410    4.7709
   22.425    4.8763
   22.440    4.5708
   22.455    4.6867
   22.470    4.6972
   22.485    4.6551
   22.500    4.6445
   22.515    4.7499
   22.530    4.5919
   22.545    4.3391
   22.560    4.4760
   22.575    4.6867
   22.590    4.4655
   22.605    4.2865
   22.620    4.5708
   22.635    4.6656
   22.650    4.6445
   22.665    4.3602
   22.680    4.4444
   22.695    4.6656
   22.710    4.6130
   22.725    4.4550
   22.740    4.7393
   22.755    4.5498
   22.770    4.4760
   22.785    4.4971
   22.800    4.4655
   22.815    4.3602
   22.830    4.5708
   22.845    4.8025
   22.860    4.5603
   22.875    4.3075
   22.890    4.7077
   22.905    4.4866
   22.920    4.5708
   22.935    4.6867
   22.950    4.5708
   22.965    4.5287
   22.980    4.4128
   22.995    4.6340
   23.010    4.5603
   23.025    4.4234
   23.040    4.3707
   23.055    4.4234
   23.070    4.4234
   23.085    4.4866
   23.100    4.4444
   23.115    4.6656
   23.130    4.7920
   23.145    4.5603
   23.160    4.4550
   23.175    4.5182
   23.190    4.6551
   23.205    4.6130
   23.220    4.4971
   23.235    4.2970
   23.250    4.3602
   23.265    4.4234
   23.280    4.2865
   23.295    4.3391
   23.310    4.5708
   23.325    4.6130
   23.340    4.5392
   23.355    4.3813
   23.370    4.2443
   23.385    4.4339
   23.400    4.4866
   23.415    4.6972
   23.430    4.3075
   23.445    4.5498
   23.460    4.5498
   23.475    4.5287
   23.490    4.4023
   23.505    4.2970
   23.520    4.4234
   23.535    4.6024
   23.550    4.4128
   23.565    4.4655
   23.580    4.8447
   23.595    4.4760
   23.610    4.3497
   23.625    4.1601
   23.640    4.4760
   23.655    4.3918
   23.670    4.3181
   23.685    4.6761
   23.700    4.3497
   23.715    4.8552
   23.730    4.4866
   23.745    4.5287
   23.760    4.7499
   23.775    4.5182
   23.790    4.3813
   23.805    4.4234
   23.820    4.3286
   23.835    4.2759
   23.850    4.5392
   23.865    4.4128
   23.880    4.4760
   23.895    4.4444
   23.910    4.2759
   23.925    4.2759
   23.940    4.5182
   23.955    4.4128
   23.970    4.5708
   23.985    4.4023
   24.000    4.3918
   24.015    4.5287
   24.030    4.2549
   24.045    4.4655
   24.060    4.6867
   24.075    4.4550
   24.090    4.4760
   24.105    4.3707
   24.120    4.1601
   24.135    4.3707
   24.150    4.2970
   24.165    4.7709
   24.180    4.3707
   24.195    4.1917
   24.210    4.8025
   24.225    4.4234
   24.240    4.3181
   24.255    4.2127
   24.270    4.2970
   24.285    4.3497
   24.300    4.6445
   24.315    4.6867
   24.330    4.4866
   24.345    4.3181
   24.360    4.4023
   24.375    4.5392
   24.390    4.4866
   24.405    4.7393
   24.420    4.6130
   24.435    4.0864
   24.450    4.2127
   24.465    4.2443
   24.480    4.0864
   24.495    4.2759
   24.510    4.5392
   24.525    4.1706
   24.540    4.4339
   24.555    4.5498
   24.570    4.2654
   24.585    4.3707
   24.600    4.4339
   24.615    4.2970
   24.630    4.4760
   24.645    4.4550
   24.660    4.0758
   24.675    4.1706
   24.690    4.4023
   24.705    4.6972
   24.720    4.3391
   24.735    4.4234
   24.750    4.2654
   24.765    4.3181
   24.780    4.1285
   24.795    4.0548
   24.810    4.3286
   24.825    4.3075
   24.840    4.2865
   24.855    4.5919
   24.870    4.0653
   24.885    4.0548
   24.900    4.2127
   24.915    4.0232
   24.930    4.5919
   24.945    4.5392
   24.960    4.4866
   24.975    4.3391
   24.990    4.2338
   25.005    4.1601
   25.020    3.9600
   25.035    3.9073
   25.050    3.9810
   25.065    4.1180
   25.080    3.9600
   25.095    4.1706
   25.110    4.0442
   25.125    4.0442
   25.140    4.0126
   25.155    4.0126
   25.170    4.1496
   25.185    4.1285
   25.200    4.3602
   25.215    3.8652
   25.230    3.9916
   25.245    4.2022
   25.260    4.3918
   25.275    4.4444
   25.290    4.2443
   25.305    4.0548
   25.320    4.0442
   25.335    4.2865
   25.350    4.2549
   25.365    4.0653
   25.380    4.3075
   25.395    3.9705
   25.410    3.8968
   25.425    3.9600
   25.440    4.0969
   25.455    3.9073
   25.470    3.8968
   25.485    4.1285
   25.500    4.1074
   25.515    3.9705
   25.530    3.8863
   25.545    4.2233
   25.560    4.3602
   25.575    3.8863
   25.590    3.9073
   25.605    3.7072
   25.620    3.6862
   25.635    4.0653
   25.650    4.2549
   25.665    3.7809
   25.680    4.3286
   25.695    3.9073
   25.710    4.0548
   25.725    4.1917
   25.740    4.1285
   25.755    4.0337
   25.770    4.2338
   25.785    3.8757
   25.800    3.8125
   25.815    4.0337
   25.830    4.1390
   25.845    4.0126
   25.860    4.0969
   25.875    3.6862
   25.890    4.0126
   25.905    4.1811
   25.920    4.2549
   25.935    4.1180
   25.950    3.6335
   25.965    3.9389
   25.980    3.8863
   25.995    3.8863
   26.010    3.7915
   26.025    3.8757
   26.040    3.8125
   26.055    4.0337
   26.070    3.7072
   26.085    3.4755
   26.100    3.7704
   26.115    4.0126
   26.130    3.6230
   26.145    3.6546
   26.160    3.7599
   26.175    3.8652
   26.190    4.0548
   26.205    4.0337
   26.220    3.8020
   26.235    4.2338
   26.250    4.1285
   26.265    4.1811
   26.280    3.8125
   26.295    3.7177
   26.310    3.9600
   26.325    3.9494
   26.340    4.0653
   26.355    3.4860
   26.370    3.6019
   26.385    3.8231
   26.400    3.5282
   26.415    3.8863
   26.430    4.0232
   26.445    3.9916
   26.460    3.6651
   26.475    3.6124
   26.490    3.7072
   26.505    3.8336
   26.520    3.7072
   26.535    3.8863
   26.550    3.5914
   26.565    3.6335
   26.580    3.6124
   26.595    3.9494
   26.610    3.6651
   26.625    3.6335
   26.640    3.5703
   26.655    3.6967
   26.670    3.9179
   26.685    3.9494
   26.700    3.9284
   26.715    3.8125
   26.730    3.6019
   26.745    3.8336
   26.760    4.0653
   26.775    3.5282
   26.790    3.4544
   26.805    3.2754
   26.820    3.4439
   26.835    3.5808
   26.850    3.5808
   26.865    3.6124
   26.880    3.7283
   26.895    3.7072
   26.910    3.3913
   26.925    3.7177
   26.940    3.7072
   26.955    3.6440
   26.970    3.4966
   26.985    3.6335
   27.000    3.8652
   27.015    3.6440
   27.030    3.4650
   27.045    3.4966
   27.060    3.4334
   27.075    3.7493
   27.090    3.5808
   27.105    3.6756
   27.120    3.5808
   27.135    3.4755
   27.150    3.6756
   27.165    3.6019
   27.180    3.4334
   27.195    3.7493
   27.210    3.5387
   27.225    3.5914
   27.240    3.5914
   27.255    3.6124
   27.270    3.5598
   27.285    3.4755
   27.300    3.5176
   27.315    3.6862
   27.330    3.4439
   27.345    3.4650
   27.360    3.4123
   27.375    3.5808
   27.390    3.5808
   27.405    3.4966
   27.420    3.2227
   27.435    3.4229
   27.450    3.6862
   27.465    3.3175
   27.480    3.2965
   27.495    3.4966
   27.510    3.4229
   27.525    3.5176
   27.540    3.6651
   27.555    3.5492
   27.570    3.6230
   27.585    3.5387
   27.600    3.3597
   27.615    3.4439
   27.630    3.2227
   27.645    3.3597
   27.660    3.6651
   27.675    3.3807
   27.690    3.2543
   27.705    3.3597
   27.720    3.5071
   27.735    3.3913
   27.750    3.5808
   27.765    3.4860
   27.780    3.5598
   27.795    3.6124
   27.810    3.4334
   27.825    3.4334
   27.840    3.4123
   27.855    3.4860
   27.870    3.3070
   27.885    3.4966
   27.900    3.5071
   27.915    3.5492
   27.930    3.4229
   27.945    3.5176
   27.960    3.6335
   27.975    3.8020
   27.990    3.2543
   28.005    3.2754
   28.020    3.4334
   28.035    3.1806
   28.050    3.4229
   28.065    3.5492
   28.080    3.5176
   28.095    3.4860
   28.110    3.4755
   28.125    3.4018
   28.140    3.3175
   28.155    3.5176
   28.170    3.4860
   28.185    3.4018
   28.200    3.3175
   28.215    3.3702
   28.230    3.3597
   28.245    3.5703
   28.260    3.4123
   28.275    3.2333
   28.290    3.1701
   28.305    3.2017
   28.320    3.2649
   28.335    3.1912
   28.350    3.2333
   28.365    3.4123
   28.380    3.3386
   28.395    3.1490
   28.410    3.2859
   28.425    3.4544
   28.440    3.5071
   28.455    3.6651
   28.470    3.5703
   28.485    3.5071
   28.500    3.4123
   28.515    3.3491
   28.530    3.2333
   28.545    3.3913
   28.560    3.3807
   28.575    3.2333
   28.590    3.4229
   28.605    3.6440
   28.620    3.2017
   28.635    3.2543
   28.650    3.0964
   28.665    3.3175
   28.680    3.3807
   28.695    3.4334
   28.710    3.0016
   28.725    3.1596
   28.740    3.1806
   28.755    3.0542
   28.770    3.2122
   28.785    3.1701
   28.800    3.0542
   28.815    2.9173
   28.830    3.4334
   28.845    3.3597
   28.860    3.3070
   28.875    3.1806
   28.890    3.1806
   28.905    3.2754
   28.920    3.3070
   28.935    3.3386
   28.950    3.0753
   28.965    3.0332
   28.980    3.4439
   28.995    3.3386
   29.010    3.3386
   29.025    3.2649
   29.040    2.9173
   29.055    3.1174
   29.070    3.1596
   29.085    3.1912
   29.100    3.0121
   29.115    3.2017
   29.130    3.0226
   29.145    3.3070
   29.160    3.3070
   29.175    3.4229
   29.190    3.3175
   29.205    3.1490
   29.220    3.2859
   29.235    3.3070
   29.250    3.2859
   29.265    3.4018
   29.280    3.3491
   29.295    3.1596
   29.310    3.0858
   29.325    3.5703
   29.340    3.2227
   29.355    3.2017
   29.370    3.2649
   29.385    3.2649
   29.400    3.2017
   29.415    3.2649
   29.430    2.8120
   29.445    2.9173
   29.460    3.1490
   29.475    3.3597
   29.490    3.3175
   29.505    3.1280
   29.520    3.1596
   29.535    3.3491
   29.550    3.5282
   29.565    3.0016
   29.580    2.9805
   29.595    3.1069
   29.610    3.1596
   29.625    3.0437
   29.640    3.0437
   29.655    3.0753
   29.670    3.0332
   29.685    3.3807
   29.700    3.2754
   29.715    3.2438
   29.730    3.0542
   29.745    3.3070
   29.760    3.2543
   29.775    2.9384
   29.790    2.9489
   29.805    3.2649
   29.820    3.4018
   29.835    3.0542
   29.850    2.9068
   29.865    2.9700
   29.880    2.8120
   29.895    2.9489
   29.910    3.2438
   29.925    3.3070
   29.940    3.0753
   29.955    2.9595
   29.970    2.7909
   29.985    3.4123
   30.000    3.0858
   30.015    3.0753
   30.030    3.0964
   30.045    2.8963
   30.060    3.0016
   30.075    3.1490
   30.090    3.0542
   30.105    2.9489
   30.120    3.1385
   30.135    3.1385
   30.150    3.0964
   30.165    3.0964
   30.180    2.9910
   30.195    2.9595
   30.210    2.7909
   30.225    2.8541
   30.240    2.7804
   30.255    2.7383
   30.270    2.9068
   30.285    2.7278
   30.300    2.8331
   30.315    2.8541
   30.330    3.1069
   30.345    2.8436
   30.360    2.9384
   30.375    3.0437
   30.390    2.8225
   30.405    2.9173
   30.420    2.9173
   30.435    3.2859
   30.450    3.1596
   30.465    2.9910
   30.480    2.8857
   30.495    2.8225
   30.510    2.8541
   30.525    2.9384
   30.540    2.9173
   30.555    2.8331
   30.570    3.1701
   30.585    3.1912
   30.600    2.8963
   30.615    2.8541
   30.630    2.6435
   30.645    2.8647
   30.660    2.9489
   30.675    2.8541
   30.690    2.8120
   30.705    2.6540
   30.720    2.8015
   30.735    2.7172
   30.750    2.9595
   30.765    3.2754
   30.780    3.0542
   30.795    3.0332
   30.810    2.9068
   30.825    2.9595
   30.840    3.0332
   30.855    3.0437
   30.870    2.8963
   30.885    2.8541
   30.900    2.8963
   30.915    2.7804
   30.930    2.9173
   30.945    3.1174
   30.960    2.7593
   30.975    2.8857
   30.990    2.9489
   31.005    2.7804
   31.020    2.8541
   31.035    2.5487
   31.050    2.8541
   31.065    2.8963
   31.080    2.8015
   31.095    2.9173
   31.110    2.9489
   31.125    2.9173
   31.140    2.8015
   31.155    2.7383
   31.170    2.6224
   31.185    2.6751
   31.200    2.7699
   31.215    2.8015
   31.230    2.8015
   31.245    2.7278
   31.260    2.9068
   31.275    2.6751
   31.290    3.0016
   31.305    2.9068
   31.320    2.4961
   31.335    2.6962
   31.350    2.8963
   31.365    2.5908
   31.380    2.9068
   31.395    2.6751
   31.410    2.5698
   31.425    2.6540
   31.440    2.6224
   31.455    2.5487
   31.470    2.6751
   31.485    2.6330
   31.500    2.8963
   31.515    2.7593
   31.530    2.7172
   31.545    2.9279
   31.560    2.5276
   31.575    2.7593
   31.590    2.7804
   31.605    3.1385
   31.620    2.7067
   31.635    2.5487
   31.650    2.8120
   31.665    2.7909
   31.680    2.6540
   31.695    2.6540
   31.710    2.6962
   31.725    2.7278
   31.740    2.7067
   31.755    2.6224
   31.770    2.6119
   31.785    2.5803
   31.800    2.6224
   31.815    2.4539
   31.830    2.6751
   31.845    2.8647
   31.860    2.5382
   31.875    2.3697
   31.890    2.6856
   31.905    2.5698
   31.920    2.6856
   31.935    2.6224
   31.950    2.5698
   31.965    2.5382
   31.980    2.6119
   31.995    2.6751
   32.010    2.4434
   32.025    2.7909
   32.040    2.5908
   32.055    2.5487
   32.070    2.5171
   32.085    2.5908
   32.100    2.5382
   32.115    2.6751
   32.130    2.4855
   32.145    2.6435
   32.160    2.6540
   32.175    2.8752
   32.190    2.5382
   32.205    2.4855
   32.220    2.4329
   32.235    2.6540
   32.250    2.5487
   32.265    2.4329
   32.280    2.4223
   32.295    2.4223
   32.310    2.5487
   32.325    2.5066
   32.340    2.2117
   32.355    2.4329
   32.370    2.6014
   32.385    2.5698
   32.400    2.5803
   32.415    2.5698
   32.430    2.6014
   32.445    2.2643
   32.460    2.4013
   32.475    2.6962
   32.490    2.7278
   32.505    2.5487
   32.520    2.3486
   32.535    2.4329
   32.550    2.5487
   32.565    2.6856
   32.580    2.6435
   32.595    2.6962
   32.610    2.5908
   32.625    2.7067
   32.640    2.6014
   32.655    2.5276
   32.670    2.4223
   32.685    2.2538
   32.700    2.5803
   32.715    2.4223
   32.730    2.5803
   32.745    2.3275
   32.760    2.4855
   32.775    2.4855
   32.790    2.5171
   32.805    2.4961
   32.820    2.4539
   32.835    2.6646
   32.850    2.5487
   32.865    2.4750
   32.880    2.3065
   32.895    2.5171
   32.910    2.4855
   32.925    2.4855
   32.940    2.4645
   32.955    2.2643
   32.970    2.2643
   32.985    2.2854
   33.000    2.2433
   33.015    2.3275
   33.030    2.2749
   33.045    2.3065
   33.060    2.4961
   33.075    2.4645
   33.090    2.4645
   33.105    2.4855
   33.120    2.4539
   33.135    2.3802
   33.150    2.2643
   33.165    2.2433
   33.180    2.1906
   33.195    2.5382
   33.210    2.5276
   33.225    2.4434
   33.240    2.5487
   33.255    2.4223
   33.270    2.5171
   33.285    2.4855
   33.300    2.2959
   33.315    2.3907
   33.330    2.5171
   33.345    2.3591
   33.360    2.3907
   33.375    2.4961
   33.390    2.4645
   33.405    2.4645
   33.420    2.4961
   33.435    2.3275
   33.450    2.2328
   33.465    2.4539
   33.480    2.2538
   33.495    2.3802
   33.510    2.4750
   33.525    2.3065
   33.540    2.3591
   33.555    2.3170
   33.570    2.5698
   33.585    2.4329
   33.600    2.3486
   33.615    2.2538
   33.630    2.3275
   33.645    2.1590
   33.660    2.0221
   33.675    2.3275
   33.690    2.1274
   33.705    2.3170
   33.720    2.4223
   33.735    2.2749
   33.750    2.2749
   33.765    2.4434
   33.780    2.2328
   33.795    2.3697
   33.810    2.2749
   33.825    2.3170
   33.840    2.3907
   33.855    2.2433
   33.870    2.3907
   33.885    2.3907
   33.900    2.2222
   33.915    2.1169
   33.930    2.1380
   33.945    2.2222
   33.960    2.3802
   33.975    2.1801
   33.990    2.1485
   34.005    2.1169
   34.020    2.1485
   34.035    2.3907
   34.050    2.1485
   34.065    2.0116
   34.080    2.1380
   34.095    2.1590
   34.110    2.1696
   34.125    2.2538
   34.140    2.3486
   34.155    2.0221
   34.170    2.1906
   34.185    2.2433
   34.200    2.2643
   34.215    2.2117
   34.230    2.1169
   34.245    2.0221
   34.260    2.1696
   34.275    2.0853
   34.290    1.9695
   34.305    2.0958
   34.320    2.2749
   34.335    2.2959
   34.350    2.1906
   34.365    2.0326
   34.380    2.1380
   34.395    1.9800
   34.410    2.1696
   34.425    2.0116
   34.440    2.0326
   34.455    2.0011
   34.470    1.9905
   34.485    2.1064
   34.500    2.1590
   34.515    2.1064
   34.530    2.2222
   34.545    2.3065
   34.560    2.1801
   34.575    2.1906
   34.590    2.0326
   34.605    1.8431
   34.620    1.9484
   34.635    2.1064
   34.650    2.0537
   34.665    2.2328
   34.680    2.1169
   34.695    2.0853
   34.710    2.0326
   34.725    2.1906
   34.740    1.9589
   34.755    2.2854
   34.770    2.1274
   34.785    2.1274
   34.800    2.1590
   34.815    2.1590
   34.830    2.0958
   34.845    2.0642
   34.860    2.3275
   34.875    2.1590
   34.890    2.2117
   34.905    2.2538
   34.920    1.8220
   34.935    2.0748
   34.950    2.0432
   34.965    2.0116
   34.980    2.1169
   34.995    1.9063
   35.010    2.1169
   35.025    1.9695
   35.040    2.1169
   35.055    2.0958
   35.070    2.0537
   35.085    2.0326
   35.100    1.9379
   35.115    2.0958
   35.130    2.1064
   35.145    2.2854
   35.160    2.0642
   35.175    1.9063
   35.190    1.8536
   35.205    2.2538
   35.220    2.0642
   35.235    1.9484
   35.250    1.9168
   35.265    1.9695
   35.280    1.9905
   35.295    1.9273
   35.310    2.1906
   35.325    2.2959
   35.340    2.0642
   35.355    2.0221
   35.370    1.9168
   35.385    1.8957
   35.400    1.9379
   35.415    2.0221
   35.430    1.8431
   35.445    1.8852
   35.460    1.8641
   35.475    1.7799
   35.490    1.9273
   35.505    1.9800
   35.520    1.9168
   35.535    1.9800
   35.550    1.9273
   35.565    1.8852
   35.580    1.9589
   35.595    1.8009
   35.610    1.9063
   35.625    1.8957
   35.640    1.9905
   35.655    2.1696
   35.670    1.9168
   35.685    1.8009
   35.700    1.8641
   35.715    1.8325
   35.730    1.9273
   35.745    1.9484
   35.760    1.9168
   35.775    1.9695
   35.790    2.1274
   35.805    1.9905
   35.820    1.8747
   35.835    2.0326
   35.850    1.8747
   35.865    1.5798
   35.880    1.9168
   35.895    2.1064
   35.910    2.0958
   35.925    1.9589
   35.940    2.0642
   35.955    2.0748
   35.970    2.0221
   35.985    2.0011
   36.000    1.9695
   36.015    1.8009
   36.030    1.8747
   36.045    1.9063
   36.060    1.8115
   36.075    1.8431
   36.090    1.8747
   36.105    1.9379
   36.120    1.8115
   36.135    1.7483
   36.150    1.9695
   36.165    2.0748
   36.180    1.9063
   36.195    1.8009
   36.210    1.7167
   36.225    1.8431
   36.240    1.7483
   36.255    1.8325
   36.270    1.7799
   36.285    1.8957
   36.300    1.7588
   36.315    1.9168
   36.330    1.7588
   36.345    1.7588
   36.360    1.8325
   36.375    1.9168
   36.390    1.8220
   36.405    1.8536
   36.420    1.8115
   36.435    1.8957
   36.450    1.8220
   36.465    1.7588
   36.480    1.8536
   36.495    2.0326
   36.510    1.8536
   36.525    1.9168
   36.540    1.9273
   36.555    1.8747
   36.570    1.6535
   36.585    1.6324
   36.600    1.9063
   36.615    1.6956
   36.630    1.6640
   36.645    1.6851
   36.660    1.6114
   36.675    1.5377
   36.690    1.8852
   36.705    1.5798
   36.720    1.8009
   36.735    1.7694
   36.750    1.7588
   36.765    1.9484
   36.780    2.0326
   36.795    1.9168
   36.810    2.0116
   36.825    1.7799
   36.840    1.7062
   36.855    1.7799
   36.870    1.4955
   36.885    1.3797
   36.900    1.6324
   36.915    1.6114
   36.930    1.6430
   36.945    1.5692
   36.960    1.5377
   36.975    1.8115
   36.990    1.7694
   37.005    1.6430
   37.020    1.6956
   37.035    1.7799
   37.050    1.8115
   37.065    1.7799
   37.080    1.8115
   37.095    1.8747
   37.110    1.7167
   37.125    1.7799
   37.140    1.5587
   37.155    1.6219
   37.170    1.6746
   37.185    1.7167
   37.200    1.7272
   37.215    1.6114
   37.230    1.7062
   37.245    1.7167
   37.260    1.7062
   37.275    1.5798
   37.290    1.5377
   37.305    1.5692
   37.320    1.7483
   37.335    1.6640
   37.350    1.5903
   37.365    1.7799
   37.380    1.6219
   37.395    1.7167
   37.410    1.5482
   37.425    1.5903
   37.440    1.7167
   37.455    1.6008
   37.470    1.6324
   37.485    1.8536
   37.500    1.8220
   37.515    1.7588
   37.530    1.6430
   37.545    1.6114
   37.560    1.7062
   37.575    1.6851
   37.590    1.6746
   37.605    1.6324
   37.620    1.5692
   37.635    1.6114
   37.650    1.5377
   37.665    1.6746
   37.680    1.7904
   37.695    1.8325
   37.710    1.7483
   37.725    1.6956
   37.740    1.6114
   37.755    1.7483
   37.770    1.5798
   37.785    1.4850
   37.800    1.5271
   37.815    1.5587
   37.830    1.6114
   37.845    1.6008
   37.860    1.5061
   37.875    1.7167
   37.890    1.8115
   37.905    1.5692
   37.920    1.7588
   37.935    1.9168
   37.950    1.6956
   37.965    1.7272
   37.980    1.6746
   37.995    1.6114
   38.010    1.5482
   38.025    1.5482
   38.040    1.6746
   38.055    1.6640
   38.070    1.7272
   38.085    1.6535
   38.100    1.8009
   38.115    1.5061
   38.130    1.5061
   38.145    1.5692
   38.160    1.6851
   38.175    1.7904
   38.190    1.6114
   38.205    1.5482
   38.220    1.4850
   38.235    1.8115
   38.250    1.6746
   38.265    1.8325
   38.280    1.6746
   38.295    1.6219
   38.310    1.7062
   38.325    1.6535
   38.340    1.4639
   38.355    1.6324
   38.370    1.5587
   38.385    1.4429
   38.400    1.5798
   38.415    1.6324
   38.430    1.7588
   38.445    1.6430
   38.460    1.6851
   38.475    1.6851
   38.490    1.4429
   38.505    1.4218
   38.520    1.6535
   38.535    1.8325
   38.550    1.7694
   38.565    1.5377
   38.580    1.5798
   38.595    1.6008
   38.610    1.5587
   38.625    1.5482
   38.640    1.5798
   38.655    1.5587
   38.670    1.4955
   38.685    1.7062
   38.700    1.7167
   38.715    1.5903
   38.730    1.5903
   38.745    1.4323
   38.760    1.4850
   38.775    1.6219
   38.790    1.6535
   38.805    1.5271
   38.820    1.5587
   38.835    1.6324
   38.850    1.7167
   38.865    1.6114
   38.880    1.6219
   38.895    1.7167
   38.910    1.6535
   38.925    1.7378
   38.940    1.5798
   38.955    1.7062
   38.970    1.6640
   38.985    1.5166
   39.000    1.6746
   39.015    1.6219
   39.030    1.6640
   39.045    1.4534
   39.060    1.5061
   39.075    1.5903
   39.090    1.6008
   39.105    1.6535
   39.120    1.5482
   39.135    1.3902
   39.150    1.5377
   39.165    1.6430
   39.180    1.5692
   39.195    1.5798
   39.210    1.5798
   39.225    1.6324
   39.240    1.5692
   39.255    1.5061
   39.270    1.4955
   39.285    1.5061
   39.300    1.5798
   39.315    1.5377
   39.330    1.5061
   39.345    1.5061
   39.360    1.5061
   39.375    1.4955
   39.390    1.4745
   39.405    1.6746
   39.420    1.6008
   39.435    1.4850
   39.450    1.5271
   39.465    1.5166
   39.480    1.4429
   39.495    1.3586
   39.510    1.5377
   39.525    1.5377
   39.540    1.5587
   39.555    1.5587
   39.570    1.7483
   39.585    1.5798
   39.600    1.4007
   39.615    1.4113
   39.630    1.5377
   39.645    1.5798
   39.660    1.4745
   39.675    1.5166
   39.690    1.5271
   39.705    1.3060
   39.720    1.4534
   39.735    1.5271
   39.750    1.5061
   39.765    1.7062
   39.780    1.5061
   39.795    1.6324
   39.810    1.5587
   39.825    1.5377
   39.840    1.4850
   39.855    1.5377
   39.870    1.5482
   39.885    1.6219
   39.900    1.3691
   39.915    1.4955
   39.930    1.6640
   39.945    1.8325
   39.960    1.5587
   39.975    1.6956
   39.990    1.5166
