    1.500   16.8088
    1.515   17.0511
    1.530   16.5771
    1.545   15.8610
    1.560   16.4192
    1.575   15.6293
    1.590   15.5977
    1.605   15.4081
    1.620   15.7135
    1.635   16.1559
    1.650   15.3870
    1.665   15.2185
    1.680   15.2396
    1.695   15.5240
    1.710   15.5661
    1.725   14.9552
    1.740   14.7551
    1.755   14.9552
    1.770   14.2707
    1.785   14.4497
    1.800   14.6288
    1.815   14.0390
    1.830   14.6603
    1.845   14.6498
    1.860   14.8815
    1.875   14.6709
    1.890   13.8810
    1.905   14.6077
    1.920   14.8289
    1.935   14.6288
    1.950   14.9131
    1.965   14.7551
    1.980   15.0079
    1.995   15.3660
    2.010   14.7235
    2.025   14.5972
    2.040   15.1553
    2.055   14.6709
    2.070   14.0495
    2.085   14.0495
    2.100   14.4602
    2.115   14.6814
    2.130   14.6919
    2.145   14.6182
    2.160   14.4286
    2.175   15.7135
    2.190   16.0927
    2.205   15.4397
    2.220   15.2923
    2.235   15.1764
    2.250   15.3239
    2.265   15.3028
    2.280   15.3133
    2.295   16.2928
    2.310   15.3239
    2.325   15.1869
    2.340   15.7241
    2.355   16.1664
    2.370   16.2507
    2.385   16.9142
    2.400   16.8931
    2.415   17.3460
    2.430   17.5145
    2.445   17.4197
    2.460   17.8831
    2.475   18.2833
    2.490   18.3254
    2.505   18.5571
    2.520   17.9252
    2.535   18.4202
    2.550   18.7994
    2.565   19.8104
    2.580   19.9263
    2.595   19.6525
    2.610   20.0843
    2.625   20.9689
    2.640   21.3270
    2.655   21.7272
    2.670   21.5903
    2.685   21.5798
    2.700   22.0326
    2.715   22.6014
    2.730   22.9279
    2.745   23.6967
    2.760   24.6130
    2.775   24.7183
    2.790   25.5819
    2.805   25.5082
    2.820   25.8241
    2.835   26.5613
    2.850   27.0879
    2.865   27.6251
    2.880   28.9837
    2.895   29.7841
    2.910   30.0474
    2.925   30.9215
    2.940   31.5535
    2.955   31.6693
    2.970   32.7120
    2.985   34.6604
    3.000   35.3449
    3.015   35.5661
    3.030   37.9674
    3.045   38.2517
    3.060   39.5998
    3.075   41.2112
    3.090   42.0537
    3.105   43.7704
    3.120   45.1290
    3.135   47.2986
    3.150   48.6572
    3.165   49.3523
    3.180   51.4903
    3.195   54.6077
    3.210   56.3139
    3.225   58.0095
    3.240   62.2644
    3.255   64.6972
    3.270   66.9616
    3.285   70.5108
    3.300   73.5756
    3.315   76.2823
    3.330   81.6219
    3.345   87.8462
    3.360   93.0174
    3.375   99.5577
    3.390  105.5398
    3.405  111.4692
    3.420  117.9463
    3.435  123.2859
    3.450  126.9721
    3.465  125.9926
    3.480  119.3260
    3.495  111.4587
    3.510   97.2512
    3.525   84.6656
    3.540   71.6482
    3.555   60.8110
    3.570   53.2385
    3.585   48.2780
    3.600   44.9078
    3.615   42.5592
    3.630   39.3154
    3.645   38.0200
    3.660   37.2723
    3.675   38.2096
    3.690   38.2412
    3.705   37.8199
    3.720   38.3254
    3.735   37.8199
    3.750   38.8099
    3.765   39.8420
    3.780   40.9584
    3.795   40.7794
    3.810   42.7909
    3.825   44.0232
    3.840   45.0448
    3.855   45.4028
    3.870   47.1827
    3.885   48.2991
    3.900   48.4466
    3.915   50.0895
    3.930   51.6693
    3.945   52.6382
    3.960   52.2275
    3.975   53.4492
    3.990   54.1759
    4.005   52.4803
    4.020   52.4592
    4.035   52.0800
    4.050   51.5850
    4.065   50.8689
    4.080   49.8894
    4.095   47.6567
    4.110   45.7083
    4.125   42.5382
    4.140   42.0326
    4.155   40.7583
    4.170   37.8620
    4.185   35.4081
    4.200   34.1864
    4.215   31.6798
    4.230   29.4155
    4.245   27.6988
    4.260   25.6556
    4.275   24.0232
    4.290   22.4118
    4.305   20.6740
    4.320   18.8310
    4.335   17.9463
    4.350   16.8931
    4.365   15.9136
    4.380   15.1869
    4.395   13.3439
    4.410   13.4387
    4.425   12.7330
    4.440   12.1432
    4.455   11.1954
    4.470   11.6588
    4.485   11.0585
    4.500   10.2896
    4.515    9.9842
    4.530    9.4892
    4.545    9.3839
    4.560    9.0153
    4.575    8.6888
    4.590    8.5519
    4.605    8.3728
    4.620    8.3834
    4.635    8.2149
    4.650    8.1938
    4.665    7.5829
    4.680    7.6883
    4.695    7.7830
    4.710    7.6251
    4.725    6.8246
    4.740    7.0037
    4.755    7.1301
    4.770    7.0248
    4.785    6.9721
    4.800    7.0669
    4.815    7.0669
    4.830    6.7615
    4.845    6.9721
    4.860    6.7615
    4.875    6.8457
    4.890    6.3507
    4.905    6.5929
    4.920    6.6877
    4.935    6.4771
    4.950    6.6351
    4.965    6.4244
    4.980    6.0664
    4.995    6.2243
    5.010    5.9505
    5.025    6.3823
    5.040    6.2138
    5.055    6.3296
    5.070    6.0242
    5.085    6.1295
    5.100    6.2981
    5.115    6.1611
    5.130    6.0979
    5.145    6.0137
    5.160    5.9821
    5.175    6.0453
    5.190    5.8873
    5.205    5.9294
    5.220    6.2559
    5.235    5.6872
    5.250    5.6767
    5.265    5.8768
    5.280    5.9189
    5.295    5.4766
    5.310    5.6345
    5.325    5.7293
    5.340    5.9610
    5.355    5.6767
    5.370    5.5608
    5.385    6.0874
    5.400    5.8452
    5.415    5.6977
    5.430    6.0769
    5.445    5.5292
    5.460    5.6135
    5.475    5.4555
    5.490    5.6556
    5.505    5.7188
    5.520    5.8241
    5.535    5.3923
    5.550    5.2870
    5.565    5.3712
    5.580    5.4028
    5.595    5.6029
    5.610    5.6451
    5.625    5.2659
    5.640    5.1290
    5.655    5.4134
    5.670    5.6767
    5.685    5.3397
    5.700    5.3081
    5.715    5.4871
    5.730    5.8241
    5.745    5.6135
    5.760    5.5398
    5.775    5.4450
    5.790    5.2554
    5.805    5.4134
    5.820    5.1606
    5.835    5.2133
    5.850    5.4555
    5.865    5.3291
    5.880    5.3291
    5.895    5.6029
    5.910    5.4134
    5.925    5.2238
    5.940    5.1395
    5.955    5.2554
    5.970    5.1922
    5.985    5.5608
    6.000    5.2659
    6.015    5.4344
    6.030    5.3081
    6.045    5.4555
    6.060    5.2659
    6.075    5.3712
    6.090    5.1606
    6.105    5.2449
    6.120    5.3502
    6.135    5.4766
    6.150    5.3397
    6.165    5.4555
    6.180    5.6451
    6.195    5.6451
    6.210    5.6977
    6.225    5.5714
    6.240    5.5082
    6.255    5.5819
    6.270    5.6451
    6.285    5.5819
    6.300    5.5924
    6.315    5.5398
    6.330    5.9610
    6.345    5.8347
    6.360    5.3923
    6.375    5.5819
    6.390    5.9189
    6.405    6.0137
    6.420    6.0874
    6.435    6.0769
    6.450    6.4771
    6.465    5.8031
    6.480    6.2138
    6.495    6.4771
    6.510    6.4560
    6.525    6.4771
    6.540    6.4560
    6.555    6.8878
    6.570    6.8668
    6.585    6.9405
    6.600    6.9932
    6.615    7.0037
    6.630    7.0669
    6.645    7.4776
    6.660    7.6567
    6.675    8.2886
    6.690    8.4571
    6.705    8.1938
    6.720    8.3202
    6.735    8.7625
    6.750    8.8362
    6.765    8.6888
    6.780    9.7314
    6.795   10.4581
    6.810   10.7425
    6.825   11.5640
    6.840   12.1959
    6.855   12.7120
    6.870   13.1648
    6.885   13.8283
    6.900   14.5761
    6.915   15.4713
    6.930   16.3454
    6.945   16.5561
    6.960   16.4192
    6.975   16.1875
    6.990   15.8820
    7.005   14.7446
    7.020   13.2280
    7.035   11.8589
    7.050   10.8057
    7.065    9.5840
    7.080    8.7941
    7.095    8.7730
    7.110    7.7409
    7.125    7.4039
    7.140    7.1827
    7.155    6.9300
    7.170    7.1511
    7.185    6.6140
    7.200    6.2243
    7.215    6.3402
    7.230    6.0979
    7.245    6.2981
    7.260    6.6035
    7.275    6.0453
    7.290    5.8452
    7.305    5.8136
    7.320    5.9294
    7.335    6.2770
    7.350    6.1085
    7.365    6.2033
    7.380    5.9400
    7.395    5.9505
    7.410    6.8036
    7.425    6.6561
    7.440    6.6035
    7.455    6.1822
    7.470    5.7083
    7.485    6.0348
    7.500    6.4034
    7.515    6.4350
    7.530    6.4350
    7.545    6.5929
    7.560    6.4771
    7.575    6.3823
    7.590    6.5403
    7.605    6.4244
    7.620    6.5719
    7.635    6.6035
    7.650    6.7930
    7.665    6.6772
    7.680    6.6561
    7.695    6.7509
    7.710    7.0142
    7.725    7.0669
    7.740    7.2459
    7.755    7.1722
    7.770    7.0248
    7.785    7.4882
    7.800    7.4250
    7.815    7.7725
    7.830    7.3723
    7.845    7.7725
    7.860    7.6672
    7.875    8.0042
    7.890    8.0885
    7.905    7.9305
    7.920    7.8146
    7.935    8.1938
    7.950    8.5097
    7.965    8.5308
    7.980    8.4676
    7.995    8.8678
    8.010    8.9100
    8.025    9.0679
    8.040    8.9415
    8.055    8.5519
    8.070    8.9521
    8.085    8.8046
    8.100    8.8678
    8.115    8.7414
    8.130    8.7414
    8.145    8.8152
    8.160    9.0363
    8.175    8.3307
    8.190    8.9731
    8.205    9.2364
    8.220    9.0679
    8.235    8.8362
    8.250    8.8994
    8.265    8.5940
    8.280    8.6361
    8.295    7.9621
    8.310    8.0463
    8.325    8.3307
    8.340    8.0674
    8.355    8.1517
    8.370    8.1622
    8.385    8.3939
    8.400    7.8989
    8.415    7.5197
    8.430    7.6461
    8.445    7.6251
    8.460    7.5303
    8.475    7.5513
    8.490    7.5303
    8.505    7.0879
    8.520    7.1617
    8.535    7.0248
    8.550    7.2565
    8.565    6.8773
    8.580    6.7615
    8.595    6.3823
    8.610    6.5403
    8.625    6.6245
    8.640    6.5403
    8.655    6.2770
    8.670    5.9821
    8.685    6.0032
    8.700    6.3928
    8.715    5.9505
    8.730    5.8136
    8.745    5.9400
    8.760    5.6661
    8.775    5.5714
    8.790    5.6451
    8.805    5.6451
    8.820    5.5398
    8.835    5.4555
    8.850    5.6767
    8.865    5.7925
    8.880    5.5714
    8.895    5.5819
    8.910    5.6661
    8.925    5.2765
    8.940    5.6872
    8.955    5.1606
    8.970    5.3923
    8.985    5.4239
    9.000    5.4555
    9.015    5.4028
    9.030    5.2975
    9.045    4.8868
    9.060    4.9816
    9.075    4.8657
    9.090    5.0869
    9.105    4.8236
    9.120    5.1606
    9.135    4.9710
    9.150    5.0448
    9.165    5.3712
    9.180    4.8973
    9.195    4.7077
    9.210    5.0764
    9.225    5.3712
    9.240    5.0448
    9.255    5.1080
    9.270    4.9816
    9.285    4.8025
    9.300    4.6445
    9.315    4.7815
    9.330    5.1080
    9.345    4.7288
    9.360    4.9816
    9.375    5.3186
    9.390    5.1817
    9.405    5.0237
    9.420    4.6130
    9.435    4.8763
    9.450    4.7920
    9.465    4.9816
    9.480    4.7393
    9.495    4.9184
    9.510    4.7499
    9.525    4.9184
    9.540    5.2027
    9.555    5.0448
    9.570    4.9078
    9.585    5.0026
    9.600    4.8973
    9.615    4.8131
    9.630    5.0869
    9.645    4.9921
    9.660    4.8868
    9.675    5.1817
    9.690    5.0132
    9.705    4.7077
    9.720    4.8657
    9.735    4.9605
    9.750    4.8763
    9.765    5.1711
    9.780    4.6551
    9.795    5.0448
    9.810    5.1606
    9.825    5.0132
    9.840    4.9921
    9.855    4.8868
    9.870    4.9710
    9.885    5.3502
    9.900    4.8236
    9.915    4.8447
    9.930    4.6761
    9.945    5.2554
    9.960    4.9500
    9.975    4.7288
    9.990    4.9394
   10.005    4.8025
   10.020    4.9078
   10.035    4.8341
   10.050    5.0026
   10.065    4.9816
   10.080    4.6867
   10.095    4.8657
   10.110    4.8868
   10.125    5.2449
   10.140    4.9394
   10.155    4.9921
   10.170    4.8447
   10.185    4.8657
   10.200    4.3286
   10.215    5.2975
   10.230    5.2870
   10.245    5.1922
   10.260    5.0132
   10.275    5.4344
   10.290    5.3081
   10.305    5.3186
   10.320    5.5714
   10.335    5.3923
   10.350    5.2133
   10.365    5.2449
   10.380    5.5292
   10.395    5.8873
   10.410    5.7188
   10.425    5.5503
   10.440    5.5503
   10.455    5.3607
   10.470    5.4871
   10.485    5.2765
   10.500    5.3081
   10.515    5.3397
   10.530    5.4976
   10.545    5.5714
   10.560    5.7083
   10.575    5.0974
   10.590    5.1185
   10.605    5.0342
   10.620    5.0132
   10.635    5.2449
   10.650    4.8973
   10.665    4.6867
   10.680    4.9710
   10.695    5.1290
   10.710    4.9710
   10.725    5.0553
   10.740    4.9710
   10.755    5.3923
   10.770    5.1922
   10.785    4.5814
   10.800    5.0869
   10.815    5.2133
   10.830    4.5287
   10.845    4.8447
   10.860    4.8447
   10.875    4.6972
   10.890    4.9078
   10.905    4.6551
   10.920    4.7288
   10.935    4.8447
   10.950    4.7499
   10.965    5.0448
   10.980    4.9078
   10.995    4.8341
   11.010    5.1501
   11.025    4.9921
   11.040    4.6340
   11.055    4.8236
   11.070    5.0342
   11.085    5.2449
   11.100    4.9078
   11.115    4.7815
   11.130    5.1395
   11.145    4.9921
   11.160    5.1290
   11.175    5.0342
   11.190    5.0342
   11.205    4.9289
   11.220    4.7604
   11.235    4.8447
   11.250    5.1080
   11.265    4.9184
   11.280    4.7393
   11.295    4.9289
   11.310    4.6972
   11.325    4.9078
   11.340    4.9500
   11.355    4.7183
   11.370    4.9184
   11.385    4.8552
   11.400    5.2975
   11.415    5.0869
   11.430    4.7815
   11.445    5.0448
   11.460    4.9605
   11.475    4.8973
   11.490    4.9921
   11.505    4.7077
   11.520    4.7499
   11.535    4.8552
   11.550    4.4866
   11.565    4.6972
   11.580    4.8763
   11.595    5.1185
   11.610    5.1711
   11.625    5.1290
   11.640    5.0132
   11.655    5.3712
   11.670    5.2027
   11.685    4.9394
   11.700    5.0869
   11.715    5.2027
   11.730    5.1185
   11.745    5.0553
   11.760    5.0026
   11.775    5.3081
   11.790    5.1080
   11.805    5.1817
   11.820    4.8763
   11.835    4.7077
   11.850    5.2659
   11.865    5.2554
   11.880    5.3397
   11.895    5.1606
   11.910    5.3502
   11.925    5.4660
   11.940    5.3186
   11.955    5.1185
   11.970    4.9710
   11.985    5.3818
   12.000    5.3186
   12.015    5.2870
   12.030    5.2975
   12.045    4.9710
   12.060    5.2975
   12.075    5.5714
   12.090    5.6451
   12.105    5.2449
   12.120    5.3081
   12.135    5.3923
   12.150    5.1711
   12.165    5.1817
   12.180    5.2975
   12.195    5.5924
   12.210    5.6872
   12.225    5.5187
   12.240    5.5187
   12.255    5.4555
   12.270    5.2659
   12.285    5.6240
   12.300    5.7820
   12.315    5.5819
   12.330    5.2765
   12.345    5.3923
   12.360    5.9084
   12.375    5.4555
   12.390    5.3923
   12.405    5.5608
   12.420    5.6767
   12.435    5.2554
   12.450    5.4450
   12.465    5.3081
   12.480    5.1185
   12.495    5.0974
   12.510    5.4976
   12.525    5.3081
   12.540    5.6556
   12.555    5.6029
   12.570    5.2554
   12.585    5.1185
   12.600    4.8868
   12.615    5.1185
   12.630    5.2870
   12.645    5.0869
   12.660    5.4871
   12.675    5.3502
   12.690    5.5082
   12.705    5.4450
   12.720    5.4239
   12.735    5.3081
   12.750    5.4450
   12.765    5.4555
   12.780    5.3186
   12.795    5.4660
   12.810    5.3923
   12.825    5.2659
   12.840    5.4344
   12.855    5.4344
   12.870    5.4976
   12.885    5.1185
   12.900    4.9500
   12.915    5.0132
   12.930    5.6661
   12.945    5.2870
   12.960    5.2554
   12.975    5.4766
   12.990    5.1501
   13.005    5.3502
   13.020    5.1606
   13.035    5.0026
   13.050    5.0658
   13.065    5.0658
   13.080    5.0237
   13.095    4.9394
   13.110    5.0132
   13.125    5.0764
   13.140    4.8763
   13.155    5.3502
   13.170    5.2659
   13.185    4.6761
   13.200    4.9500
   13.215    5.3397
   13.230    5.3818
   13.245    5.1290
   13.260    5.0553
   13.275    4.9605
   13.290    4.7077
   13.305    4.9078
   13.320    5.3818
   13.335    5.1922
   13.350    5.1817
   13.365    4.8447
   13.380    5.0869
   13.395    5.0658
   13.410    5.2659
   13.425    4.9289
   13.440    5.0869
   13.455    5.6872
   13.470    4.9394
   13.485    5.4450
   13.500    5.1606
   13.515    5.4134
   13.530    4.7499
   13.545    5.1606
   13.560    5.3186
   13.575    5.2027
   13.590    4.9500
   13.605    5.2554
   13.620    4.9710
   13.635    5.0869
   13.650    4.9605
   13.665    4.9184
   13.680    5.0869
   13.695    5.3502
   13.710    4.8552
   13.725    4.7815
   13.740    4.8973
   13.755    5.0132
   13.770    4.8657
   13.785    4.8341
   13.800    5.1817
   13.815    4.9816
   13.830    5.2027
   13.845    5.2133
   13.860    4.9289
   13.875    5.1711
   13.890    5.1817
   13.905    5.0448
   13.920    4.9816
   13.935    5.1711
   13.950    5.2554
   13.965    5.1922
   13.980    4.6972
   13.995    4.9921
   14.010    4.9710
   14.025    4.8657
   14.040    5.1501
   14.055    5.0448
   14.070    4.8447
   14.085    4.9816
   14.100    4.9500
   14.115    4.8868
   14.130    4.7920
   14.145    5.3186
   14.160    5.0869
   14.175    4.7920
   14.190    4.9710
   14.205    5.2870
   14.220    4.8131
   14.235    4.4444
   14.250    4.7499
   14.265    5.2343
   14.280    4.7920
   14.295    5.0658
   14.310    4.9816
   14.325    4.8025
   14.340    5.0132
   14.355    4.6656
   14.370    4.7288
   14.385    4.6972
   14.400    4.6130
   14.415    4.7499
   14.430    4.7709
   14.445    4.5919
   14.460    4.8657
   14.475    5.2133
   14.490    4.6761
   14.505    4.8973
   14.520    4.4550
   14.535    4.5392
   14.550    4.8025
   14.565    4.9184
   14.580    4.7920
   14.595    4.5182
   14.610    4.4760
   14.625    4.4655
   14.640    4.6551
   14.655    4.8763
   14.670    4.6656
   14.685    4.6656
   14.700    4.8025
   14.715    5.0974
   14.730    5.0132
   14.745    4.8447
   14.760    4.6972
   14.775    4.6235
   14.790    4.3813
   14.805    4.7815
   14.820    4.6551
   14.835    4.8973
   14.850    4.6972
   14.865    4.7183
   14.880    4.8973
   14.895    4.6656
   14.910    4.6340
   14.925    4.5076
   14.940    4.6867
   14.955    5.0237
   14.970    4.7393
   14.985    4.8868
   15.000    4.7077
   15.015    4.9500
   15.030    4.7920
   15.045    4.8131
   15.060    4.7920
   15.075    4.9921
   15.090    4.7709
   15.105    4.4866
   15.120    4.5392
   15.135    4.8657
   15.150    5.0869
   15.165    4.8025
   15.180    5.0026
   15.195    4.7604
   15.210    4.5287
   15.225    4.8341
   15.240    5.0553
   15.255    4.8131
   15.270    4.7288
   15.285    4.6656
   15.300    4.6972
   15.315    4.7604
   15.330    4.7288
   15.345    4.7288
   15.360    4.6761
   15.375    4.6656
   15.390    4.9605
   15.405    5.0553
   15.420    4.9394
   15.435    4.9078
   15.450    4.9710
   15.465    4.7709
   15.480    5.0237
   15.495    4.8447
   15.510    4.7183
   15.525    4.9394
   15.540    4.6972
   15.555    4.9816
   15.570    5.2238
   15.585    4.7920
   15.600    4.8341
   15.615    5.0553
   15.630    4.6656
   15.645    4.7604
   15.660    4.7499
   15.675    4.9394
   15.690    4.9184
   15.705    5.1080
   15.720    4.9184
   15.735    4.8552
   15.750    4.6761
   15.765    4.4866
   15.780    4.7920
   15.795    4.8025
   15.810    4.8447
   15.825    4.7393
   15.840    5.2975
   15.855    4.8447
   15.870    4.9394
   15.885    4.7499
   15.900    4.7709
   15.915    4.8236
   15.930    5.1080
   15.945    4.9394
   15.960    4.8657
   15.975    4.6445
   15.990    4.8973
   16.005    5.0764
   16.020    5.0448
   16.035    4.6235
   16.050    4.6972
   16.065    4.8763
   16.080    5.1290
   16.095    4.8341
   16.110    4.9289
   16.125    4.7183
   16.140    4.6024
   16.155    4.8763
   16.170    5.2449
   16.185    4.9921
   16.200    4.8341
   16.215    4.6656
   16.230    4.8657
   16.245    4.6761
   16.260    4.9394
   16.275    4.7077
   16.290    4.9394
   16.305    5.1185
   16.320    5.1080
   16.335    4.9184
   16.350    4.6024
   16.365    4.6656
   16.380    4.7709
   16.395    4.7604
   16.410    4.7499
   16.425    4.6235
   16.440    4.8341
   16.455    4.9394
   16.470    5.2870
   16.485    4.9184
   16.500    5.2027
   16.515    4.7920
   16.530    4.5182
   16.545    4.9605
   16.560    4.7393
   16.575    4.5287
   16.590    4.4866
   16.605    4.7288
   16.620    4.8447
   16.635    4.6972
   16.650    4.3391
   16.665    4.6761
   16.680    4.6867
   16.695    4.8341
   16.710    4.5076
   16.725    4.4128
   16.740    4.3707
   16.755    4.3497
   16.770    4.6445
   16.785    4.4339
   16.800    4.4128
   16.815    4.6761
   16.830    4.6551
   16.845    4.5076
   16.860    4.6130
   16.875    4.8763
   16.890    4.9394
   16.905    4.5287
   16.920    4.5498
   16.935    4.3391
   16.950    4.7288
   16.965    4.7709
   16.980    4.7709
   16.995    5.0448
   17.010    4.3918
   17.025    4.9816
   17.040    4.1811
   17.055    4.3602
   17.070    4.4866
   17.085    4.7709
   17.100    4.6761
   17.115    4.9500
   17.130    4.6235
   17.145    4.4866
   17.160    4.5498
   17.175    4.6235
   17.190    4.7709
   17.205    4.7288
   17.220    4.9500
   17.235    5.0553
   17.250    4.8236
   17.265    4.4760
   17.280    4.6867
   17.295    4.8763
   17.310    4.6761
   17.325    4.8341
   17.340    4.8236
   17.355    4.9289
   17.370    5.0869
   17.385    5.0342
   17.400    4.6130
   17.415    4.6761
   17.430    4.7393
   17.445    5.0869
   17.460    4.5603
   17.475    4.7920
   17.490    4.7920
   17.505    4.9078
   17.520    4.6761
   17.535    4.6761
   17.550    5.1290
   17.565    5.0448
   17.580    4.7709
   17.595    4.8973
   17.610    4.9605
   17.625    4.4866
   17.640    4.4023
   17.655    4.8236
   17.670    4.6024
   17.685    4.6656
   17.700    4.7709
   17.715    4.5919
   17.730    4.6656
   17.745    4.6445
   17.760    4.8763
   17.775    4.8973
   17.790    5.0342
   17.805    4.8131
   17.820    4.4655
   17.835    4.4339
   17.850    4.5919
   17.865    4.6235
   17.880    4.7604
   17.895    4.6024
   17.910    4.6445
   17.925    5.0237
   17.940    5.0342
   17.955    5.1501
   17.970    5.1501
   17.985    4.9500
   18.000    5.1395
   18.015    4.8025
   18.030    4.8025
   18.045    5.0764
   18.060    5.3397
   18.075    4.8025
   18.090    5.0448
   18.105    4.7288
   18.120    5.0026
   18.135    5.1290
   18.150    5.2554
   18.165    4.9710
   18.180    4.9289
   18.195    4.8131
   18.210    5.2027
   18.225    4.9710
   18.240    4.8236
   18.255    4.6551
   18.270    4.4971
   18.285    4.8973
   18.300    4.8341
   18.315    4.8447
   18.330    4.9500
   18.345    4.9078
   18.360    4.7183
   18.375    4.7183
   18.390    4.7183
   18.405    4.7393
   18.420    5.0553
   18.435    4.7709
   18.450    4.7920
   18.465    4.9710
   18.480    4.9289
   18.495    4.5603
   18.510    4.9710
   18.525    4.9921
   18.540    4.6130
   18.555    4.9184
   18.570    5.0869
   18.585    5.2659
   18.600    4.5708
   18.615    4.9605
   18.630    4.9816
   18.645    5.2133
   18.660    4.7920
   18.675    4.7604
   18.690    5.0658
   18.705    5.2975
   18.720    4.6867
   18.735    4.6761
   18.750    4.8341
   18.765    4.9394
   18.780    5.0869
   18.795    5.0342
   18.810    4.5392
   18.825    4.6867
   18.840    4.9184
   18.855    4.6761
   18.870    4.9394
   18.885    5.1290
   18.900    5.0658
   18.915    4.8447
   18.930    4.8868
   18.945    4.9710
   18.960    5.1817
   18.975    5.0764
   18.990    5.2659
   19.005    4.8552
   19.020    5.2133
   19.035    5.5608
   19.050    5.2659
   19.065    5.3502
   19.080    4.9921
   19.095    4.9921
   19.110    4.8657
   19.125    5.1395
   19.140    5.0658
   19.155    4.4128
   19.170    4.5919
   19.185    4.8868
   19.200    4.9921
   19.215    4.8763
   19.230    4.9816
   19.245    5.1185
   19.260    4.9289
   19.275    4.9921
   19.290    4.9500
   19.305    5.0026
   19.320    4.9078
   19.335    5.0974
   19.350    4.8657
   19.365    4.7499
   19.380    5.1711
   19.395    5.3081
   19.410    5.0448
   19.425    4.8341
   19.440    4.9921
   19.455    4.9289
   19.470    5.0553
   19.485    4.8657
   19.500    5.1501
   19.515    4.9500
   19.530    5.1711
   19.545    5.1817
   19.560    5.0237
   19.575    5.3186
   19.590    5.2027
   19.605    4.8341
   19.620    5.0132
   19.635    5.0869
   19.650    5.2975
   19.665    5.5082
   19.680    5.2027
   19.695    5.4555
   19.710    5.2343
   19.725    5.2975
   19.740    5.2343
   19.755    5.2027
   19.770    5.2870
   19.785    5.4134
   19.800    5.3607
   19.815    5.2449
   19.830    5.4450
   19.845    5.2765
   19.860    5.6240
   19.875    5.3607
   19.890    5.4976
   19.905    5.2659
   19.920    5.0764
   19.935    5.3397
   19.950    5.3081
   19.965    5.1185
   19.980    5.1606
   19.995    5.4134
   20.010    5.4344
   20.025    5.3923
   20.040    5.5608
   20.055    5.5503
   20.070    5.2133
   20.085    5.1185
   20.100    5.6451
   20.115    5.5292
   20.130    5.3397
   20.145    5.2554
   20.160    5.3081
   20.175    5.5187
   20.190    5.6029
   20.205    5.5082
   20.220    5.4344
   20.235    5.3818
   20.250    5.2870
   20.265    5.7399
   20.280    5.7820
   20.295    5.6767
   20.310    5.4660
   20.325    5.3607
   20.340    5.6345
   20.355    5.4766
   20.370    5.1606
   20.385    5.3712
   20.400    5.6451
   20.415    5.4450
   20.430    5.4239
   20.445    5.4660
   20.460    5.8347
   20.475    5.4239
   20.490    4.8763
   20.505    5.0658
   20.520    5.5714
   20.535    5.2343
   20.550    5.4134
   20.565    5.3081
   20.580    5.4134
   20.595    5.3607
   20.610    5.3186
   20.625    5.1711
   20.640    5.1817
   20.655    5.4344
   20.670    5.2133
   20.685    5.4660
   20.700    5.4766
   20.715    5.1290
   20.730    5.0869
   20.745    5.4660
   20.760    5.0869
   20.775    5.0974
   20.790    5.2870
   20.805    5.6451
   20.820    5.2449
   20.835    5.1711
   20.850    5.5082
   20.865    5.1606
   20.880    5.6872
   20.895    5.2449
   20.910    4.9816
   20.925    4.9921
   20.940    5.3712
   20.955    5.3186
   20.970    4.8763
   20.985    5.2449
   21.000    5.8978
   21.015    5.8241
   21.030    5.9400
   21.045    5.3502
   21.060    5.5503
   21.075    5.3186
   21.090    5.4871
   21.105    5.4555
   21.120    5.3397
   21.135    5.7293
   21.150    5.7399
   21.165    5.1711
   21.180    5.3081
   21.195    5.1606
   21.210    5.4134
   21.225    5.6767
   21.240    5.2870
   21.255    5.0764
   21.270    5.3397
   21.285    5.6556
   21.300    5.0974
   21.315    5.3291
   21.330    5.6977
   21.345    5.2870
   21.360    5.1606
   21.375    5.3607
   21.390    4.9078
   21.405    5.3818
   21.420    5.5292
   21.435    5.2133
   21.450    5.3291
   21.465    5.0448
   21.480    5.1080
   21.495    5.3712
   21.510    5.4028
   21.525    5.6767
   21.540    5.7715
   21.555    5.7399
   21.570    5.4239
   21.585    5.2659
   21.600    5.3923
   21.615    5.4976
   21.630    5.1395
   21.645    5.2765
   21.660    5.6345
   21.675    5.6135
   21.690    5.4239
   21.705    5.4028
   21.720    5.7188
   21.735    5.6556
   21.750    5.2449
   21.765    5.3818
   21.780    5.3923
   21.795    5.3502
   21.810    5.3818
   21.825    5.6767
   21.840    5.3712
   21.855    5.3818
   21.870    5.4871
   21.885    5.5398
   21.900    5.5292
   21.915    5.1501
   21.930    5.8136
   21.945    5.3607
   21.960    5.3818
   21.975    5.6661
   21.990    5.1817
   22.005    5.2870
   22.020    5.6135
   22.035    5.1817
   22.050    5.5292
   22.065    5.2554
   22.080    5.5292
   22.095    5.2133
   22.110    5.5292
   22.125    5.5608
   22.140    5.3081
   22.155    5.3607
   22.170    5.4344
   22.185    5.0026
   22.200    5.4134
   22.215    5.1395
   22.230    5.3081
   22.245    5.1922
   22.260    5.2449
   22.275    5.5398
   22.290    5.6977
   22.305    5.2027
   22.320    5.2870
   22.335    5.2554
   22.350    5.5187
   22.365    5.4344
   22.380    5.4239
   22.395    5.4555
   22.410    5.2870
   22.425    5.5398
   22.440    5.2027
   22.455    5.6135
   22.470    5.3607
   22.485    5.3607
   22.500    5.2975
   22.515    5.1080
   22.530    5.1606
   22.545    5.1290
   22.560    4.9078
   22.575    5.4450
   22.590    5.0448
   22.605    5.1922
   22.620    5.2765
   22.635    5.2238
   22.650    5.4239
   22.665    5.1922
   22.680    4.8447
   22.695    5.1185
   22.710    5.1290
   22.725    5.0764
   22.740    5.0974
   22.755    5.4660
   22.770    5.5608
   22.785    5.6345
   22.800    5.3607
   22.815    5.3502
   22.830    5.4976
   22.845    4.9184
   22.860    5.2554
   22.875    5.4660
   22.890    5.2659
   22.905    5.2659
   22.920    5.3923
   22.935    5.2659
   22.950    5.2554
   22.965    5.2343
   22.980    5.3397
   22.995    5.3397
   23.010    5.6029
   23.025    5.5819
   23.040    5.2659
   23.055    5.0448
   23.070    5.2449
   23.085    5.1185
   23.100    5.0658
   23.115    5.2554
   23.130    5.6556
   23.145    5.5082
   23.160    5.7609
   23.175    5.6135
   23.190    5.2554
   23.205    5.2870
   23.220    4.9816
   23.235    5.0658
   23.250    5.0342
   23.265    5.1817
   23.280    5.2659
   23.295    5.1922
   23.310    5.2343
   23.325    5.2765
   23.340    4.9605
   23.355    5.2133
   23.370    5.0974
   23.385    5.0237
   23.400    5.1711
   23.415    5.2343
   23.430    5.2343
   23.445    5.0974
   23.460    5.0026
   23.475    5.1080
   23.490    5.0764
   23.505    5.3502
   23.520    5.1922
   23.535    4.8763
   23.550    4.9605
   23.565    5.1501
   23.580    5.2554
   23.595    5.1290
   23.610    5.0764
   23.625    5.1395
   23.640    5.4134
   23.655    5.3712
   23.670    5.0658
   23.685    4.9078
   23.700    5.2343
   23.715    5.1711
   23.730    5.0237
   23.745    5.2870
   23.760    5.8241
   23.775    5.1711
   23.790    5.2870
   23.805    5.1606
   23.820    5.1290
   23.835    5.4028
   23.850    5.5082
   23.865    5.3291
   23.880    5.1922
   23.895    5.1501
   23.910    4.9289
   23.925    4.9289
   23.940    5.1501
   23.955    5.0764
   23.970    5.2449
   23.985    5.2343
   24.000    5.2975
   24.015    5.0448
   24.030    4.8341
   24.045    5.0237
   24.060    5.2238
   24.075    5.1711
   24.090    5.1395
   24.105    5.0974
   24.120    5.2027
   24.135    5.5292
   24.150    5.0448
   24.165    5.2870
   24.180    5.2975
   24.195    4.8236
   24.210    4.8552
   24.225    5.3607
   24.240    5.2870
   24.255    4.9816
   24.270    5.0974
   24.285    5.0448
   24.300    4.6235
   24.315    4.8341
   24.330    4.9184
   24.345    5.1711
   24.360    5.1817
   24.375    4.8447
   24.390    4.8236
   24.405    5.2027
   24.420    4.8973
   24.435    5.0553
   24.450    5.2343
   24.465    4.8868
   24.480    4.9184
   24.495    5.1922
   24.510    4.9078
   24.525    4.7604
   24.540    4.8973
   24.555    4.8552
   24.570    5.1711
   24.585    4.8131
   24.600    4.9816
   24.615    4.9710
   24.630    5.0764
   24.645    5.1817
   24.660    5.2765
   24.675    5.0974
   24.690    4.8236
   24.705    5.3712
   24.720    5.4660
   24.735    5.1080
   24.750    5.1080
   24.765    4.9394
   24.780    4.7920
   24.795    4.7288
   24.810    4.9605
   24.825    5.1922
   24.840    5.0974
   24.855    4.9816
   24.870    4.7183
   24.885    4.9184
   24.900    5.0658
   24.915    4.7499
   24.930    4.7815
   24.945    4.7920
   24.960    4.6972
   24.975    4.5919
   24.990    5.0974
   25.005    5.2027
   25.020    4.8236
   25.035    4.9184
   25.050    4.8657
   25.065    4.6235
   25.080    4.8131
   25.095    5.0026
   25.110    4.8552
   25.125    4.4760
   25.140    4.4234
   25.155    4.4128
   25.170    4.6130
   25.185    5.0448
   25.200    4.6551
   25.215    4.6972
   25.230    4.5814
   25.245    4.8763
   25.260    4.5919
   25.275    4.4760
   25.290    5.1395
   25.305    4.7709
   25.320    4.6445
   25.335    4.9710
   25.350    4.5919
   25.365    4.8447
   25.380    4.6656
   25.395    4.4023
   25.410    5.1501
   25.425    4.6024
   25.440    4.9184
   25.455    4.7815
   25.470    4.6340
   25.485    4.7920
   25.500    4.6551
   25.515    4.9710
   25.530    4.9289
   25.545    4.6867
   25.560    5.0658
   25.575    4.8763
   25.590    4.8973
   25.605    4.9710
   25.620    4.8973
   25.635    4.8025
   25.650    4.8025
   25.665    4.9710
   25.680    4.5814
   25.695    4.5182
   25.710    4.7393
   25.725    4.5392
   25.740    4.3707
   25.755    4.9289
   25.770    4.9289
   25.785    4.8657
   25.800    4.5919
   25.815    4.4444
   25.830    4.7077
   25.845    4.6656
   25.860    4.6551
   25.875    4.7288
   25.890    4.6024
   25.905    4.7920
   25.920    4.3707
   25.935    5.0026
   25.950    4.6867
   25.965    4.8236
   25.980    4.5708
   25.995    4.7183
   26.010    5.0448
   26.025    4.7183
   26.040    4.6340
   26.055    4.6235
   26.070    4.8973
   26.085    4.6972
   26.100    4.5287
   26.115    4.8447
   26.130    4.6235
   26.145    4.6445
   26.160    4.6551
   26.175    4.6761
   26.190    4.4655
   26.205    4.5814
   26.220    4.4655
   26.235    4.6551
   26.250    4.6024
   26.265    4.7393
   26.280    4.5498
   26.295    4.5392
   26.310    4.6340
   26.325    4.5076
   26.340    4.2549
   26.355    4.3286
   26.370    4.8025
   26.385    4.8341
   26.400    4.4550
   26.415    4.5919
   26.430    4.5603
   26.445    4.7288
   26.460    4.8236
   26.475    4.5392
   26.490    4.5708
   26.505    4.6867
   26.520    4.6340
   26.535    4.3602
   26.550    4.5287
   26.565    4.7077
   26.580    4.2865
   26.595    4.7288
   26.610    4.4234
   26.625    4.4234
   26.640    4.2233
   26.655    4.7499
   26.670    4.7393
   26.685    4.4444
   26.700    4.7077
   26.715    4.6024
   26.730    4.3918
   26.745    4.3286
   26.760    4.6656
   26.775    4.8025
   26.790    4.6340
   26.805    4.8868
   26.820    4.4760
   26.835    4.6024
   26.850    4.5498
   26.865    4.4760
   26.880    4.7604
   26.895    4.5708
   26.910    4.5814
   26.925    4.7288
   26.940    4.4971
   26.955    4.7077
   26.970    4.5076
   26.985    4.4234
   27.000    4.4760
   27.015    4.2759
   27.030    4.2759
   27.045    4.4339
   27.060    4.5076
   27.075    4.5076
   27.090    4.4971
   27.105    4.4444
   27.120    4.1601
   27.135    4.3602
   27.150    4.9289
   27.165    4.6551
   27.180    4.8236
   27.195    4.4339
   27.210    4.6551
   27.225    4.5814
   27.240    4.3391
   27.255    4.4444
   27.270    4.4760
   27.285    4.5287
   27.300    4.8025
   27.315    4.3391
   27.330    4.1706
   27.345    4.2759
   27.360    4.2338
   27.375    4.2970
   27.390    4.6235
   27.405    4.4023
   27.420    4.7183
   27.435    4.6130
   27.450    4.5814
   27.465    4.7288
   27.480    4.7077
   27.495    4.3918
   27.510    4.4866
   27.525    4.5392
   27.540    4.7077
   27.555    4.6130
   27.570    4.8025
   27.585    4.5182
   27.600    4.4339
   27.615    4.5076
   27.630    4.4971
   27.645    4.5076
   27.660    4.7288
   27.675    4.5392
   27.690    4.6656
   27.705    4.4234
   27.720    4.6761
   27.735    4.6235
   27.750    4.6867
   27.765    4.5287
   27.780    4.7709
   27.795    4.4339
   27.810    4.2233
   27.825    4.3707
   27.840    4.6024
   27.855    4.5392
   27.870    4.6972
   27.885    4.3602
   27.900    4.3602
   27.915    4.4023
   27.930    4.8341
   27.945    4.5814
   27.960    4.4866
   27.975    4.4760
   27.990    4.5919
   28.005    4.8447
   28.020    4.7499
   28.035    4.7288
   28.050    4.6340
   28.065    4.8973
   28.080    4.9500
   28.095    4.4234
   28.110    4.5287
   28.125    4.5182
   28.140    4.7815
   28.155    4.4971
   28.170    4.3813
   28.185    4.7499
   28.200    4.7077
   28.215    4.7499
   28.230    4.8236
   28.245    4.5076
   28.260    4.6024
   28.275    4.5498
   28.290    4.9184
   28.305    4.8131
   28.320    4.6024
   28.335    4.3813
   28.350    4.4023
   28.365    4.5076
   28.380    4.5182
   28.395    4.5076
   28.410    4.2865
   28.425    4.3918
   28.440    4.4971
   28.455    4.4234
   28.470    4.6024
   28.485    4.2654
   28.500    4.2865
   28.515    4.3707
   28.530    4.3918
   28.545    4.6130
   28.560    4.5182
   28.575    4.5603
   28.590    4.4655
   28.605    4.6024
   28.620    4.5603
   28.635    4.3181
   28.650    4.4655
   28.665    4.6761
   28.680    4.6130
   28.695    4.7077
   28.710    4.0758
   28.725    4.2022
   28.740    4.4971
   28.755    4.2233
   28.770    4.2970
   28.785    4.4971
   28.800    4.1496
   28.815    4.0864
   28.830    4.3497
   28.845    4.3181
   28.860    4.5076
   28.875    4.4760
   28.890    4.5498
   28.905    4.3813
   28.920    4.4760
   28.935    4.6761
   28.950    4.6867
   28.965    4.7499
   28.980    4.7288
   28.995    4.3075
   29.010    4.6340
   29.025    4.6340
   29.040    4.5392
   29.055    4.4234
   29.070    4.5498
   29.085    4.5814
   29.100    4.2338
   29.115    4.2759
   29.130    4.3497
   29.145    4.1601
   29.160    4.0232
   29.175    4.5076
   29.190    4.6235
   29.205    4.0126
   29.220    4.0758
   29.235    4.6972
   29.250    4.5708
   29.265    4.3602
   29.280    4.5182
   29.295    4.4128
   29.310    4.2549
   29.325    4.8341
   29.340    4.4128
   29.355    4.1917
   29.370    4.5603
   29.385    4.4234
   29.400    4.4866
   29.415    4.9605
   29.430    4.6656
   29.445    4.4655
   29.460    4.4655
   29.475    4.4760
   29.490    4.4760
   29.505    4.5287
   29.520    4.4760
   29.535    4.3075
   29.550    4.4550
   29.565    4.1917
   29.580    4.1917
   29.595    4.3286
   29.610    4.4023
   29.625    4.2022
   29.640    4.2022
   29.655    4.1917
   29.670    4.1180
   29.685    4.0653
   29.700    3.9389
   29.715    4.0337
   29.730    4.0337
   29.745    4.1706
   29.760    4.3707
   29.775    4.1180
   29.790    4.2549
   29.805    4.3497
   29.820    4.3813
   29.835    4.3707
   29.850    4.5603
   29.865    4.4339
   29.880    4.1706
   29.895    4.2759
   29.910    3.9179
   29.925    3.9284
   29.940    4.3497
   29.955    4.4550
   29.970    4.2970
   29.985    4.1601
   30.000    4.0969
   30.015    4.3181
   30.030    4.2865
   30.045    4.0548
   30.060    4.1706
   30.075    4.2022
   30.090    4.1180
   30.105    4.2970
   30.120    4.2127
   30.135    4.5814
   30.150    4.4128
   30.165    4.2338
   30.180    4.3181
   30.195    4.0758
   30.210    4.0442
   30.225    3.7283
   30.240    4.1285
   30.255    4.2233
   30.270    4.0548
   30.285    4.0969
   30.300    4.4655
   30.315    4.2127
   30.330    4.0337
   30.345    4.1496
   30.360    4.1285
   30.375    4.2338
   30.390    4.0337
   30.405    4.0758
   30.420    3.7072
   30.435    4.0021
   30.450    4.0864
   30.465    3.9705
   30.480    4.4971
   30.495    4.2233
   30.510    4.0864
   30.525    3.9389
   30.540    4.1706
   30.555    4.2443
   30.570    4.0864
   30.585    4.3707
   30.600    3.9600
   30.615    4.2338
   30.630    3.9389
   30.645    4.2127
   30.660    4.3075
   30.675    4.2022
   30.690    3.9810
   30.705    4.0442
   30.720    4.0969
   30.735    4.2127
   30.750    4.0653
   30.765    4.1706
   30.780    4.1074
   30.795    3.9705
   30.810    4.1706
   30.825    3.8547
   30.840    4.2759
   30.855    3.9810
   30.870    4.2127
   30.885    4.4866
   30.900    4.4339
   30.915    4.0126
   30.930    4.0021
   30.945    4.3075
   30.960    4.2759
   30.975    4.3075
   30.990    4.0021
   31.005    4.1074
   31.020    4.3813
   31.035    4.1496
   31.050    3.9179
   31.065    4.1180
   31.080    4.0864
   31.095    4.3707
   31.110    3.9073
   31.125    4.3075
   31.140    4.0126
   31.155    4.2865
   31.170    4.5392
   31.185    3.9284
   31.200    3.8652
   31.215    4.0442
   31.230    4.1917
   31.245    3.9389
   31.260    3.8441
   31.275    4.1601
   31.290    3.9810
   31.305    3.9284
   31.320    4.0442
   31.335    3.9916
   31.350    4.3813
   31.365    4.1811
   31.380    4.2338
   31.395    4.0969
   31.410    3.7599
   31.425    3.8441
   31.440    3.9705
   31.455    3.6546
   31.470    4.1496
   31.485    4.4234
   31.500    4.3497
   31.515    4.3497
   31.530    4.2970
   31.545    4.5603
   31.560    4.0442
   31.575    3.8125
   31.590    4.1601
   31.605    4.3918
   31.620    4.1074
   31.635    4.2865
   31.650    4.0337
   31.665    3.9705
   31.680    4.0969
   31.695    4.2759
   31.710    4.1601
   31.725    4.1180
   31.740    4.1917
   31.755    4.1285
   31.770    4.1180
   31.785    4.2549
   31.800    4.4971
   31.815    4.2654
   31.830    4.3391
   31.845    4.2865
   31.860    3.8863
   31.875    4.2865
   31.890    4.3075
   31.905    4.0548
   31.920    4.0864
   31.935    4.2759
   31.950    4.3391
   31.965    4.2865
   31.980    4.4128
   31.995    4.3602
   32.010    4.3707
   32.025    4.4760
   32.040    4.2970
   32.055    4.6340
   32.070    4.3075
   32.085    4.3075
   32.100    4.2338
   32.115    4.4866
   32.130    4.3602
   32.145    4.5919
   32.160    4.3813
   32.175    4.2970
   32.190    4.2022
   32.205    4.1706
   32.220    4.1601
   32.235    4.2233
   32.250    3.8125
   32.265    3.9179
   32.280    3.9810
   32.295    3.9916
   32.310    3.7493
   32.325    3.7599
   32.340    3.7177
   32.355    3.9389
   32.370    4.0126
   32.385    3.6124
   32.400    3.9179
   32.415    4.1811
   32.430    4.0864
   32.445    3.9284
   32.460    4.0021
   32.475    3.8547
   32.490    4.1601
   32.505    3.7177
   32.520    3.9389
   32.535    4.0442
   32.550    3.9600
   32.565    4.1706
   32.580    4.0864
   32.595    3.8020
   32.610    3.6230
   32.625    4.0337
   32.640    3.8652
   32.655    3.8757
   32.670    3.8336
   32.685    4.1180
   32.700    4.0232
   32.715    3.8968
   32.730    3.8652
   32.745    3.9600
   32.760    3.8863
   32.775    3.6967
   32.790    3.9810
   32.805    3.9494
   32.820    4.0864
   32.835    4.2654
   32.850    4.0969
   32.865    3.9179
   32.880    4.1601
   32.895    4.0548
   32.910    3.7809
   32.925    3.9073
   32.940    3.7915
   32.955    3.7388
   32.970    3.5598
   32.985    3.7177
   33.000    4.0442
   33.015    3.6546
   33.030    3.5598
   33.045    3.9179
   33.060    3.6546
   33.075    3.7388
   33.090    4.0969
   33.105    3.8652
   33.120    4.1811
   33.135    3.8652
   33.150    3.7704
   33.165    4.1601
   33.180    3.7177
   33.195    3.8231
   33.210    4.0126
   33.225    3.6862
   33.240    3.5808
   33.255    3.7493
   33.270    3.9179
   33.285    3.8863
   33.300    3.6756
   33.315    4.0337
   33.330    3.7388
   33.345    3.5598
   33.360    3.6335
   33.375    3.8863
   33.390    3.6967
   33.405    3.4966
   33.420    3.8125
   33.435    4.0021
   33.450    4.1180
   33.465    3.7915
   33.480    3.6546
   33.495    3.6440
   33.510    3.7072
   33.525    3.9284
   33.540    3.7493
   33.555    3.6546
   33.570    3.5598
   33.585    3.5282
   33.600    3.8336
   33.615    3.7599
   33.630    3.7704
   33.645    3.6335
   33.660    3.7704
   33.675    3.7072
   33.690    3.3702
   33.705    3.7177
   33.720    3.6651
   33.735    3.9389
   33.750    3.9179
   33.765    4.0126
   33.780    3.8125
   33.795    4.4339
   33.810    4.4023
   33.825    3.8125
   33.840    3.8547
   33.855    4.3497
   33.870    3.8441
   33.885    3.5598
   33.900    3.7388
   33.915    4.2022
   33.930    3.8652
   33.945    3.6862
   33.960    3.9284
   33.975    3.5387
   33.990    3.6756
   34.005    3.8441
   34.020    3.8652
   34.035    3.7072
   34.050    3.4860
   34.065    3.3386
   34.080    3.7177
   34.095    3.7915
   34.110    3.9284
   34.125    3.6967
   34.140    3.6019
   34.155    3.4123
   34.170    3.3702
   34.185    3.5492
   34.200    3.5808
   34.215    3.4966
   34.230    3.5808
   34.245    3.5071
   34.260    3.5914
   34.275    3.5492
   34.290    3.7388
   34.305    3.7599
   34.320    3.5387
   34.335    4.0126
   34.350    3.6756
   34.365    3.4755
   34.380    3.6546
   34.395    3.4755
   34.410    3.7177
   34.425    3.5703
   34.440    3.4123
   34.455    3.4755
   34.470    3.2859
   34.485    3.5176
   34.500    3.8441
   34.515    3.3807
   34.530    3.5703
   34.545    3.7072
   34.560    3.6651
   34.575    3.6651
   34.590    3.5914
   34.605    3.6124
   34.620    3.7177
   34.635    3.6019
   34.650    3.2754
   34.665    3.3175
   34.680    3.4018
   34.695    3.4650
   34.710    3.4334
   34.725    3.7599
   34.740    3.4755
   34.755    3.4966
   34.770    3.5492
   34.785    3.1385
   34.800    3.3175
   34.815    3.3386
   34.830    3.0332
   34.845    3.7704
   34.860    3.4966
   34.875    3.4650
   34.890    3.4755
   34.905    3.4229
   34.920    3.5492
   34.935    3.5282
   34.950    3.6124
   34.965    3.4650
   34.980    3.7283
   34.995    3.6440
   35.010    3.7809
   35.025    3.8757
   35.040    3.6335
   35.055    3.6651
   35.070    3.9389
   35.085    3.5914
   35.100    3.4860
   35.115    3.5808
   35.130    3.5703
   35.145    3.4334
   35.160    3.5387
   35.175    3.8336
   35.190    3.6651
   35.205    3.3281
   35.220    3.6019
   35.235    3.8757
   35.250    3.3913
   35.265    3.4755
   35.280    3.3597
   35.295    3.3386
   35.310    3.7072
   35.325    3.4860
   35.340    3.3702
   35.355    3.3597
   35.370    3.0858
   35.385    3.2122
   35.400    3.4018
   35.415    3.5071
   35.430    3.5598
   35.445    3.6019
   35.460    3.6124
   35.475    3.5282
   35.490    3.4966
   35.505    3.4018
   35.520    3.7177
   35.535    3.4123
   35.550    3.5176
   35.565    3.2543
   35.580    3.5492
   35.595    3.4018
   35.610    3.0226
   35.625    3.5176
   35.640    3.3807
   35.655    3.2965
   35.670    3.7177
   35.685    3.6230
   35.700    3.6440
   35.715    3.4439
   35.730    3.5598
   35.745    3.6019
   35.760    3.6651
   35.775    3.4966
   35.790    3.1912
   35.805    3.4123
   35.820    3.3807
   35.835    3.3597
   35.850    3.4439
   35.865    3.4018
   35.880    3.4755
   35.895    3.4334
   35.910    3.4544
   35.925    3.5387
   35.940    3.3491
   35.955    3.6651
   35.970    3.6967
   35.985    3.6440
   36.000    3.5071
   36.015    3.5703
   36.030    3.2543
   36.045    3.6651
   36.060    3.2543
   36.075    3.2122
   36.090    3.2438
   36.105    3.4229
   36.120    3.7704
   36.135    3.3913
   36.150    3.4123
   36.165    3.3597
   36.180    3.2438
   36.195    3.0964
   36.210    3.2227
   36.225    3.3070
   36.240    3.2649
   36.255    3.2965
   36.270    3.3491
   36.285    3.1912
   36.300    3.4018
   36.315    3.5282
   36.330    3.4439
   36.345    3.4334
   36.360    3.2859
   36.375    3.4966
   36.390    3.5914
   36.405    3.2017
   36.420    3.3281
   36.435    3.5492
   36.450    3.3913
   36.465    3.3070
   36.480    3.3281
   36.495    3.5492
   36.510    3.4123
   36.525    3.3070
   36.540    3.3386
   36.555    3.1806
   36.570    3.1174
   36.585    3.1701
   36.600    3.4860
   36.615    3.3702
   36.630    3.2227
   36.645    3.3386
   36.660    3.6230
   36.675    3.6440
   36.690    3.5492
   36.705    3.2227
   36.720    3.1490
   36.735    3.2859
   36.750    3.5387
   36.765    3.5703
   36.780    3.3281
   36.795    3.0226
   36.810    3.2227
   36.825    3.4123
   36.840    3.4229
   36.855    3.1806
   36.870    3.0437
   36.885    3.2649
   36.900    3.5282
   36.915    3.2017
   36.930    3.0858
   36.945    3.3175
   36.960    3.0753
   36.975    3.1806
   36.990    3.3491
   37.005    3.4860
   37.020    3.4123
   37.035    3.6019
   37.050    3.3913
   37.065    3.3175
   37.080    3.3386
   37.095    3.3807
   37.110    3.2122
   37.125    3.2017
   37.140    3.0648
   37.155    3.3491
   37.170    3.3175
   37.185    3.2859
   37.200    3.1490
   37.215    3.1596
   37.230    3.2543
   37.245    3.5176
   37.260    3.5387
   37.275    3.2333
   37.290    3.3281
   37.305    3.1912
   37.320    3.4229
   37.335    3.2017
   37.350    3.2649
   37.365    3.2754
   37.380    3.2017
   37.395    3.3281
   37.410    3.0858
   37.425    3.4860
   37.440    3.1385
   37.455    3.5071
   37.470    3.2754
   37.485    3.0542
   37.500    3.2543
   37.515    3.3175
   37.530    3.1701
   37.545    3.2227
   37.560    3.0858
   37.575    3.3597
   37.590    3.2333
   37.605    3.1280
   37.620    3.2227
   37.635    3.4544
   37.650    3.2649
   37.665    3.0648
   37.680    3.3070
   37.695    3.1280
   37.710    3.2122
   37.725    3.1385
   37.740    3.1912
   37.755    3.0542
   37.770    3.6124
   37.785    3.2754
   37.800    3.3913
   37.815    3.5176
   37.830    3.3070
   37.845    3.1385
   37.860    3.1490
   37.875    3.1385
   37.890    3.2859
   37.905    3.3913
   37.920    3.2649
   37.935    3.1596
   37.950    3.2227
   37.965    3.2543
   37.980    3.4334
   37.995    3.2754
   38.010    3.2438
   38.025    3.3807
   38.040    3.3597
   38.055    3.2754
   38.070    3.3913
   38.085    2.9805
   38.100    3.2438
   38.115    3.4966
   38.130    3.3281
   38.145    3.4966
   38.160    3.0226
   38.175    3.0437
   38.190    3.0542
   38.205    3.2333
   38.220    3.2859
   38.235    3.2649
   38.250    3.2438
   38.265    3.3702
   38.280    3.1596
   38.295    3.0753
   38.310    3.1596
   38.325    3.2438
   38.340    3.4544
   38.355    3.3491
   38.370    3.3281
   38.385    3.1596
   38.400    3.3386
   38.415    3.4123
   38.430    3.4650
   38.445    3.2965
   38.460    3.0858
   38.475    3.2333
   38.490    3.3281
   38.505    3.2649
   38.520    3.1385
   38.535    3.2333
   38.550    2.9068
   38.565    3.2333
   38.580    3.2965
   38.595    3.0753
   38.610    2.9910
   38.625    3.2122
   38.640    2.9910
   38.655    3.2649
   38.670    3.5914
   38.685    3.4123
   38.700    3.6335
   38.715    3.1280
   38.730    3.2333
   38.745    3.3175
   38.760    3.4544
   38.775    3.2227
   38.790    3.4544
   38.805    3.1806
   38.820    3.3281
   38.835    3.3807
   38.850    3.1701
   38.865    3.2017
   38.880    3.1490
   38.895    3.2543
   38.910    3.4334
   38.925    3.3386
   38.940    2.8963
   38.955    3.2017
   38.970    3.1596
   38.985    3.0121
   39.000    3.0332
   39.015    3.0964
   39.030    3.2438
   39.045    3.1912
   39.060    3.2859
   39.075    3.1596
   39.090    3.0332
   39.105    3.0858
   39.120    2.9489
   39.135    3.0332
   39.150    3.1701
   39.165    3.2017
   39.180    3.1596
   39.195    2.9489
   39.210    3.1385
   39.225    3.0437
   39.240    3.4334
   39.255    3.1174
   39.270    3.2754
   39.285    3.3281
   39.300    3.3281
   39.315    3.2227
   39.330    3.1280
   39.345    3.3281
   39.360    3.3913
   39.375    3.2859
   39.390    3.2438
   39.405    2.9805
   39.420    3.1174
   39.435    3.0858
   39.450    3.0542
   39.465    3.1490
   39.480    2.8541
   39.495    2.8225
   39.510    3.0226
   39.525    3.1596
   39.540    3.3070
   39.555    3.0542
   39.570    3.2333
   39.585    3.1701
   39.600    3.4123
   39.615    3.2965
   39.630    3.1490
   39.645    3.1280
   39.660    3.1701
   39.675    3.2649
   39.690    3.1701
   39.705    3.1385
   39.720    2.9489
   39.735    3.2333
   39.750    3.2017
   39.765    3.1069
   39.780    2.8331
   39.795    3.2333
   39.810    3.2754
   39.825    3.5703
   39.840    3.2438
   39.855    3.1174
   39.870    3.2438
   39.885    3.0648
   39.900    3.3386
   39.915    3.3386
   39.930    3.3386
   39.945    3.2438
   39.960    2.8647
   39.975    2.9700
   39.990    3.1912
