    1.500   16.1032
    1.515   16.1137
    1.530   16.0927
    1.545   16.0716
    1.560   15.1343
    1.575   15.6082
    1.590   15.0606
    1.605   14.9447
    1.620   14.4392
    1.635   14.9658
    1.650   14.5972
    1.665   14.4708
    1.680   14.7025
    1.695   14.5340
    1.710   14.5445
    1.725   13.6914
    1.740   14.2917
    1.755   13.7441
    1.770   13.7967
    1.785   13.0911
    1.800   13.9758
    1.815   14.0706
    1.830   14.0916
    1.845   13.8494
    1.860   13.0490
    1.875   12.9963
    1.890   13.2912
    1.905   13.3333
    1.920   13.2491
    1.935   12.7436
    1.950   12.9963
    1.965   13.1227
    1.980   13.1227
    1.995   13.4808
    2.010   12.7646
    2.025   12.5856
    2.040   12.7436
    2.055   13.1754
    2.070   13.3755
    2.085   13.3544
    2.100   12.8278
    2.115   12.7330
    2.130   13.1016
    2.145   12.8278
    2.160   13.2385
    2.175   12.9963
    2.190   12.9121
    2.205   13.1438
    2.220   13.3965
    2.235   13.1016
    2.250   12.9542
    2.265   13.7862
    2.280   13.5229
    2.295   13.7019
    2.310   13.8073
    2.325   13.7125
    2.340   13.7125
    2.355   13.8073
    2.370   14.0600
    2.385   14.1022
    2.400   14.4708
    2.415   14.3339
    2.430   14.1654
    2.445   14.5761
    2.460   14.6393
    2.475   14.5340
    2.490   14.9342
    2.505   15.0395
    2.520   15.7241
    2.535   15.9663
    2.550   15.3239
    2.565   15.1027
    2.580   15.1448
    2.595   15.8083
    2.610   16.1243
    2.625   16.3560
    2.640   17.3038
    2.655   16.6298
    2.670   17.7357
    2.685   17.2091
    2.700   17.4302
    2.715   18.2517
    2.730   18.4729
    2.745   18.5887
    2.760   18.1359
    2.775   17.9252
    2.790   19.3681
    2.805   19.5261
    2.820   19.8104
    2.835   20.5477
    2.850   20.4423
    2.865   20.7583
    2.880   21.6956
    2.895   22.1485
    2.910   23.0964
    2.925   22.8963
    2.940   23.5387
    2.955   23.9389
    2.970   24.6972
    2.985   25.3713
    3.000   25.2659
    3.015   25.8347
    3.030   27.6461
    3.045   27.9621
    3.060   28.8784
    3.075   29.1838
    3.090   29.8578
    3.105   30.6582
    3.120   31.8167
    3.135   32.2380
    3.150   33.6598
    3.165   34.1864
    3.180   35.2396
    3.195   36.7773
    3.210   38.2517
    3.225   39.6103
    3.240   40.7583
    3.255   42.0221
    3.270   44.3707
    3.285   45.2765
    3.300   46.5508
    3.315   49.3418
    3.330   51.9853
    3.345   53.0700
    3.360   55.9242
    3.375   58.5045
    3.390   61.7904
    3.405   64.0442
    3.420   67.2880
    3.435   71.3218
    3.450   73.1754
    3.465   75.7873
    3.480   76.2507
    3.495   76.1243
    3.510   73.5334
    3.525   72.0800
    3.540   69.6893
    3.555   65.0658
    3.570   60.5371
    3.585   56.4929
    3.600   52.3855
    3.615   48.9626
    3.630   46.0874
    3.645   44.2127
    3.660   41.9695
    3.675   39.9157
    3.690   39.0627
    3.705   39.0521
    3.720   38.6625
    3.735   39.4313
    3.750   39.6103
    3.765   39.4102
    3.780   39.3997
    3.795   40.4423
    3.810   40.8847
    3.825   42.3907
    3.840   44.8236
    3.855   46.3402
    3.870   48.9205
    3.885   52.2275
    3.900   54.1443
    3.915   53.6282
    3.930   52.5119
    3.945   47.9937
    3.960   41.4955
    3.975   35.4608
    3.990   32.0379
    4.005   31.2902
    4.020   30.3844
    4.035   29.3523
    4.050   29.5103
    4.065   28.5729
    4.080   26.8246
    4.095   26.4560
    4.110   25.6240
    4.125   25.2238
    4.140   24.0126
    4.155   23.2438
    4.170   23.2227
    4.185   21.8641
    4.200   21.1480
    4.215   19.7894
    4.230   19.2417
    4.245   18.5571
    4.260   17.9989
    4.275   17.1985
    4.290   16.6298
    4.305   16.0927
    4.320   15.4081
    4.335   14.4392
    4.350   13.6493
    4.365   13.6177
    4.380   12.6593
    4.395   11.7852
    4.410   12.2170
    4.425   11.6588
    4.440   11.1216
    4.455   10.9110
    4.470   10.2159
    4.485    9.8789
    4.500    9.8999
    4.515    9.8894
    4.530    9.5840
    4.545    9.5208
    4.560    9.5629
    4.575    8.8994
    4.590    8.9310
    4.605    8.4571
    4.620    8.0463
    4.635    8.2570
    4.650    8.2043
    4.665    7.7514
    4.680    8.0147
    4.695    7.8778
    4.710    7.2775
    4.725    7.3828
    4.740    7.4776
    4.755    7.2670
    4.770    7.6145
    4.785    7.4355
    4.800    7.0142
    4.815    7.1301
    4.830    6.6877
    4.845    6.5824
    4.860    6.8036
    4.875    6.4350
    4.890    6.3612
    4.905    6.4139
    4.920    6.8773
    4.935    6.6140
    4.950    6.4876
    4.965    6.1401
    4.980    6.5403
    4.995    6.7404
    5.010    6.5403
    5.025    6.4876
    5.040    6.6245
    5.055    6.2770
    5.070    6.1085
    5.085    6.1085
    5.100    6.3928
    5.115    6.2981
    5.130    6.2138
    5.145    6.2033
    5.160    6.3191
    5.175    5.9610
    5.190    6.1506
    5.205    6.4034
    5.220    6.5824
    5.235    6.2770
    5.250    6.5508
    5.265    6.4455
    5.280    6.5929
    5.295    6.5403
    5.310    6.7299
    5.325    6.8878
    5.340    7.3512
    5.355    7.2565
    5.370    7.1301
    5.385    7.1301
    5.400    7.3512
    5.415    8.0358
    5.430    7.9094
    5.445    8.2675
    5.460    8.4887
    5.475    9.4365
    5.490   10.1527
    5.505   11.4060
    5.520   11.5008
    5.535   11.3744
    5.550   10.4160
    5.565    9.9315
    5.580    8.0569
    5.595    6.5929
    5.610    5.7609
    5.625    5.3397
    5.640    4.9500
    5.655    5.3081
    5.670    4.7393
    5.685    4.8973
    5.700    5.0448
    5.715    4.7183
    5.730    5.0974
    5.745    4.6972
    5.760    4.8657
    5.775    4.8025
    5.790    4.8552
    5.805    4.9710
    5.820    5.0237
    5.835    4.8025
    5.850    4.7077
    5.865    4.6130
    5.880    4.7604
    5.895    4.9078
    5.910    4.9078
    5.925    4.6656
    5.940    5.1606
    5.955    4.9816
    5.970    4.9078
    5.985    4.8236
    6.000    4.8236
    6.015    5.0553
    6.030    5.0764
    6.045    5.0026
    6.060    4.9394
    6.075    5.0342
    6.090    5.2027
    6.105    5.1501
    6.120    4.8341
    6.135    5.0658
    6.150    5.0237
    6.165    4.6130
    6.180    5.0132
    6.195    5.1817
    6.210    5.2238
    6.225    5.1080
    6.240    4.7815
    6.255    5.0974
    6.270    5.2343
    6.285    5.2975
    6.300    5.2659
    6.315    5.4555
    6.330    5.1395
    6.345    5.1080
    6.360    5.5819
    6.375    5.3186
    6.390    5.5082
    6.405    5.4555
    6.420    5.3081
    6.435    5.5608
    6.450    5.5398
    6.465    5.3397
    6.480    5.2554
    6.495    5.4239
    6.510    5.7925
    6.525    6.0453
    6.540    6.0032
    6.555    6.1927
    6.570    6.0558
    6.585    6.1506
    6.600    6.4034
    6.615    6.3296
    6.630    6.6667
    6.645    6.7404
    6.660    6.8352
    6.675    7.1195
    6.690    7.3091
    6.705    7.4460
    6.720    7.3828
    6.735    7.8989
    6.750    8.3518
    6.765    8.4781
    6.780    8.9415
    6.795    9.0679
    6.810    8.7836
    6.825    8.8152
    6.840    8.5413
    6.855    8.7625
    6.870    8.4781
    6.885    8.7836
    6.900    8.8257
    6.915    9.7736
    6.930   10.6056
    6.945   10.2370
    6.960   10.3212
    6.975   10.6372
    6.990   10.6372
    7.005   10.1527
    7.020    9.8157
    7.035    9.8999
    7.050    9.7314
    7.065    9.0469
    7.080    8.2886
    7.095    8.2991
    7.110    8.6467
    7.125    7.3934
    7.140    7.0142
    7.155    7.0985
    7.170    6.6983
    7.185    6.7825
    7.200    6.5508
    7.215    6.6877
    7.230    5.9505
    7.245    5.8768
    7.260    6.0874
    7.275    5.7820
    7.290    5.9294
    7.305    6.2349
    7.320    5.6661
    7.335    5.7083
    7.350    5.4871
    7.365    5.7399
    7.380    5.6451
    7.395    5.4660
    7.410    5.9400
    7.425    5.6872
    7.440    5.4871
    7.455    5.4239
    7.470    5.5608
    7.485    5.6240
    7.500    5.8768
    7.515    5.7925
    7.530    5.4660
    7.545    5.4344
    7.560    5.6872
    7.575    5.5819
    7.590    5.8136
    7.605    6.2033
    7.620    5.9926
    7.635    5.9610
    7.650    6.0664
    7.665    6.0032
    7.680    5.9505
    7.695    6.3928
    7.710    6.2033
    7.725    6.4876
    7.740    6.4455
    7.755    6.6140
    7.770    6.3718
    7.785    6.8246
    7.800    7.0669
    7.815    7.0774
    7.830    7.3302
    7.845    7.6145
    7.860    7.1722
    7.875    6.6245
    7.890    6.6772
    7.905    6.4560
    7.920    6.5613
    7.935    6.6667
    7.950    6.4560
    7.965    6.5508
    7.980    6.8141
    7.995    6.8457
    8.010    6.9405
    8.025    6.6877
    8.040    6.0979
    8.055    6.9089
    8.070    6.4982
    8.085    6.6351
    8.100    6.7615
    8.115    6.5719
    8.130    6.9089
    8.145    7.1617
    8.160    6.5508
    8.175    6.6772
    8.190    6.7299
    8.205    6.7509
    8.220    6.6877
    8.235    6.4666
    8.250    6.3191
    8.265    6.4350
    8.280    6.0453
    8.295    5.9926
    8.310    6.1717
    8.325    6.0348
    8.340    6.1611
    8.355    5.8768
    8.370    6.6561
    8.385    6.3086
    8.400    6.1611
    8.415    5.9926
    8.430    6.0664
    8.445    5.9400
    8.460    5.9400
    8.475    5.6661
    8.490    5.8347
    8.505    5.6451
    8.520    5.7399
    8.535    5.5187
    8.550    5.6029
    8.565    5.7715
    8.580    5.5714
    8.595    5.2554
    8.610    5.3712
    8.625    5.4555
    8.640    5.3081
    8.655    5.5292
    8.670    5.2659
    8.685    5.0448
    8.700    5.4344
    8.715    5.2238
    8.730    5.1606
    8.745    5.3291
    8.760    5.1395
    8.775    5.0237
    8.790    5.3081
    8.805    4.9184
    8.820    4.9605
    8.835    4.9394
    8.850    5.1817
    8.865    4.9078
    8.880    4.7288
    8.895    4.7183
    8.910    5.0237
    8.925    5.0132
    8.940    4.6867
    8.955    4.9710
    8.970    4.6867
    8.985    4.9289
    9.000    4.5708
    9.015    4.9078
    9.030    4.9078
    9.045    4.6972
    9.060    5.0974
    9.075    4.9500
    9.090    4.6445
    9.105    4.7499
    9.120    4.7709
    9.135    4.4971
    9.150    4.3707
    9.165    4.6130
    9.180    4.7077
    9.195    4.6867
    9.210    4.8341
    9.225    4.9078
    9.240    4.7499
    9.255    4.7709
    9.270    4.4655
    9.285    4.6130
    9.300    4.2970
    9.315    4.8657
    9.330    4.6551
    9.345    4.4866
    9.360    4.7499
    9.375    4.9710
    9.390    4.8763
    9.405    4.8341
    9.420    4.9605
    9.435    4.9816
    9.450    5.3291
    9.465    5.1080
    9.480    4.9710
    9.495    5.3712
    9.510    5.4976
    9.525    5.5819
    9.540    6.0032
    9.555    6.3086
    9.570    6.7615
    9.585    7.0563
    9.600    6.9932
    9.615    6.6140
    9.630    6.4244
    9.645    5.9294
    9.660    4.9184
    9.675    4.4971
    9.690    4.2759
    9.705    4.4760
    9.720    4.9184
    9.735    4.2865
    9.750    4.5182
    9.765    4.2759
    9.780    4.6130
    9.795    4.1706
    9.810    4.6656
    9.825    4.4234
    9.840    4.1811
    9.855    4.6130
    9.870    4.4023
    9.885    4.2549
    9.900    4.0969
    9.915    4.3181
    9.930    4.1285
    9.945    4.3918
    9.960    4.3918
    9.975    4.4550
    9.990    4.3075
   10.005    4.2865
   10.020    4.3602
   10.035    4.4234
   10.050    4.6024
   10.065    4.6867
   10.080    4.4023
   10.095    4.4339
   10.110    4.3813
   10.125    4.4760
   10.140    4.3391
   10.155    4.4339
   10.170    4.5076
   10.185    4.8763
   10.200    4.7393
   10.215    4.6340
   10.230    4.7815
   10.245    4.9184
   10.260    4.7393
   10.275    5.1395
   10.290    5.1711
   10.305    5.0132
   10.320    5.3291
   10.335    5.2343
   10.350    5.2765
   10.365    5.2238
   10.380    5.2765
   10.395    5.4871
   10.410    5.0658
   10.425    4.8236
   10.440    4.8868
   10.455    5.0553
   10.470    4.8552
   10.485    5.0026
   10.500    4.7288
   10.515    4.6551
   10.530    4.5076
   10.545    4.6445
   10.560    4.5814
   10.575    4.3707
   10.590    4.4234
   10.605    4.4023
   10.620    4.0969
   10.635    4.4234
   10.650    4.3497
   10.665    4.3707
   10.680    4.6235
   10.695    4.4760
   10.710    4.2338
   10.725    4.2549
   10.740    4.1390
   10.755    4.0337
   10.770    4.4234
   10.785    4.4023
   10.800    4.4234
   10.815    4.4128
   10.830    4.0442
   10.845    4.2338
   10.860    4.2970
   10.875    4.3181
   10.890    4.0758
   10.905    4.6235
   10.920    4.6867
   10.935    4.3918
   10.950    4.3286
   10.965    4.7288
   10.980    4.4023
   10.995    4.7077
   11.010    4.6130
   11.025    4.8973
   11.040    4.6761
   11.055    5.3291
   11.070    5.0448
   11.085    5.2449
   11.100    4.9816
   11.115    4.9605
   11.130    4.8236
   11.145    4.6867
   11.160    4.4128
   11.175    4.4655
   11.190    4.0442
   11.205    4.2022
   11.220    4.1390
   11.235    4.4550
   11.250    4.4234
   11.265    4.6235
   11.280    4.2970
   11.295    4.5708
   11.310    4.3918
   11.325    4.3181
   11.340    4.4023
   11.355    4.3391
   11.370    4.3181
   11.385    4.1706
   11.400    4.3918
   11.415    4.3602
   11.430    4.6656
   11.445    4.5603
   11.460    4.3181
   11.475    4.4234
   11.490    4.2022
   11.505    4.5076
   11.520    4.2759
   11.535    4.5287
   11.550    4.2865
   11.565    4.4866
   11.580    4.6235
   11.595    4.6130
   11.610    4.5498
   11.625    4.5498
   11.640    4.6445
   11.655    4.6235
   11.670    4.5182
   11.685    4.9710
   11.700    4.9921
   11.715    4.9710
   11.730    5.1606
   11.745    5.3081
   11.760    5.6240
   11.775    5.1290
   11.790    4.7393
   11.805    4.8763
   11.820    4.7288
   11.835    4.8025
   11.850    4.5814
   11.865    4.6551
   11.880    4.4023
   11.895    4.7604
   11.910    4.4655
   11.925    4.1811
   11.940    4.3286
   11.955    4.1811
   11.970    4.5287
   11.985    4.6551
   12.000    4.5814
   12.015    4.3918
   12.030    4.7393
   12.045    4.7183
   12.060    4.5182
   12.075    4.3918
   12.090    4.1811
   12.105    4.5603
   12.120    4.8236
   12.135    4.5603
   12.150    4.4023
   12.165    4.4655
   12.180    4.3286
   12.195    4.4234
   12.210    4.0548
   12.225    4.1811
   12.240    4.5392
   12.255    4.8236
   12.270    4.4655
   12.285    4.5076
   12.300    4.3075
   12.315    4.3181
   12.330    4.3181
   12.345    4.6551
   12.360    4.7920
   12.375    4.8131
   12.390    4.8131
   12.405    4.1811
   12.420    4.3391
   12.435    4.4234
   12.450    4.4971
   12.465    4.3497
   12.480    4.6972
   12.495    4.1811
   12.510    4.2759
   12.525    4.4971
   12.540    4.7288
   12.555    5.0237
   12.570    4.4866
   12.585    4.4760
   12.600    4.4760
   12.615    4.7604
   12.630    4.6340
   12.645    4.7183
   12.660    4.6024
   12.675    4.4234
   12.690    4.3181
   12.705    4.1811
   12.720    4.3497
   12.735    4.6656
   12.750    4.5392
   12.765    4.5182
   12.780    4.6656
   12.795    4.2759
   12.810    4.2233
   12.825    4.2127
   12.840    4.3707
   12.855    4.3075
   12.870    4.4971
   12.885    4.8236
   12.900    4.6130
   12.915    4.3286
   12.930    4.3813
   12.945    4.4234
   12.960    5.0026
   12.975    5.0448
   12.990    5.2343
   13.005    4.8552
   13.020    5.1080
   13.035    4.7393
   13.050    4.6867
   13.065    4.5287
   13.080    4.4444
   13.095    4.1706
   13.110    4.2759
   13.125    4.1706
   13.140    4.2759
   13.155    4.2759
   13.170    4.0126
   13.185    4.3391
   13.200    4.2970
   13.215    4.0864
   13.230    4.4971
   13.245    4.2865
   13.260    4.4655
   13.275    4.4550
   13.290    4.6130
   13.305    4.2759
   13.320    4.3181
   13.335    4.5287
   13.350    4.2443
   13.365    4.2022
   13.380    4.0442
   13.395    4.4339
   13.410    4.3075
   13.425    4.4971
   13.440    4.5603
   13.455    4.4760
   13.470    4.3391
   13.485    4.6761
   13.500    4.4866
   13.515    4.5603
   13.530    4.7709
   13.545    4.6867
   13.560    4.2865
   13.575    4.6340
   13.590    4.6551
   13.605    4.5603
   13.620    4.5814
   13.635    4.7077
   13.650    4.6972
   13.665    4.1390
   13.680    4.4128
   13.695    4.6656
   13.710    4.3918
   13.725    4.6551
   13.740    4.3075
   13.755    3.9810
   13.770    4.2759
   13.785    4.6340
   13.800    4.5603
   13.815    4.3075
   13.830    4.0232
   13.845    4.1706
   13.860    4.2233
   13.875    4.6024
   13.890    4.3075
   13.905    4.3181
   13.920    4.1074
   13.935    4.4444
   13.950    4.4655
   13.965    4.3707
   13.980    4.1285
   13.995    4.2970
   14.010    4.2654
   14.025    4.5392
   14.040    4.5287
   14.055    4.2759
   14.070    4.5498
   14.085    4.9710
   14.100    4.5708
   14.115    4.4550
   14.130    4.6340
   14.145    4.6130
   14.160    4.8657
   14.175    4.5498
   14.190    4.3707
   14.205    4.4234
   14.220    4.2970
   14.235    4.4128
   14.250    4.3497
   14.265    4.0864
   14.280    4.2759
   14.295    4.0442
   14.310    4.3075
   14.325    4.2865
   14.340    3.8125
   14.355    3.9179
   14.370    4.5603
   14.385    4.2970
   14.400    4.1074
   14.415    4.1074
   14.430    4.1390
   14.445    4.2970
   14.460    4.2127
   14.475    4.3181
   14.490    4.1074
   14.505    4.0864
   14.520    4.0758
   14.535    4.1074
   14.550    4.1180
   14.565    4.0126
   14.580    4.1917
   14.595    4.0548
   14.610    3.6651
   14.625    3.9073
   14.640    4.1601
   14.655    4.2759
   14.670    3.9810
   14.685    4.3813
   14.700    4.3497
   14.715    4.2127
   14.730    4.0232
   14.745    3.9810
   14.760    4.1811
   14.775    4.0653
   14.790    4.1285
   14.805    3.8757
   14.820    3.9810
   14.835    4.1285
   14.850    3.7915
   14.865    4.1180
   14.880    4.1706
   14.895    3.9810
   14.910    3.8547
   14.925    3.8441
   14.940    3.8652
   14.955    3.8968
   14.970    4.0126
   14.985    3.9389
   15.000    3.8863
   15.015    3.8757
   15.030    3.9916
   15.045    4.3602
   15.060    4.1390
   15.075    4.0232
   15.090    4.5287
   15.105    4.2865
   15.120    4.2127
   15.135    4.3181
   15.150    3.9810
   15.165    4.3813
   15.180    4.4234
   15.195    4.1074
   15.210    3.9284
   15.225    4.0442
   15.240    4.2233
   15.255    4.0758
   15.270    4.0548
   15.285    4.2759
   15.300    4.2022
   15.315    4.0337
   15.330    4.2654
   15.345    4.1811
   15.360    4.0337
   15.375    3.9494
   15.390    4.1496
   15.405    4.1706
   15.420    4.1390
   15.435    3.9600
   15.450    3.7704
   15.465    4.2233
   15.480    4.3286
   15.495    4.0864
   15.510    4.2233
   15.525    4.1496
   15.540    3.8231
   15.555    4.3602
   15.570    4.1390
   15.585    4.3391
   15.600    4.2549
   15.615    3.9389
   15.630    3.8547
   15.645    3.8336
   15.660    4.2759
   15.675    4.2654
   15.690    4.2654
   15.705    4.2338
   15.720    4.0021
   15.735    4.0548
   15.750    3.9073
   15.765    4.0864
   15.780    4.2549
   15.795    4.2865
   15.810    4.0126
   15.825    4.0758
   15.840    4.3707
   15.855    4.4128
   15.870    4.2338
   15.885    3.9810
   15.900    4.0758
   15.915    3.8441
   15.930    3.9389
   15.945    4.3497
   15.960    4.4339
   15.975    4.2022
   15.990    4.1180
   16.005    3.8231
   16.020    4.1706
   16.035    4.1285
   16.050    4.1601
   16.065    4.4866
   16.080    4.0337
   16.095    3.9073
   16.110    4.1074
   16.125    3.9284
   16.140    3.9916
   16.155    3.9073
   16.170    4.4234
   16.185    4.3602
   16.200    4.1706
   16.215    4.2127
   16.230    4.0021
   16.245    4.1285
   16.260    4.0864
   16.275    4.0337
   16.290    4.1496
   16.305    3.8757
   16.320    3.9073
   16.335    3.9494
   16.350    4.1285
   16.365    4.1917
   16.380    3.7177
   16.395    3.8652
   16.410    3.8968
   16.425    3.9705
   16.440    4.0337
   16.455    3.7915
   16.470    4.1601
   16.485    4.1390
   16.500    3.9705
   16.515    4.2759
   16.530    4.2654
   16.545    4.2127
   16.560    3.8863
   16.575    4.0653
   16.590    4.0969
   16.605    4.2022
   16.620    3.8863
   16.635    4.0548
   16.650    3.8231
   16.665    4.0548
   16.680    4.0653
   16.695    3.9600
   16.710    4.3391
   16.725    4.1601
   16.740    3.8441
   16.755    3.9600
   16.770    4.1917
   16.785    4.0126
   16.800    3.7388
   16.815    4.0758
   16.830    4.1917
   16.845    3.9810
   16.860    4.0021
   16.875    3.8757
   16.890    4.1811
   16.905    4.1390
   16.920    4.3181
   16.935    4.3181
   16.950    4.2127
   16.965    4.1390
   16.980    3.9494
   16.995    4.4128
   17.010    4.1285
   17.025    4.3075
   17.040    4.1285
   17.055    4.1811
   17.070    4.0021
   17.085    4.5076
   17.100    4.5498
   17.115    4.4339
   17.130    4.5919
   17.145    4.4444
   17.160    4.3286
   17.175    4.4866
   17.190    4.3391
   17.205    4.2233
   17.220    4.3918
   17.235    4.0442
   17.250    3.8231
   17.265    4.1601
   17.280    4.2443
   17.295    4.0548
   17.310    4.2127
   17.325    4.2654
   17.340    4.2654
   17.355    3.9494
   17.370    3.8441
   17.385    4.0653
   17.400    4.0653
   17.415    3.9705
   17.430    3.8757
   17.445    4.1180
   17.460    3.9389
   17.475    4.1074
   17.490    3.6756
   17.505    4.2865
   17.520    4.3497
   17.535    4.0864
   17.550    3.8968
   17.565    3.9073
   17.580    4.0969
   17.595    4.1917
   17.610    3.8441
   17.625    4.1390
   17.640    4.2443
   17.655    4.3602
   17.670    4.0021
   17.685    4.1285
   17.700    4.1706
   17.715    3.8441
   17.730    3.9494
   17.745    3.8652
   17.760    4.1285
   17.775    4.2443
   17.790    4.1180
   17.805    4.2549
   17.820    3.9600
   17.835    4.1811
   17.850    4.1601
   17.865    4.1917
   17.880    3.9600
   17.895    4.0442
   17.910    3.9600
   17.925    4.0548
   17.940    4.3391
   17.955    4.0126
   17.970    4.3181
   17.985    4.0442
   18.000    4.2549
   18.015    4.3075
   18.030    4.0758
   18.045    3.9810
   18.060    4.1811
   18.075    4.2865
   18.090    4.4234
   18.105    4.1917
   18.120    4.2443
   18.135    3.9600
   18.150    4.2022
   18.165    4.1390
   18.180    4.2970
   18.195    4.1074
   18.210    4.0126
   18.225    4.2865
   18.240    4.2759
   18.255    4.2970
   18.270    4.1390
   18.285    4.1811
   18.300    4.1917
   18.315    4.1496
   18.330    4.2759
   18.345    4.1917
   18.360    4.2654
   18.375    4.4655
   18.390    4.4339
   18.405    4.2549
   18.420    4.2759
   18.435    4.4339
   18.450    4.2022
   18.465    3.8441
   18.480    4.2759
   18.495    4.2443
   18.510    4.0232
   18.525    4.0442
   18.540    4.1180
   18.555    3.9810
   18.570    4.4655
   18.585    3.9916
   18.600    4.0337
   18.615    4.1180
   18.630    4.4655
   18.645    4.4339
   18.660    4.2338
   18.675    3.9600
   18.690    4.2338
   18.705    4.2865
   18.720    4.0548
   18.735    4.3075
   18.750    4.0337
   18.765    4.1390
   18.780    4.1180
   18.795    4.0969
   18.810    4.2654
   18.825    4.1390
   18.840    4.1601
   18.855    4.2970
   18.870    4.0969
   18.885    4.2022
   18.900    4.3497
   18.915    4.6445
   18.930    4.0758
   18.945    4.3813
   18.960    4.3181
   18.975    4.4023
   18.990    4.7815
   19.005    4.7288
   19.020    4.7709
   19.035    4.7499
   19.050    4.6130
   19.065    4.5392
   19.080    4.4866
   19.095    4.5603
   19.110    4.1285
   19.125    4.0442
   19.140    3.9810
   19.155    4.1917
   19.170    4.3497
   19.185    4.0653
   19.200    3.9600
   19.215    4.2022
   19.230    4.2338
   19.245    4.2865
   19.260    3.9705
   19.275    3.9705
   19.290    4.1601
   19.305    4.1180
   19.320    3.9073
   19.335    4.0442
   19.350    4.5603
   19.365    4.2127
   19.380    4.0126
   19.395    4.1706
   19.410    4.3918
   19.425    4.5919
   19.440    4.3286
   19.455    4.2443
   19.470    4.1601
   19.485    4.1180
   19.500    4.4866
   19.515    4.5708
   19.530    4.5182
   19.545    4.3707
   19.560    4.3286
   19.575    4.3602
   19.590    4.3602
   19.605    4.4234
   19.620    3.9705
   19.635    4.1496
   19.650    4.6867
   19.665    4.6130
   19.680    4.3286
   19.695    4.0548
   19.710    4.1601
   19.725    4.0126
   19.740    4.3707
   19.755    4.1811
   19.770    4.4760
   19.785    4.4023
   19.800    4.4866
   19.815    4.5603
   19.830    4.0442
   19.845    4.4023
   19.860    4.2549
   19.875    4.1706
   19.890    4.3918
   19.905    4.0021
   19.920    4.1074
   19.935    4.2549
   19.950    4.4023
   19.965    4.5814
   19.980    4.3286
   19.995    4.3391
   20.010    4.3813
   20.025    4.5814
   20.040    4.1811
   20.055    4.1706
   20.070    4.3497
   20.085    4.3707
   20.100    4.3707
   20.115    4.5603
   20.130    4.5076
   20.145    4.0021
   20.160    4.0548
   20.175    4.1180
   20.190    4.3813
   20.205    4.7288
   20.220    4.5392
   20.235    4.1601
   20.250    4.0653
   20.265    4.3391
   20.280    4.5287
   20.295    4.5076
   20.310    4.6445
   20.325    4.5076
   20.340    4.6340
   20.355    4.4655
   20.370    4.8657
   20.385    4.5287
   20.400    4.4971
   20.415    4.7815
   20.430    5.1185
   20.445    4.8131
   20.460    4.6551
   20.475    5.0026
   20.490    4.8131
   20.505    4.7709
   20.520    4.5182
   20.535    4.3813
   20.550    4.3181
   20.565    4.3707
   20.580    4.6130
   20.595    4.6340
   20.610    4.2443
   20.625    4.3181
   20.640    4.4866
   20.655    4.4971
   20.670    4.4550
   20.685    4.0021
   20.700    4.3286
   20.715    4.3181
   20.730    4.0864
   20.745    4.2970
   20.760    4.0969
   20.775    4.2443
   20.790    4.4655
   20.805    4.5392
   20.820    4.8973
   20.835    4.4760
   20.850    4.5392
   20.865    4.3286
   20.880    4.4655
   20.895    4.2759
   20.910    4.7288
   20.925    4.5919
   20.940    4.4339
   20.955    4.3918
   20.970    4.2654
   20.985    4.5182
   21.000    4.5392
   21.015    4.5182
   21.030    4.6551
   21.045    3.9916
   21.060    4.6551
   21.075    4.9605
   21.090    4.3497
   21.105    4.1180
   21.120    4.3707
   21.135    4.7604
   21.150    4.2654
   21.165    4.2759
   21.180    4.2549
   21.195    4.5603
   21.210    4.2233
   21.225    4.4444
   21.240    4.3813
   21.255    4.4550
   21.270    4.4339
   21.285    4.4234
   21.300    4.4866
   21.315    4.6551
   21.330    4.6445
   21.345    4.7499
   21.360    4.6867
   21.375    4.1180
   21.390    4.4971
   21.405    4.3497
   21.420    4.5603
   21.435    4.4550
   21.450    4.3602
   21.465    4.5498
   21.480    4.4866
   21.495    4.4128
   21.510    4.2233
   21.525    4.7604
   21.540    4.8131
   21.555    4.8025
   21.570    4.6235
   21.585    4.5814
   21.600    4.6130
   21.615    4.3813
   21.630    4.3918
   21.645    4.1601
   21.660    4.1917
   21.675    4.1285
   21.690    4.0232
   21.705    4.4655
   21.720    4.7709
   21.735    4.5392
   21.750    4.3391
   21.765    4.3918
   21.780    4.2865
   21.795    4.5603
   21.810    4.2759
   21.825    4.3602
   21.840    4.3918
   21.855    4.4866
   21.870    4.6445
   21.885    4.7183
   21.900    4.6340
   21.915    4.5498
   21.930    4.4760
   21.945    4.5392
   21.960    4.8131
   21.975    4.5498
   21.990    4.6761
   22.005    4.4023
   22.020    4.3918
   22.035    4.3813
   22.050    4.4339
   22.065    4.0969
   22.080    4.2865
   22.095    4.6761
   22.110    4.4339
   22.125    4.3181
   22.140    4.2443
   22.155    4.5603
   22.170    4.5392
   22.185    4.4655
   22.200    4.5076
   22.215    4.5814
   22.230    4.6551
   22.245    4.5076
   22.260    4.7920
   22.275    4.7499
   22.290    4.5287
   22.305    4.5076
   22.320    4.4760
   22.335    4.7920
   22.350    4.6867
   22.365    4.1811
   22.380    4.5603
   22.395    4.5603
   22.410    4.4234
   22.425    4.3813
   22.440    4.2022
   22.455    4.3918
   22.470    4.8552
   22.485    4.4866
   22.500    4.8763
   22.515    4.6972
   22.530    4.4760
   22.545    4.4760
   22.560    4.5814
   22.575    4.5498
   22.590    4.7393
   22.605    4.8025
   22.620    4.9289
   22.635    5.0026
   22.650    4.7288
   22.665    4.8236
   22.680    4.9816
   22.695    5.0237
   22.710    4.3707
   22.725    4.3391
   22.740    4.4760
   22.755    4.6551
   22.770    4.4339
   22.785    4.4971
   22.800    4.5392
   22.815    4.4234
   22.830    4.2549
   22.845    4.2865
   22.860    4.5498
   22.875    4.8447
   22.890    4.6130
   22.905    4.6656
   22.920    4.6130
   22.935    4.7183
   22.950    4.5708
   22.965    4.3497
   22.980    4.7183
   22.995    4.5814
   23.010    4.5919
   23.025    4.4023
   23.040    4.4760
   23.055    4.5392
   23.070    4.5182
   23.085    4.1180
   23.100    4.2654
   23.115    4.3075
   23.130    4.3707
   23.145    4.4971
   23.160    4.3181
   23.175    4.2549
   23.190    4.6761
   23.205    4.2443
   23.220    4.4023
   23.235    4.4128
   23.250    4.6024
   23.265    4.6867
   23.280    4.7077
   23.295    4.6656
   23.310    4.5182
   23.325    4.4444
   23.340    4.5076
   23.355    4.5603
   23.370    4.6235
   23.385    4.4444
   23.400    4.0021
   23.415    4.4444
   23.430    4.2022
   23.445    4.5076
   23.460    4.3497
   23.475    4.5919
   23.490    4.1285
   23.505    4.4234
   23.520    4.4444
   23.535    4.0232
   23.550    4.2865
   23.565    4.1496
   23.580    4.3286
   23.595    4.1601
   23.610    4.2549
   23.625    4.5708
   23.640    4.2127
   23.655    4.4234
   23.670    4.6024
   23.685    3.9705
   23.700    4.0864
   23.715    4.2127
   23.730    4.1811
   23.745    4.4550
   23.760    4.1601
   23.775    3.9494
   23.790    3.9284
   23.805    3.9705
   23.820    4.1390
   23.835    4.3813
   23.850    4.4023
   23.865    4.4128
   23.880    4.3286
   23.895    4.1496
   23.910    4.4866
   23.925    4.3497
   23.940    4.0337
   23.955    4.2549
   23.970    4.4866
   23.985    4.4339
   24.000    3.9810
   24.015    4.1390
   24.030    4.5392
   24.045    4.7077
   24.060    4.4550
   24.075    4.1917
   24.090    4.2338
   24.105    4.4128
   24.120    4.5076
   24.135    4.6024
   24.150    4.4128
   24.165    4.2443
   24.180    4.1917
   24.195    4.2549
   24.210    4.1917
   24.225    4.3181
   24.240    4.5814
   24.255    4.4760
   24.270    4.0442
   24.285    4.0969
   24.300    4.3075
   24.315    4.2338
   24.330    3.9389
   24.345    4.0758
   24.360    4.2443
   24.375    4.1917
   24.390    4.0969
   24.405    4.3918
   24.420    4.4655
   24.435    4.4339
   24.450    4.5182
   24.465    4.3813
   24.480    4.1390
   24.495    4.1496
   24.510    4.2443
   24.525    4.4444
   24.540    4.5076
   24.555    4.4550
   24.570    4.6024
   24.585    4.3181
   24.600    4.1496
   24.615    4.4339
   24.630    4.1180
   24.645    4.3497
   24.660    4.4655
   24.675    4.1390
   24.690    4.4128
   24.705    4.4023
   24.720    4.2022
   24.735    4.2233
   24.750    4.1706
   24.765    4.0337
   24.780    3.9389
   24.795    4.3075
   24.810    4.2233
   24.825    4.2970
   24.840    4.0021
   24.855    4.0653
   24.870    4.0548
   24.885    4.2233
   24.900    4.4444
   24.915    4.3075
   24.930    3.9389
   24.945    4.1496
   24.960    4.1180
   24.975    4.2443
   24.990    4.2233
   25.005    3.8652
   25.020    3.9179
   25.035    4.1285
   25.050    4.3075
   25.065    3.8336
   25.080    4.0969
   25.095    4.0864
   25.110    4.1074
   25.125    4.3707
   25.140    4.0864
   25.155    4.0232
   25.170    4.0442
   25.185    4.1601
   25.200    3.8336
   25.215    4.1706
   25.230    3.9179
   25.245    3.9916
   25.260    3.9916
   25.275    4.1180
   25.290    3.9600
   25.305    3.8441
   25.320    3.8652
   25.335    4.0126
   25.350    4.3075
   25.365    4.1074
   25.380    3.8231
   25.395    4.2654
   25.410    4.1917
   25.425    4.2865
   25.440    4.1390
   25.455    3.9179
   25.470    4.1917
   25.485    4.1180
   25.500    3.9916
   25.515    4.0442
   25.530    3.8441
   25.545    4.1811
   25.560    4.1706
   25.575    4.0021
   25.590    3.8441
   25.605    4.0653
   25.620    4.0442
   25.635    4.2022
   25.650    3.8757
   25.665    4.0021
   25.680    4.1285
   25.695    3.8968
   25.710    4.0864
   25.725    3.9073
   25.740    4.0232
   25.755    4.1180
   25.770    3.8336
   25.785    4.0548
   25.800    4.2549
   25.815    4.0442
   25.830    4.1811
   25.845    4.1496
   25.860    4.1811
   25.875    4.3918
   25.890    4.1706
   25.905    4.0442
   25.920    4.0864
   25.935    4.3286
   25.950    4.2443
   25.965    4.1496
   25.980    4.0548
   25.995    4.1496
   26.010    4.0126
   26.025    3.8020
   26.040    4.1180
   26.055    4.2127
   26.070    4.0548
   26.085    3.6124
   26.100    3.7283
   26.115    4.0126
   26.130    4.0653
   26.145    4.1706
   26.160    4.2338
   26.175    3.9389
   26.190    4.1496
   26.205    3.9916
   26.220    3.7493
   26.235    4.0969
   26.250    3.8441
   26.265    3.8020
   26.280    3.7493
   26.295    3.8757
   26.310    3.7704
   26.325    3.7177
   26.340    3.7915
   26.355    3.9179
   26.370    4.1706
   26.385    3.9494
   26.400    3.9494
   26.415    4.1074
   26.430    3.7072
   26.445    3.8336
   26.460    3.8757
   26.475    3.7599
   26.490    3.8020
   26.505    4.0232
   26.520    3.9179
   26.535    4.0021
   26.550    4.0126
   26.565    3.9284
   26.580    3.6546
   26.595    3.6967
   26.610    3.6440
   26.625    3.8547
   26.640    3.8020
   26.655    3.8968
   26.670    4.0548
   26.685    3.7388
   26.700    3.9073
   26.715    3.8863
   26.730    3.8757
   26.745    3.7704
   26.760    3.9389
   26.775    3.9179
   26.790    3.8863
   26.805    4.1811
   26.820    4.0232
   26.835    3.5492
   26.850    3.8652
   26.865    3.7915
   26.880    4.2549
   26.895    4.0442
   26.910    3.7915
   26.925    3.9284
   26.940    3.7283
   26.955    3.6862
   26.970    3.8441
   26.985    3.7493
   27.000    3.5176
   27.015    3.7493
   27.030    3.7704
   27.045    3.7283
   27.060    3.7704
   27.075    3.9179
   27.090    3.9705
   27.105    4.0864
   27.120    3.8441
   27.135    3.7283
   27.150    4.1285
   27.165    4.0021
   27.180    3.8968
   27.195    3.8968
   27.210    3.6651
   27.225    3.8863
   27.240    3.7599
   27.255    3.8652
   27.270    3.5071
   27.285    3.5282
   27.300    3.6967
   27.315    3.9600
   27.330    3.6546
   27.345    3.4544
   27.360    3.6230
   27.375    4.0442
   27.390    3.8336
   27.405    3.7283
   27.420    3.6756
   27.435    3.9916
   27.450    3.8336
   27.465    3.9494
   27.480    3.6756
   27.495    3.6230
   27.510    3.6335
   27.525    3.7809
   27.540    3.6019
   27.555    3.5598
   27.570    3.7283
   27.585    3.6756
   27.600    3.4334
   27.615    3.8125
   27.630    3.8336
   27.645    3.8336
   27.660    3.8336
   27.675    3.7493
   27.690    4.0969
   27.705    3.8020
   27.720    4.0442
   27.735    4.0021
   27.750    3.8757
   27.765    3.8968
   27.780    3.6862
   27.795    3.6019
   27.810    3.8547
   27.825    3.7915
   27.840    3.9284
   27.855    3.6230
   27.870    3.5598
   27.885    3.7493
   27.900    4.0232
   27.915    3.8441
   27.930    3.8652
   27.945    3.8652
   27.960    3.8336
   27.975    4.0337
   27.990    4.0758
   28.005    4.1285
   28.020    4.1496
   28.035    3.9179
   28.050    3.9705
   28.065    4.1706
   28.080    4.0337
   28.095    3.8336
   28.110    4.1706
   28.125    4.1285
   28.140    3.7283
   28.155    3.6862
   28.170    3.7493
   28.185    3.8547
   28.200    4.1074
   28.215    4.2338
   28.230    3.7599
   28.245    4.1285
   28.260    4.3181
   28.275    4.0021
   28.290    3.8652
   28.305    3.9389
   28.320    4.0548
   28.335    3.8336
   28.350    3.8652
   28.365    3.5492
   28.380    3.5914
   28.395    3.7704
   28.410    3.9600
   28.425    3.6440
   28.440    3.9284
   28.455    4.0126
   28.470    3.7915
   28.485    3.9916
   28.500    3.8441
   28.515    3.8757
   28.530    3.6967
   28.545    3.7177
   28.560    3.6862
   28.575    3.9179
   28.590    3.8757
   28.605    3.5598
   28.620    3.5598
   28.635    3.5808
   28.650    3.8863
   28.665    3.6440
   28.680    3.7283
   28.695    3.5703
   28.710    3.7388
   28.725    3.7599
   28.740    3.7809
   28.755    3.8757
   28.770    3.4650
   28.785    3.4334
   28.800    3.6756
   28.815    3.5808
   28.830    3.6230
   28.845    3.6756
   28.860    3.7493
   28.875    3.7177
   28.890    3.5703
   28.905    3.5176
   28.920    3.5492
   28.935    3.9179
   28.950    3.6440
   28.965    3.8125
   28.980    3.8547
   28.995    4.1390
   29.010    3.9494
   29.025    4.0126
   29.040    3.7493
   29.055    3.7283
   29.070    3.6967
   29.085    3.7704
   29.100    3.4544
   29.115    3.6230
   29.130    3.3913
   29.145    3.4650
   29.160    3.6756
   29.175    3.3807
   29.190    3.1701
   29.205    3.3913
   29.220    3.5492
   29.235    3.4334
   29.250    3.5387
   29.265    3.5387
   29.280    3.6651
   29.295    3.7177
   29.310    3.4966
   29.325    3.6967
   29.340    3.3702
   29.355    3.3913
   29.370    3.6546
   29.385    3.6967
   29.400    3.2122
   29.415    3.5492
   29.430    3.4544
   29.445    3.4018
   29.460    3.5282
   29.475    3.3913
   29.490    3.3070
   29.505    3.3491
   29.520    3.4650
   29.535    3.4755
   29.550    3.7704
   29.565    3.3491
   29.580    3.2754
   29.595    3.7177
   29.610    3.4123
   29.625    3.4229
   29.640    3.4860
   29.655    3.4650
   29.670    3.3386
   29.685    3.4018
   29.700    3.5387
   29.715    3.5914
   29.730    3.5808
   29.745    3.2965
   29.760    3.1806
   29.775    3.4334
   29.790    3.5598
   29.805    3.2649
   29.820    3.1596
   29.835    3.2754
   29.850    3.4544
   29.865    3.5387
   29.880    3.5808
   29.895    3.4544
   29.910    3.5071
   29.925    3.4755
   29.940    3.3491
   29.955    3.2859
   29.970    3.3597
   29.985    3.5176
   30.000    3.5387
   30.015    3.3070
   30.030    3.3807
   30.045    3.3597
   30.060    3.4334
   30.075    3.3491
   30.090    3.4123
   30.105    3.6019
   30.120    3.6019
   30.135    3.1490
   30.150    3.4860
   30.165    3.4966
   30.180    3.3807
   30.195    3.4123
   30.210    3.6756
   30.225    3.4439
   30.240    3.5914
   30.255    3.5176
   30.270    3.2438
   30.285    3.4334
   30.300    3.7915
   30.315    3.6019
   30.330    3.2965
   30.345    3.0226
   30.360    3.6967
   30.375    3.3702
   30.390    3.3491
   30.405    3.2438
   30.420    3.5703
   30.435    3.1174
   30.450    3.0542
   30.465    3.3386
   30.480    3.2543
   30.495    3.5282
   30.510    3.4966
   30.525    3.2649
   30.540    3.0858
   30.555    3.1701
   30.570    3.0121
   30.585    3.2438
   30.600    3.3281
   30.615    3.4229
   30.630    3.4755
   30.645    3.5808
   30.660    3.3702
   30.675    3.4123
   30.690    3.3175
   30.705    3.4755
   30.720    3.5071
   30.735    3.3807
   30.750    3.4334
   30.765    3.4650
   30.780    3.3491
   30.795    3.3070
   30.810    3.2333
   30.825    3.0542
   30.840    3.2122
   30.855    3.2965
   30.870    3.3597
   30.885    3.3070
   30.900    3.5387
   30.915    3.5914
   30.930    3.1806
   30.945    3.3807
   30.960    3.2333
   30.975    3.2859
   30.990    3.3175
   31.005    3.1490
   31.020    3.3175
   31.035    3.3491
   31.050    3.3807
   31.065    3.2122
   31.080    3.3175
   31.095    3.4229
   31.110    3.2859
   31.125    3.2122
   31.140    3.2227
   31.155    3.3597
   31.170    3.0226
   31.185    3.2649
   31.200    3.3386
   31.215    3.4860
   31.230    3.4755
   31.245    3.1912
   31.260    3.0437
   31.275    3.2017
   31.290    3.2438
   31.305    3.0542
   31.320    2.9700
   31.335    3.3070
   31.350    3.1806
   31.365    3.2017
   31.380    3.1490
   31.395    3.1490
   31.410    3.4439
   31.425    3.4544
   31.440    3.3597
   31.455    3.2754
   31.470    3.5492
   31.485    3.3491
   31.500    3.1806
   31.515    3.4229
   31.530    3.1912
   31.545    3.2859
   31.560    3.1385
   31.575    3.4650
   31.590    3.6124
   31.605    3.3491
   31.620    3.1912
   31.635    3.5071
   31.650    3.4755
   31.665    3.4650
   31.680    3.5598
   31.695    3.5071
   31.710    3.5492
   31.725    3.5282
   31.740    3.6124
   31.755    3.6335
   31.770    3.7493
   31.785    3.4755
   31.800    3.3702
   31.815    3.4755
   31.830    3.6546
   31.845    3.4229
   31.860    3.3070
   31.875    3.2543
   31.890    3.5071
   31.905    3.0858
   31.920    3.1806
   31.935    3.1490
   31.950    3.2438
   31.965    3.4755
   31.980    3.4018
   31.995    3.4966
   32.010    3.6335
   32.025    3.4860
   32.040    3.3913
   32.055    3.5808
   32.070    3.7809
   32.085    3.8652
   32.100    4.0548
   32.115    3.9389
   32.130    3.8020
   32.145    3.8020
   32.160    4.0337
   32.175    3.9600
   32.190    4.0337
   32.205    3.8863
   32.220    3.9494
   32.235    3.8968
   32.250    3.4334
   32.265    3.2438
   32.280    3.2543
   32.295    3.2227
   32.310    3.1069
   32.325    3.1174
   32.340    3.2859
   32.355    3.2438
   32.370    2.8120
   32.385    2.9910
   32.400    3.3281
   32.415    3.1596
   32.430    3.0964
   32.445    3.0964
   32.460    3.1069
   32.475    3.3281
   32.490    3.1701
   32.505    3.2438
   32.520    2.9910
   32.535    3.0332
   32.550    3.4966
   32.565    3.1596
   32.580    2.9595
   32.595    2.7172
   32.610    2.9279
   32.625    3.2543
   32.640    3.0542
   32.655    2.9173
   32.670    3.2754
   32.685    3.1701
   32.700    3.0437
   32.715    3.0437
   32.730    2.8331
   32.745    2.8015
   32.760    2.9805
   32.775    3.3597
   32.790    3.2227
   32.805    3.2859
   32.820    3.1912
   32.835    3.3281
   32.850    3.2754
   32.865    3.2649
   32.880    3.2543
   32.895    3.2438
   32.910    3.2333
   32.925    2.8225
   32.940    2.8963
   32.955    3.2543
   32.970    3.1069
   32.985    3.0542
   33.000    3.0858
   33.015    3.0016
   33.030    2.8436
   33.045    2.9910
   33.060    3.3175
   33.075    2.9910
   33.090    2.8541
   33.105    3.1069
   33.120    3.1069
   33.135    3.0858
   33.150    2.9910
   33.165    3.2227
   33.180    3.1385
   33.195    3.3070
   33.210    3.0858
   33.225    3.1069
   33.240    2.9279
   33.255    3.0016
   33.270    2.9805
   33.285    3.2438
   33.300    3.1069
   33.315    3.2333
   33.330    3.2227
   33.345    2.8752
   33.360    2.8436
   33.375    2.7278
   33.390    2.7383
   33.405    3.4334
   33.420    3.0648
   33.435    3.2017
   33.450    2.9068
   33.465    2.9384
   33.480    3.0016
   33.495    3.1280
   33.510    2.7278
   33.525    2.9173
   33.540    3.0016
   33.555    3.2649
   33.570    3.1174
   33.585    2.9279
   33.600    3.0121
   33.615    3.1806
   33.630    3.0542
   33.645    3.1069
   33.660    2.9068
   33.675    2.9700
   33.690    3.0332
   33.705    3.0121
   33.720    2.8963
   33.735    3.0121
   33.750    3.0437
   33.765    3.2543
   33.780    3.1174
   33.795    3.0542
   33.810    3.2859
   33.825    3.3491
   33.840    3.3281
   33.855    3.6967
   33.870    3.2438
   33.885    3.4544
   33.900    3.4229
   33.915    3.3491
   33.930    3.0648
   33.945    3.0121
   33.960    3.1490
   33.975    2.9595
   33.990    2.9279
   34.005    3.1806
   34.020    2.8647
   34.035    2.9595
   34.050    2.9279
   34.065    3.0121
   34.080    2.8963
   34.095    2.9173
   34.110    3.0542
   34.125    2.7804
   34.140    2.6962
   34.155    3.0437
   34.170    2.6330
   34.185    2.7278
   34.200    2.7593
   34.215    2.5066
   34.230    2.7488
   34.245    2.7909
   34.260    2.6224
   34.275    2.8752
   34.290    2.9910
   34.305    3.2017
   34.320    2.9068
   34.335    2.6330
   34.350    2.6540
   34.365    2.6646
   34.380    2.8331
   34.395    2.8857
   34.410    2.9489
   34.425    2.9279
   34.440    3.0121
   34.455    3.1806
   34.470    2.9700
   34.485    2.7593
   34.500    2.9595
   34.515    2.8541
   34.530    2.8225
   34.545    2.8120
   34.560    3.0121
   34.575    2.8541
   34.590    2.9384
   34.605    2.8963
   34.620    2.7383
   34.635    2.6962
   34.650    2.8120
   34.665    2.7699
   34.680    2.6751
   34.695    2.6540
   34.710    2.7593
   34.725    2.6330
   34.740    2.8225
   34.755    2.7909
   34.770    2.7488
   34.785    2.8647
   34.800    2.9279
   34.815    2.8857
   34.830    2.9068
   34.845    2.7593
   34.860    2.7593
   34.875    2.7804
   34.890    2.9700
   34.905    2.8647
   34.920    2.8120
   34.935    2.7278
   34.950    2.9910
   34.965    2.8331
   34.980    2.7593
   34.995    2.6435
   35.010    2.8963
   35.025    2.8120
   35.040    2.8541
   35.055    2.7488
   35.070    2.9068
   35.085    2.8015
   35.100    2.6119
   35.115    2.8331
   35.130    2.7699
   35.145    2.6435
   35.160    2.8436
   35.175    2.6330
   35.190    2.6856
   35.205    2.9489
   35.220    2.8752
   35.235    2.8963
   35.250    2.7593
   35.265    2.6330
   35.280    2.8120
   35.295    2.6856
   35.310    2.7909
   35.325    2.6962
   35.340    2.5698
   35.355    2.7067
   35.370    2.6014
   35.385    2.5908
   35.400    2.6962
   35.415    2.6856
   35.430    2.9489
   35.445    2.7383
   35.460    2.7383
   35.475    2.5698
   35.490    2.8541
   35.505    2.7909
   35.520    2.7278
   35.535    2.8331
   35.550    2.8225
   35.565    2.5592
   35.580    2.7699
   35.595    2.3907
   35.610    2.6330
   35.625    2.6962
   35.640    2.5487
   35.655    2.5803
   35.670    2.7278
   35.685    2.6119
   35.700    2.6962
   35.715    2.5171
   35.730    2.8541
   35.745    2.8963
   35.760    2.6119
   35.775    2.5803
   35.790    2.7699
   35.805    2.7278
   35.820    2.6540
   35.835    2.7278
   35.850    2.7488
   35.865    2.4855
   35.880    2.5908
   35.895    2.5487
   35.910    2.4329
   35.925    2.7067
   35.940    2.4750
   35.955    2.7488
   35.970    2.8436
   35.985    2.5592
   36.000    2.4961
   36.015    2.4013
   36.030    2.7278
   36.045    2.5592
   36.060    2.7699
   36.075    2.6224
   36.090    2.5698
   36.105    2.4855
   36.120    2.6856
   36.135    2.6646
   36.150    2.7488
   36.165    2.8120
   36.180    2.6014
   36.195    2.3170
   36.210    2.7699
   36.225    3.0121
   36.240    2.4329
   36.255    2.4539
   36.270    2.5803
   36.285    2.6962
   36.300    2.4118
   36.315    2.6962
   36.330    2.8120
   36.345    2.5171
   36.360    2.5276
   36.375    2.6540
   36.390    2.5171
   36.405    2.4118
   36.420    2.5803
   36.435    2.6646
   36.450    2.7909
   36.465    2.8436
   36.480    2.8541
   36.495    2.7383
   36.510    2.6330
   36.525    2.7172
   36.540    2.8120
   36.555    2.5382
   36.570    2.4961
   36.585    2.6856
   36.600    2.9805
   36.615    2.9068
   36.630    2.8120
   36.645    2.9595
   36.660    2.4961
   36.675    2.5066
   36.690    2.6330
   36.705    2.3591
   36.720    2.4223
   36.735    2.5698
   36.750    2.5803
   36.765    2.6330
   36.780    2.6540
   36.795    2.5487
   36.810    2.5066
   36.825    2.8120
   36.840    2.5803
   36.855    2.5066
   36.870    2.4961
   36.885    2.7593
   36.900    2.7278
   36.915    2.4434
   36.930    2.6540
   36.945    2.5487
   36.960    2.5276
   36.975    2.5698
   36.990    2.5487
   37.005    2.6751
   37.020    2.3802
   37.035    2.3697
   37.050    2.2012
   37.065    2.4118
   37.080    2.6856
   37.095    2.4961
   37.110    2.6646
   37.125    2.4329
   37.140    2.4855
   37.155    2.6224
   37.170    2.5171
   37.185    2.4539
   37.200    2.5171
   37.215    2.7383
   37.230    2.6330
   37.245    2.2959
   37.260    2.6224
   37.275    2.4539
   37.290    2.3065
   37.305    2.4645
   37.320    2.4750
   37.335    2.4750
   37.350    2.4750
   37.365    2.4961
   37.380    2.3170
   37.395    2.4645
   37.410    2.4329
   37.425    2.5171
   37.440    2.4118
   37.455    2.3591
   37.470    2.4539
   37.485    2.4855
   37.500    2.4013
   37.515    2.3591
   37.530    2.7593
   37.545    2.4961
   37.560    2.6014
   37.575    2.5908
   37.590    2.5276
   37.605    2.7383
   37.620    2.6014
   37.635    2.4223
   37.650    2.2749
   37.665    2.3381
   37.680    2.4961
   37.695    2.6962
   37.710    2.4223
   37.725    2.5698
   37.740    2.4223
   37.755    2.7383
   37.770    2.8120
   37.785    2.5908
   37.800    2.4539
   37.815    2.5698
   37.830    2.6646
   37.845    2.6014
   37.860    2.5066
   37.875    2.4118
   37.890    2.6646
   37.905    2.7067
   37.920    2.6751
   37.935    2.5487
   37.950    2.7172
   37.965    2.7593
   37.980    2.4013
   37.995    2.5066
   38.010    2.2854
   38.025    2.2538
   38.040    2.4434
   38.055    2.4013
   38.070    2.4329
   38.085    2.5908
   38.100    2.3907
   38.115    2.5066
   38.130    2.6435
   38.145    2.4118
   38.160    2.4645
   38.175    2.5698
   38.190    2.7067
   38.205    2.6435
   38.220    2.4118
   38.235    2.4223
   38.250    2.6330
   38.265    2.6119
   38.280    2.4223
   38.295    2.4434
   38.310    2.4645
   38.325    2.3381
   38.340    2.4539
   38.355    2.4223
   38.370    2.4750
   38.385    2.4855
   38.400    2.5382
   38.415    2.5908
   38.430    2.4855
   38.445    2.3381
   38.460    2.3170
   38.475    2.4961
   38.490    2.2538
   38.505    2.5487
   38.520    2.7067
   38.535    2.5698
   38.550    2.5592
   38.565    2.3802
   38.580    2.6014
   38.595    2.7909
   38.610    2.7488
   38.625    2.6014
   38.640    2.4434
   38.655    2.6119
   38.670    2.7278
   38.685    2.7909
   38.700    2.5908
   38.715    2.5487
   38.730    2.5276
   38.745    2.6014
   38.760    2.4855
   38.775    2.4539
   38.790    2.5276
   38.805    2.4434
   38.820    2.3170
   38.835    2.3065
   38.850    2.3486
   38.865    2.5487
   38.880    2.5487
   38.895    2.6646
   38.910    2.4013
   38.925    2.5803
   38.940    2.4750
   38.955    2.3065
   38.970    2.4539
   38.985    2.5066
   39.000    2.3802
   39.015    2.4539
   39.030    2.3065
   39.045    2.4539
   39.060    2.3802
   39.075    2.6119
   39.090    2.4961
   39.105    2.5066
   39.120    2.3697
   39.135    2.4961
   39.150    2.5382
   39.165    2.3802
   39.180    2.6856
   39.195    2.7067
   39.210    2.8120
   39.225    2.5592
   39.240    2.7699
   39.255    2.5487
   39.270    2.1590
   39.285    2.2749
   39.300    2.8015
   39.315    2.4961
   39.330    2.5171
   39.345    2.5487
   39.360    2.1906
   39.375    2.3486
   39.390    2.4645
   39.405    2.5698
   39.420    2.1696
   39.435    2.5171
   39.450    2.4329
   39.465    2.3591
   39.480    2.2643
   39.495    2.3802
   39.510    2.4539
   39.525    2.4645
   39.540    2.5066
   39.555    2.5382
   39.570    2.6962
   39.585    2.3591
   39.600    2.4750
   39.615    2.4645
   39.630    2.4855
   39.645    2.4223
   39.660    2.3802
   39.675    2.3907
   39.690    2.6330
   39.705    2.4961
   39.720    2.3907
   39.735    2.4223
   39.750    2.5487
   39.765    2.2538
   39.780    2.2222
   39.795    2.3170
   39.810    2.6119
   39.825    2.2749
   39.840    2.4855
   39.855    2.4961
   39.870    2.3802
   39.885    2.2433
   39.900    2.3907
   39.915    2.4118
   39.930    2.5276
   39.945    2.3381
   39.960    2.4961
   39.975    2.5382
   39.990    2.8015
