    1.500   10.8829
    1.515   11.3744
    1.530   10.3739
    1.545   10.8303
    1.560   10.6898
    1.575   10.3388
    1.590   10.7425
    1.605   10.4792
    1.620   10.3388
    1.635    9.3382
    1.650    9.1978
    1.665    9.5489
    1.680    9.3031
    1.695    9.6718
    1.710    9.0047
    1.725    9.0925
    1.740    8.9872
    1.755    8.6888
    1.770    9.0574
    1.785    8.7063
    1.800    8.1622
    1.815    8.0744
    1.830    8.1271
    1.845    8.6888
    1.860    7.8638
    1.875    7.5127
    1.890    7.9867
    1.905    7.3547
    1.920    7.4601
    1.935    7.3723
    1.950    7.5478
    1.965    7.3372
    1.980    7.0388
    1.995    7.1792
    2.010    6.8106
    2.025    7.3547
    2.040    7.8638
    2.055    7.0915
    2.070    7.0915
    2.085    7.0563
    2.100    6.9159
    2.115    6.5649
    2.130    6.6000
    2.145    6.5473
    2.160    6.5298
    2.175    6.7404
    2.190    6.8984
    2.205    7.0563
    2.220    6.7579
    2.235    6.6526
    2.250    6.3016
    2.265    6.1436
    2.280    6.1085
    2.295    6.4069
    2.310    6.3016
    2.325    6.2665
    2.340    6.2138
    2.355    6.4244
    2.370    6.3718
    2.385    5.8978
    2.400    6.2138
    2.415    6.2489
    2.430    6.5649
    2.445    5.9154
    2.460    5.7399
    2.475    6.1260
    2.490    6.0207
    2.505    5.9856
    2.520    5.7574
    2.535    5.8101
    2.550    6.3542
    2.565    6.0383
    2.580    5.5468
    2.595    5.9329
    2.610    5.7223
    2.625    5.9329
    2.640    6.0032
    2.655    5.7750
    2.670    5.7925
    2.685    5.9505
    2.700    5.6697
    2.715    5.5468
    2.730    6.1085
    2.745    5.6345
    2.760    5.8101
    2.775    5.4941
    2.790    5.6170
    2.805    5.6872
    2.820    5.7399
    2.835    5.5819
    2.850    5.5819
    2.865    5.9856
    2.880    5.8101
    2.895    5.6872
    2.910    5.4941
    2.925    5.4941
    2.940    6.4771
    2.955    5.4415
    2.970    5.4766
    2.985    5.3361
    3.000    5.3186
    3.015    5.1957
    3.030    5.3361
    3.045    5.7223
    3.060    5.6521
    3.075    5.3537
    3.090    5.4590
    3.105    5.7750
    3.120    5.8978
    3.135    5.7925
    3.150    5.1957
    3.165    5.5117
    3.180    5.5468
    3.195    5.9505
    3.210    5.6697
    3.225    5.5292
    3.240    5.7925
    3.255    5.8276
    3.270    5.5117
    3.285    5.1782
    3.300    6.0558
    3.315    5.7223
    3.330    5.3888
    3.345    5.6170
    3.360    6.0032
    3.375    5.6872
    3.390    5.7048
    3.405    5.7223
    3.420    6.0207
    3.435    5.8803
    3.450    6.1611
    3.465    5.5292
    3.480    5.3186
    3.495    5.6697
    3.510    5.8978
    3.525    5.7574
    3.540    5.7399
    3.555    5.6697
    3.570    5.8452
    3.585    6.0032
    3.600    5.8276
    3.615    5.5117
    3.630    6.0383
    3.645    6.0383
    3.660    5.9505
    3.675    5.4941
    3.690    5.6872
    3.705    6.6000
    3.720    6.2665
    3.735    6.2840
    3.750    6.5649
    3.765    6.6702
    3.780    6.7053
    3.795    6.4069
    3.810    7.0037
    3.825    6.6351
    3.840    6.8984
    3.855    6.8457
    3.870    6.5473
    3.885    6.7930
    3.900    6.5122
    3.915    5.9681
    3.930    5.7574
    3.945    5.6170
    3.960    5.6170
    3.975    5.7223
    3.990    5.8452
    4.005    5.8978
    4.020    5.6170
    4.035    5.2484
    4.050    5.2308
    4.065    5.4941
    4.080    5.4415
    4.095    5.4239
    4.110    5.3361
    4.125    5.4064
    4.140    5.5117
    4.155    5.1782
    4.170    5.3712
    4.185    5.1080
    4.200    5.2308
    4.215    5.6170
    4.230    5.4239
    4.245    5.3712
    4.260    5.2835
    4.275    5.3186
    4.290    5.3888
    4.305    5.3712
    4.320    5.4766
    4.335    5.6345
    4.350    5.6697
    4.365    5.1080
    4.380    5.5819
    4.395    5.5117
    4.410    5.3361
    4.425    5.4941
    4.440    5.2659
    4.455    5.3888
    4.470    5.2308
    4.485    5.0728
    4.500    5.2835
    4.515    5.3712
    4.530    5.4064
    4.545    5.1782
    4.560    5.1431
    4.575    5.3712
    4.590    5.3010
    4.605    5.4239
    4.620    5.1957
    4.635    4.9851
    4.650    5.2133
    4.665    5.1255
    4.680    5.0553
    4.695    5.3361
    4.710    5.0904
    4.725    5.0026
    4.740    5.0728
    4.755    5.1431
    4.770    5.1431
    4.785    5.2308
    4.800    5.1957
    4.815    5.7399
    4.830    5.4064
    4.845    5.2133
    4.860    5.3361
    4.875    5.6697
    4.890    4.9149
    4.905    5.1606
    4.920    5.4064
    4.935    5.1957
    4.950    5.6697
    4.965    4.9324
    4.980    5.0202
    4.995    4.8798
    5.010    4.8798
    5.025    5.1957
    5.040    5.3361
    5.055    5.3888
    5.070    5.2659
    5.085    5.5468
    5.100    4.8271
    5.115    5.0202
    5.130    5.3361
    5.145    5.5468
    5.160    5.1782
    5.175    5.2133
    5.190    5.2308
    5.205    5.5643
    5.220    5.5117
    5.235    4.9324
    5.250    4.7042
    5.265    5.3537
    5.280    5.2484
    5.295    5.6521
    5.310    5.4239
    5.325    4.9324
    5.340    5.1606
    5.355    5.1255
    5.370    5.5117
    5.385    5.1957
    5.400    5.2835
    5.415    5.7048
    5.430    5.5117
    5.445    5.5468
    5.460    5.2133
    5.475    5.7399
    5.490    5.5468
    5.505    5.0553
    5.520    5.8978
    5.535    5.1957
    5.550    5.9856
    5.565    5.6872
    5.580    5.6872
    5.595    5.7223
    5.610    5.5643
    5.625    5.0377
    5.640    5.2308
    5.655    5.6170
    5.670    5.7048
    5.685    5.3712
    5.700    5.3361
    5.715    4.9851
    5.730    5.1782
    5.745    5.4415
    5.760    5.2308
    5.775    5.3186
    5.790    5.2835
    5.805    5.4766
    5.820    5.4941
    5.835    5.3712
    5.850    5.7399
    5.865    5.0202
    5.880    5.8978
    5.895    5.3712
    5.910    5.1255
    5.925    5.2133
    5.940    5.4239
    5.955    5.3186
    5.970    4.8798
    5.985    5.0904
    6.000    5.4239
    6.015    5.3888
    6.030    5.0202
    6.045    5.0553
    6.060    5.2835
    6.075    5.3186
    6.090    4.7569
    6.105    5.1782
    6.120    5.0377
    6.135    5.5117
    6.150    5.6697
    6.165    5.5292
    6.180    5.6345
    6.195    5.1782
    6.210    5.1255
    6.225    5.2133
    6.240    4.9324
    6.255    5.3186
    6.270    5.3537
    6.285    5.5117
    6.300    5.6872
    6.315    5.5994
    6.330    5.5292
    6.345    5.2835
    6.360    5.2484
    6.375    5.4064
    6.390    4.8798
    6.405    4.9149
    6.420    5.3361
    6.435    5.6345
    6.450    5.6872
    6.465    5.6872
    6.480    5.7750
    6.495    5.4766
    6.510    5.6697
    6.525    5.1255
    6.540    5.2133
    6.555    5.2835
    6.570    5.4590
    6.585    5.5468
    6.600    5.3186
    6.615    5.3537
    6.630    5.4064
    6.645    5.3361
    6.660    5.4766
    6.675    5.6872
    6.690    5.5117
    6.705    5.3361
    6.720    5.4064
    6.735    5.8276
    6.750    5.3888
    6.765    5.7574
    6.780    5.5819
    6.795    5.3712
    6.810    5.7750
    6.825    5.3712
    6.840    5.3712
    6.855    5.2133
    6.870    5.5819
    6.885    5.4415
    6.900    5.8101
    6.915    5.8627
    6.930    5.8803
    6.945    5.6521
    6.960    5.5468
    6.975    5.3537
    6.990    5.4064
    7.005    5.5117
    7.020    5.3537
    7.035    5.9505
    7.050    5.9154
    7.065    5.3361
    7.080    5.3537
    7.095    5.6697
    7.110    5.7223
    7.125    5.5643
    7.140    5.4941
    7.155    5.9154
    7.170    5.6521
    7.185    5.6872
    7.200    5.1606
    7.215    5.4590
    7.230    5.6170
    7.245    5.3537
    7.260    6.0032
    7.275    5.7574
    7.290    5.9681
    7.305    6.0207
    7.320    6.1085
    7.335    5.3888
    7.350    5.8627
    7.365    5.8101
    7.380    5.3186
    7.395    5.8101
    7.410    5.4941
    7.425    6.0734
    7.440    5.7223
    7.455    5.4239
    7.470    5.4239
    7.485    5.9856
    7.500    5.6872
    7.515    6.0032
    7.530    5.8803
    7.545    5.5468
    7.560    5.7574
    7.575    5.6521
    7.590    5.6872
    7.605    6.3367
    7.620    6.0909
    7.635    5.7399
    7.650    5.2308
    7.665    6.3718
    7.680    6.0207
    7.695    5.7750
    7.710    5.5117
    7.725    5.5994
    7.740    5.5292
    7.755    5.6872
    7.770    5.7048
    7.785    5.8627
    7.800    5.8803
    7.815    6.0383
    7.830    5.5643
    7.845    5.5292
    7.860    5.3361
    7.875    5.5292
    7.890    5.7223
    7.905    6.2489
    7.920    5.4766
    7.935    5.6697
    7.950    5.9505
    7.965    5.9154
    7.980    5.6521
    7.995    5.6872
    8.010    5.8101
    8.025    6.0558
    8.040    5.7925
    8.055    5.8101
    8.070    5.5292
    8.085    5.7750
    8.100    5.7399
    8.115    5.4590
    8.130    5.1782
    8.145    5.7048
    8.160    5.9329
    8.175    5.4590
    8.190    5.5468
    8.205    5.4590
    8.220    5.8978
    8.235    5.8978
    8.250    5.8276
    8.265    6.1611
    8.280    6.0383
    8.295    5.8627
    8.310    5.9505
    8.325    6.0383
    8.340    5.5819
    8.355    6.1260
    8.370    6.7053
    8.385    6.2138
    8.400    6.0734
    8.415    5.7750
    8.430    5.8978
    8.445    5.9505
    8.460    6.1436
    8.475    6.1260
    8.490    6.1962
    8.505    6.3016
    8.520    6.2665
    8.535    6.0734
    8.550    6.1962
    8.565    6.3542
    8.580    5.8803
    8.595    6.0207
    8.610    6.5824
    8.625    6.3893
    8.640    6.0558
    8.655    6.2313
    8.670    6.2313
    8.685    5.9856
    8.700    5.6521
    8.715    6.0032
    8.730    6.0032
    8.745    6.1260
    8.760    6.1962
    8.775    6.2665
    8.790    6.1085
    8.805    5.8627
    8.820    5.7750
    8.835    5.8101
    8.850    6.6175
    8.865    6.3191
    8.880    6.0207
    8.895    6.1260
    8.910    6.1436
    8.925    6.5298
    8.940    6.5824
    8.955    6.5824
    8.970    5.8803
    8.985    6.2665
    9.000    5.9505
    9.015    5.9856
    9.030    5.7925
    9.045    6.0383
    9.060    6.5824
    9.075    6.0207
    9.090    5.7750
    9.105    6.3016
    9.120    6.0558
    9.135    6.3718
    9.150    6.5298
    9.165    6.2138
    9.180    5.8803
    9.195    6.5824
    9.210    6.2313
    9.225    6.2138
    9.240    6.4420
    9.255    6.2138
    9.270    6.4244
    9.285    6.3542
    9.300    6.6351
    9.315    6.7404
    9.330    6.9510
    9.345    6.6000
    9.360    6.4069
    9.375    6.4946
    9.390    6.9861
    9.405    6.8633
    9.420    6.1611
    9.435    6.5473
    9.450    7.0388
    9.465    6.4420
    9.480    6.5298
    9.495    6.8808
    9.510    6.5649
    9.525    7.1090
    9.540    7.0563
    9.555    6.2840
    9.570    6.1436
    9.585    6.1260
    9.600    6.7579
    9.615    6.3893
    9.630    6.3718
    9.645    6.8984
    9.660    6.6351
    9.675    6.5298
    9.690    6.3367
    9.705    6.1085
    9.720    5.9856
    9.735    6.5298
    9.750    6.3191
    9.765    6.3542
    9.780    6.3191
    9.795    6.1787
    9.810    6.5473
    9.825    7.0388
    9.840    6.7755
    9.855    6.4420
    9.870    6.2138
    9.885    6.4420
    9.900    6.3718
    9.915    6.3893
    9.930    6.7930
    9.945    6.5298
    9.960    6.5122
    9.975    6.3542
    9.990    6.3016
   10.005    6.1962
   10.020    5.9856
   10.035    6.5649
   10.050    6.0734
   10.065    6.2840
   10.080    6.4946
   10.095    6.5473
   10.110    6.5824
   10.125    6.8457
   10.140    6.8808
   10.155    6.4771
   10.170    6.5298
   10.185    6.6000
   10.200    6.4244
   10.215    6.0734
   10.230    6.5122
   10.245    6.5298
   10.260    6.9510
   10.275    6.9159
   10.290    6.1260
   10.305    6.1962
   10.320    6.4244
   10.335    6.5298
   10.350    7.1441
   10.365    6.7053
   10.380    6.1962
   10.395    5.7750
   10.410    5.7048
   10.425    6.5649
   10.440    6.6526
   10.455    6.1260
   10.470    6.2138
   10.485    6.3542
   10.500    6.4069
   10.515    5.8101
   10.530    6.5649
   10.545    6.4244
   10.560    6.4244
   10.575    6.5649
   10.590    6.1085
   10.605    6.9686
   10.620    6.3542
   10.635    6.0558
   10.650    6.2665
   10.665    5.8276
   10.680    6.2489
   10.695    6.3893
   10.710    6.1436
   10.725    6.6000
   10.740    6.0909
   10.755    6.1962
   10.770    6.4595
   10.785    6.0383
   10.800    5.8627
   10.815    6.5824
   10.830    6.7755
   10.845    6.3367
   10.860    6.5649
   10.875    6.3718
   10.890    6.6351
   10.905    6.2665
   10.920    6.7755
   10.935    6.0558
   10.950    6.2489
   10.965    5.8101
   10.980    5.9329
   10.995    6.0734
   11.010    6.6702
   11.025    6.1436
   11.040    6.0032
   11.055    6.3542
   11.070    6.0207
   11.085    5.7574
   11.100    6.0207
   11.115    5.7574
   11.130    6.1260
   11.145    6.1436
   11.160    6.0734
   11.175    6.2313
   11.190    6.4595
   11.205    6.1611
   11.220    5.8978
   11.235    5.9856
   11.250    5.6170
   11.265    5.6170
   11.280    5.8978
   11.295    6.1611
   11.310    5.8978
   11.325    5.7399
   11.340    5.4766
   11.355    5.5994
   11.370    5.8452
   11.385    6.0207
   11.400    5.9329
   11.415    6.0909
   11.430    5.9154
   11.445    5.9856
   11.460    5.8276
   11.475    5.7925
   11.490    5.9154
   11.505    5.7223
   11.520    5.8276
   11.535    5.9329
   11.550    5.6345
   11.565    6.1260
   11.580    5.8627
   11.595    5.7574
   11.610    5.8803
   11.625    6.2138
   11.640    6.2138
   11.655    5.7223
   11.670    6.0909
   11.685    5.9856
   11.700    5.9505
   11.715    5.6697
   11.730    5.4415
   11.745    5.7574
   11.760    5.6170
   11.775    5.8627
   11.790    5.7574
   11.805    5.6521
   11.820    5.5994
   11.835    5.9505
   11.850    6.2138
   11.865    5.6170
   11.880    5.8803
   11.895    5.6345
   11.910    5.6345
   11.925    5.8101
   11.940    5.3186
   11.955    5.3186
   11.970    5.4415
   11.985    5.5292
   12.000    6.0558
   12.015    5.3186
   12.030    5.9329
   12.045    6.4244
   12.060    5.8276
   12.075    5.3186
   12.090    5.8803
   12.105    5.7574
   12.120    5.8803
   12.135    5.9505
   12.150    5.9329
   12.165    5.6521
   12.180    5.5643
   12.195    5.4239
   12.210    6.3367
   12.225    5.4415
   12.240    4.9500
   12.255    5.5292
   12.270    5.9856
   12.285    5.8276
   12.300    5.6872
   12.315    5.8627
   12.330    5.1782
   12.345    5.3361
   12.360    5.5292
   12.375    5.6872
   12.390    5.5643
   12.405    5.8276
   12.420    6.0909
   12.435    5.7399
   12.450    5.7399
   12.465    5.5643
   12.480    5.4941
   12.495    5.4590
   12.510    5.4415
   12.525    5.2133
   12.540    5.4239
   12.555    5.0728
   12.570    5.0553
   12.585    5.5819
   12.600    5.8101
   12.615    5.6170
   12.630    5.4064
   12.645    5.3888
   12.660    5.2308
   12.675    5.7048
   12.690    5.7399
   12.705    5.4941
   12.720    5.3537
   12.735    5.6345
   12.750    5.3186
   12.765    5.4941
   12.780    5.5468
   12.795    5.4415
   12.810    5.1080
   12.825    4.9324
   12.840    5.4064
   12.855    5.5994
   12.870    5.7750
   12.885    5.4239
   12.900    5.1431
   12.915    5.6697
   12.930    5.7750
   12.945    5.2484
   12.960    5.6697
   12.975    5.3712
   12.990    4.9500
   13.005    5.2659
   13.020    5.4766
   13.035    5.1431
   13.050    5.3010
   13.065    5.0553
   13.080    5.0377
   13.095    5.4239
   13.110    5.0026
   13.125    5.2835
   13.140    5.1255
   13.155    5.0377
   13.170    5.7223
   13.185    5.8276
   13.200    5.2835
   13.215    5.4766
   13.230    5.0377
   13.245    5.4590
   13.260    5.4766
   13.275    4.9851
   13.290    5.1606
   13.305    5.3361
   13.320    5.4064
   13.335    5.8101
   13.350    4.8622
   13.365    5.5468
   13.380    5.3010
   13.395    5.2308
   13.410    5.4239
   13.425    5.3186
   13.440    5.4064
   13.455    5.0026
   13.470    5.2308
   13.485    5.3010
   13.500    5.1431
   13.515    5.2484
   13.530    4.9149
   13.545    5.1782
   13.560    5.1431
   13.575    5.0202
   13.590    5.0904
   13.605    5.5292
   13.620    5.2835
   13.635    4.8973
   13.650    4.9851
   13.665    5.1606
   13.680    5.0553
   13.695    4.6691
   13.710    4.8973
   13.725    5.3186
   13.740    5.2308
   13.755    5.1431
   13.770    5.3361
   13.785    5.4239
   13.800    5.1431
   13.815    4.7393
   13.830    5.0026
   13.845    5.3712
   13.860    5.4415
   13.875    5.2308
   13.890    5.8101
   13.905    5.2133
   13.920    5.4766
   13.935    5.7574
   13.950    5.3712
   13.965    5.2133
   13.980    5.2308
   13.995    5.3010
   14.010    5.5819
   14.025    5.7399
   14.040    5.4064
   14.055    5.4415
   14.070    5.0202
   14.085    5.4766
   14.100    5.3010
   14.115    5.2308
   14.130    5.2659
   14.145    5.0904
   14.160    4.9324
   14.175    5.5643
   14.190    5.3888
   14.205    5.2308
   14.220    5.2133
   14.235    4.9675
   14.250    5.4941
   14.265    5.1782
   14.280    5.1957
   14.295    5.3888
   14.310    5.0553
   14.325    5.1255
   14.340    5.2308
   14.355    5.4415
   14.370    5.2835
   14.385    5.5117
   14.400    4.9500
   14.415    4.7569
   14.430    5.0026
   14.445    5.1255
   14.460    5.1255
   14.475    4.9675
   14.490    4.8095
   14.505    5.1080
   14.520    5.3888
   14.535    5.3186
   14.550    4.6165
   14.565    5.2484
   14.580    4.8447
   14.595    4.7920
   14.610    5.0377
   14.625    4.9851
   14.640    4.8973
   14.655    5.4941
   14.670    5.1080
   14.685    5.3537
   14.700    5.2659
   14.715    5.5994
   14.730    5.5468
   14.745    5.2133
   14.760    5.4941
   14.775    5.6521
   14.790    4.7744
   14.805    4.9851
   14.820    5.3186
   14.835    5.0377
   14.850    5.1080
   14.865    5.1782
   14.880    5.4590
   14.895    5.3186
   14.910    5.0377
   14.925    5.1255
   14.940    5.4415
   14.955    4.9149
   14.970    4.9324
   14.985    4.9324
   15.000    5.3712
   15.015    5.3888
   15.030    5.5468
   15.045    5.5994
   15.060    5.0377
   15.075    5.5468
   15.090    5.3186
   15.105    5.4415
   15.120    5.7399
   15.135    5.2659
   15.150    4.9149
   15.165    4.9324
   15.180    5.3888
   15.195    5.1606
   15.210    5.4239
   15.225    5.4415
   15.240    5.0904
   15.255    4.9500
   15.270    5.1606
   15.285    5.3361
   15.300    5.0904
   15.315    5.1080
   15.330    5.1957
   15.345    4.5989
   15.360    4.6867
   15.375    5.0202
   15.390    4.9149
   15.405    5.1255
   15.420    5.1606
   15.435    5.2659
   15.450    5.4590
   15.465    4.9675
   15.480    5.3537
   15.495    5.5117
   15.510    5.5468
   15.525    5.5468
   15.540    5.6345
   15.555    5.5643
   15.570    4.9851
   15.585    4.6691
   15.600    5.2308
   15.615    5.2659
   15.630    4.8798
   15.645    5.1080
   15.660    5.0377
   15.675    5.4239
   15.690    5.2484
   15.705    5.3186
   15.720    5.2835
   15.735    5.2835
   15.750    5.5292
   15.765    5.1782
   15.780    5.2835
   15.795    4.9149
   15.810    5.1255
   15.825    5.1080
   15.840    5.1080
   15.855    5.3712
   15.870    5.3186
   15.885    5.6170
   15.900    5.5292
   15.915    5.1431
   15.930    5.1606
   15.945    5.3537
   15.960    5.7750
   15.975    4.7042
   15.990    5.3010
   16.005    5.5117
   16.020    5.4415
   16.035    4.7042
   16.050    4.8973
   16.065    4.7920
   16.080    4.8271
   16.095    5.0026
   16.110    4.9500
   16.125    5.1080
   16.140    4.7218
   16.155    4.9851
   16.170    4.9500
   16.185    5.3186
   16.200    5.4415
   16.215    5.1957
   16.230    4.9324
   16.245    5.0026
   16.260    5.1431
   16.275    4.8095
   16.290    5.1080
   16.305    5.3010
   16.320    4.9675
   16.335    4.8447
   16.350    5.3010
   16.365    5.2133
   16.380    5.2484
   16.395    5.4415
   16.410    5.4064
   16.425    5.0026
   16.440    5.1957
   16.455    5.8978
   16.470    5.6697
   16.485    5.0728
   16.500    5.3712
   16.515    5.4064
   16.530    4.9675
   16.545    5.5117
   16.560    5.4590
   16.575    5.0026
   16.590    5.1255
   16.605    5.1080
   16.620    5.4064
   16.635    5.4766
   16.650    5.4239
   16.665    5.2835
   16.680    5.2484
   16.695    5.0202
   16.710    4.7393
   16.725    5.2308
   16.740    5.2133
   16.755    5.1431
   16.770    5.1080
   16.785    5.3712
   16.800    5.3186
   16.815    4.9675
   16.830    4.8447
   16.845    5.4590
   16.860    5.4941
   16.875    5.1080
   16.890    5.2659
   16.905    5.1782
   16.920    5.4941
   16.935    5.2133
   16.950    5.0904
   16.965    5.1782
   16.980    5.4766
   16.995    5.0202
   17.010    5.5292
   17.025    5.5468
   17.040    5.5117
   17.055    5.3712
   17.070    5.1957
   17.085    5.4239
   17.100    4.9149
   17.115    5.1606
   17.130    4.9675
   17.145    5.7399
   17.160    5.5994
   17.175    5.6872
   17.190    5.2308
   17.205    5.2308
   17.220    5.3010
   17.235    5.6170
   17.250    5.4941
   17.265    5.0728
   17.280    4.9851
   17.295    4.8447
   17.310    5.4064
   17.325    5.1255
   17.340    5.1255
   17.355    5.3010
   17.370    4.6691
   17.385    5.1255
   17.400    5.2484
   17.415    5.1606
   17.430    5.3712
   17.445    5.2835
   17.460    4.9324
   17.475    5.4415
   17.490    5.0026
   17.505    5.6170
   17.520    5.7399
   17.535    5.1957
   17.550    5.1080
   17.565    5.1957
   17.580    5.1080
   17.595    5.5292
   17.610    5.3186
   17.625    5.0202
   17.640    5.6872
   17.655    5.2484
   17.670    5.3010
   17.685    5.1431
   17.700    5.1255
   17.715    4.7920
   17.730    5.4239
   17.745    5.1431
   17.760    5.1957
   17.775    5.4941
   17.790    5.2484
   17.805    5.6170
   17.820    5.4941
   17.835    5.2133
   17.850    4.9851
   17.865    5.1431
   17.880    5.3186
   17.895    5.3010
   17.910    5.5117
   17.925    5.3537
   17.940    5.1606
   17.955    5.2484
   17.970    4.9500
   17.985    5.2308
   18.000    4.7569
   18.015    5.0728
   18.030    5.1080
   18.045    5.3888
   18.060    5.2835
   18.075    5.2835
   18.090    5.6521
   18.105    5.5643
   18.120    4.9149
   18.135    5.2308
   18.150    5.1782
   18.165    5.5643
   18.180    5.3186
   18.195    4.9149
   18.210    5.4239
   18.225    5.4064
   18.240    5.1957
   18.255    5.0904
   18.270    5.3537
   18.285    5.3361
   18.300    5.0377
   18.315    4.8622
   18.330    4.9324
   18.345    5.3010
   18.360    5.0728
   18.375    5.0728
   18.390    5.3712
   18.405    5.3537
   18.420    5.5468
   18.435    5.6170
   18.450    5.3712
   18.465    5.3361
   18.480    5.2133
   18.495    5.3537
   18.510    5.0377
   18.525    4.8973
   18.540    5.3361
   18.555    5.6521
   18.570    5.7223
   18.585    5.9681
   18.600    5.4766
   18.615    5.2484
   18.630    5.1080
   18.645    5.1080
   18.660    5.2835
   18.675    5.5468
   18.690    5.7925
   18.705    5.7399
   18.720    5.0904
   18.735    5.4590
   18.750    5.2308
   18.765    5.5117
   18.780    5.3888
   18.795    5.1431
   18.810    5.4590
   18.825    5.0728
   18.840    4.9675
   18.855    5.1606
   18.870    4.8447
   18.885    5.1782
   18.900    5.1606
   18.915    5.2308
   18.930    5.2484
   18.945    5.5994
   18.960    5.8276
   18.975    5.5117
   18.990    5.1782
   19.005    4.8973
   19.020    5.1957
   19.035    5.3888
   19.050    5.1431
   19.065    5.3010
   19.080    5.4590
   19.095    5.6345
   19.110    5.4590
   19.125    5.4590
   19.140    5.5994
   19.155    5.1255
   19.170    4.8447
   19.185    5.3010
   19.200    5.2835
   19.215    5.2659
   19.230    5.1782
   19.245    5.3712
   19.260    5.3361
   19.275    5.5819
   19.290    5.5819
   19.305    5.0026
   19.320    5.1606
   19.335    5.3361
   19.350    5.5292
   19.365    5.6345
   19.380    5.4590
   19.395    5.1957
   19.410    5.7574
   19.425    5.6697
   19.440    4.9675
   19.455    5.5292
   19.470    5.7750
   19.485    5.1431
   19.500    5.1255
   19.515    4.8271
   19.530    4.8271
   19.545    5.0728
   19.560    5.1957
   19.575    5.6872
   19.590    6.0734
   19.605    5.3361
   19.620    5.4415
   19.635    5.7048
   19.650    4.8447
   19.665    4.8973
   19.680    5.1080
   19.695    5.5819
   19.710    5.5292
   19.725    5.2308
   19.740    5.6697
   19.755    5.5994
   19.770    5.6872
   19.785    5.4064
   19.800    5.4766
   19.815    5.6170
   19.830    5.2835
   19.845    5.6345
   19.860    5.3888
   19.875    5.1255
   19.890    5.3186
   19.905    5.2308
   19.920    5.3537
   19.935    5.0553
   19.950    5.2484
   19.965    5.5468
   19.980    5.0904
   19.995    5.1255
   20.010    5.0553
   20.025    4.9324
   20.040    5.5468
   20.055    5.7048
   20.070    5.6697
   20.085    5.0728
   20.100    5.3888
   20.115    4.9149
   20.130    5.1080
   20.145    5.2133
   20.160    5.4415
   20.175    5.8627
   20.190    5.4239
   20.205    4.8973
   20.220    5.8276
   20.235    5.4590
   20.250    5.1782
   20.265    5.2659
   20.280    5.2484
   20.295    5.2659
   20.310    5.3186
   20.325    5.6345
   20.340    5.4590
   20.355    5.4590
   20.370    5.4415
   20.385    5.1431
   20.400    5.7048
   20.415    5.7925
   20.430    5.2484
   20.445    5.3537
   20.460    5.2133
   20.475    4.7569
   20.490    5.1782
   20.505    5.1606
   20.520    5.5117
   20.535    5.5994
   20.550    5.4590
   20.565    5.6345
   20.580    5.4941
   20.595    5.4766
   20.610    5.1431
   20.625    5.6872
   20.640    4.8798
   20.655    5.3712
   20.670    5.6170
   20.685    5.4415
   20.700    5.5819
   20.715    5.2659
   20.730    5.5468
   20.745    5.1606
   20.760    5.2659
   20.775    5.5468
   20.790    5.5117
   20.805    5.2484
   20.820    5.4941
   20.835    5.7399
   20.850    5.3888
   20.865    5.5819
   20.880    5.3186
   20.895    5.2133
   20.910    5.4415
   20.925    5.5468
   20.940    5.5643
   20.955    5.5643
   20.970    5.1782
   20.985    5.6697
   21.000    5.6521
   21.015    5.7399
   21.030    5.5819
   21.045    5.6170
   21.060    5.6872
   21.075    5.3010
   21.090    5.3888
   21.105    5.4766
   21.120    5.5117
   21.135    5.1080
   21.150    5.5643
   21.165    5.8627
   21.180    5.2484
   21.195    5.2308
   21.210    5.3712
   21.225    5.5994
   21.240    5.7048
   21.255    5.5468
   21.270    5.5994
   21.285    5.9154
   21.300    5.5819
   21.315    5.3186
   21.330    5.5994
   21.345    5.4064
   21.360    5.4590
   21.375    5.5292
   21.390    5.6345
   21.405    5.7048
   21.420    5.6170
   21.435    5.8627
   21.450    5.3712
   21.465    5.6697
   21.480    5.2133
   21.495    5.7925
   21.510    5.4590
   21.525    5.6872
   21.540    5.4064
   21.555    5.7574
   21.570    5.4941
   21.585    5.5292
   21.600    5.1080
   21.615    5.4415
   21.630    5.9154
   21.645    5.5117
   21.660    5.9681
   21.675    6.0383
   21.690    5.7925
   21.705    5.6872
   21.720    5.4415
   21.735    5.3537
   21.750    5.4064
   21.765    5.3010
   21.780    5.4239
   21.795    5.1957
   21.810    5.2484
   21.825    5.6872
   21.840    5.6345
   21.855    5.4415
   21.870    5.2133
   21.885    5.5468
   21.900    5.4590
   21.915    5.7223
   21.930    5.6170
   21.945    5.6521
   21.960    5.4239
   21.975    5.8276
   21.990    5.6521
   22.005    5.4064
   22.020    5.3010
   22.035    5.8452
   22.050    5.4941
   22.065    5.3537
   22.080    5.5994
   22.095    5.4415
   22.110    6.3016
   22.125    5.8276
   22.140    5.1782
   22.155    5.6170
   22.170    5.3712
   22.185    6.0558
   22.200    5.4064
   22.215    5.6345
   22.230    5.7223
   22.245    5.8276
   22.260    6.0558
   22.275    5.8452
   22.290    5.3888
   22.305    5.5117
   22.320    5.1431
   22.335    5.4590
   22.350    5.7399
   22.365    5.8276
   22.380    5.2308
   22.395    5.4590
   22.410    5.8101
   22.425    5.7223
   22.440    5.1957
   22.455    5.3361
   22.470    5.5643
   22.485    5.8627
   22.500    5.8101
   22.515    5.3712
   22.530    5.7048
   22.545    6.1085
   22.560    5.3361
   22.575    5.6170
   22.590    5.8803
   22.605    5.5994
   22.620    6.3016
   22.635    5.8276
   22.650    5.7223
   22.665    5.5117
   22.680    5.2659
   22.695    5.4766
   22.710    5.5643
   22.725    5.6521
   22.740    5.7223
   22.755    5.7399
   22.770    5.3361
   22.785    5.1255
   22.800    5.3186
   22.815    5.0026
   22.830    5.5994
   22.845    5.9681
   22.860    5.7399
   22.875    5.3888
   22.890    5.0202
   22.905    5.2659
   22.920    5.4941
   22.935    5.5643
   22.950    5.4766
   22.965    5.4941
   22.980    5.3186
   22.995    5.6170
   23.010    5.7048
   23.025    5.4590
   23.040    5.3888
   23.055    5.7399
   23.070    5.6170
   23.085    6.0558
   23.100    5.7048
   23.115    5.2484
   23.130    5.3361
   23.145    5.2659
   23.160    5.3537
   23.175    5.2659
   23.190    5.3010
   23.205    5.1957
   23.220    5.4941
   23.235    6.0383
   23.250    5.1431
   23.265    5.4941
   23.280    5.8101
   23.295    5.9329
   23.310    5.8276
   23.325    5.4941
   23.340    5.3888
   23.355    5.7574
   23.370    5.1255
   23.385    5.5117
   23.400    5.1080
   23.415    5.5117
   23.430    5.4239
   23.445    6.0207
   23.460    5.6697
   23.475    5.7048
   23.490    5.6170
   23.505    5.4239
   23.520    5.8276
   23.535    5.6521
   23.550    5.4415
   23.565    5.8452
   23.580    5.3186
   23.595    5.2659
   23.610    5.6697
   23.625    6.0734
   23.640    5.6521
   23.655    5.4766
   23.670    5.4766
   23.685    5.7399
   23.700    5.6521
   23.715    5.4415
   23.730    5.4064
   23.745    5.2835
   23.760    5.9154
   23.775    6.0207
   23.790    5.4064
   23.805    5.3361
   23.820    5.3186
   23.835    5.9856
   23.850    5.6345
   23.865    5.8101
   23.880    5.7223
   23.895    5.6170
   23.910    5.3186
   23.925    5.5643
   23.940    5.1782
   23.955    4.9675
   23.970    5.1431
   23.985    5.2484
   24.000    5.4766
   24.015    5.4239
   24.030    5.4941
   24.045    5.8978
   24.060    5.2484
   24.075    5.3186
   24.090    5.2133
   24.105    5.4239
   24.120    5.4064
   24.135    5.4239
   24.150    5.4941
   24.165    5.9681
   24.180    5.6697
   24.195    5.4590
   24.210    5.0202
   24.225    5.0553
   24.240    5.2133
   24.255    5.4941
   24.270    5.0553
   24.285    5.5117
   24.300    5.3888
   24.315    6.0032
   24.330    5.4415
   24.345    5.8803
   24.360    5.4590
   24.375    5.8101
   24.390    5.9329
   24.405    5.3888
   24.420    5.6521
   24.435    5.7223
   24.450    5.5468
   24.465    5.5994
   24.480    5.5292
   24.495    5.5819
   24.510    5.4590
   24.525    5.8627
   24.540    5.6521
   24.555    5.4766
   24.570    5.3888
   24.585    5.6697
   24.600    5.8101
   24.615    5.4766
   24.630    5.6872
   24.645    5.3537
   24.660    5.6697
   24.675    5.5117
   24.690    5.1606
   24.705    5.3712
   24.720    4.8271
   24.735    5.0728
   24.750    5.0553
   24.765    5.0904
   24.780    5.4766
   24.795    5.0377
   24.810    5.2484
   24.825    5.1606
   24.840    5.4415
   24.855    4.8271
   24.870    5.5292
   24.885    5.7399
   24.900    5.3712
   24.915    5.4064
   24.930    5.5292
   24.945    5.2484
   24.960    5.1431
   24.975    5.1957
   24.990    5.3186
   25.005    5.3361
   25.020    5.3010
   25.035    5.3537
   25.050    5.3010
   25.065    5.5643
   25.080    5.2308
   25.095    5.2659
   25.110    4.9675
   25.125    4.9851
   25.140    4.9675
   25.155    4.8447
   25.170    5.6170
   25.185    5.3888
   25.200    5.4239
   25.215    5.2484
   25.230    5.4064
   25.245    5.4941
   25.260    5.5292
   25.275    5.0904
   25.290    5.1080
   25.305    5.2659
   25.320    5.6521
   25.335    5.1782
   25.350    5.2308
   25.365    5.6521
   25.380    5.4590
   25.395    5.1957
   25.410    5.5994
   25.425    5.1606
   25.440    5.3010
   25.455    5.1957
   25.470    5.1957
   25.485    4.9500
   25.500    5.2133
   25.515    5.2308
   25.530    5.5292
   25.545    5.0904
   25.560    4.7042
   25.575    4.8447
   25.590    5.1782
   25.605    5.2835
   25.620    5.6345
   25.635    5.5643
   25.650    5.3361
   25.665    4.9324
   25.680    5.4941
   25.695    5.3712
   25.710    5.5117
   25.725    5.4941
   25.740    5.6345
   25.755    5.9154
   25.770    5.3186
   25.785    5.1782
   25.800    5.2659
   25.815    5.3186
   25.830    5.3186
   25.845    4.8447
   25.860    4.7393
   25.875    5.0904
   25.890    5.3537
   25.905    5.0728
   25.920    5.0553
   25.935    5.5117
   25.950    5.0728
   25.965    5.4590
   25.980    5.2133
   25.995    5.3010
   26.010    4.9149
   26.025    5.1606
   26.040    5.2835
   26.055    5.2133
   26.070    5.0728
   26.085    5.5468
   26.100    5.4590
   26.115    5.0202
   26.130    5.3888
   26.145    5.4064
   26.160    5.1957
   26.175    5.1080
   26.190    5.2308
   26.205    5.4766
   26.220    5.0553
   26.235    5.0202
   26.250    5.4239
   26.265    5.2484
   26.280    5.1606
   26.295    5.1606
   26.310    5.3712
   26.325    5.3010
   26.340    5.4590
   26.355    5.3888
   26.370    5.4941
   26.385    5.3712
   26.400    4.9675
   26.415    5.5468
   26.430    4.9851
   26.445    5.1080
   26.460    5.2133
   26.475    5.1255
   26.490    5.3361
   26.505    5.4941
   26.520    4.9851
   26.535    4.7744
   26.550    4.8973
   26.565    5.2484
   26.580    5.5643
   26.595    5.1606
   26.610    5.2133
   26.625    4.8622
   26.640    5.1782
   26.655    5.2308
   26.670    4.7393
   26.685    5.1080
   26.700    5.1957
   26.715    5.5468
   26.730    5.7399
   26.745    4.8095
   26.760    4.5989
   26.775    4.7744
   26.790    5.0026
   26.805    5.2835
   26.820    5.0377
   26.835    4.9500
   26.850    5.3361
   26.865    5.2133
   26.880    5.6170
   26.895    5.5819
   26.910    4.9675
   26.925    5.1255
   26.940    5.5292
   26.955    5.3186
   26.970    5.3361
   26.985    5.5643
   27.000    5.2308
   27.015    5.5468
   27.030    5.7399
   27.045    5.3712
   27.060    4.9500
   27.075    5.0202
   27.090    4.8798
   27.105    5.2133
   27.120    5.1080
   27.135    5.3537
   27.150    5.2133
   27.165    5.2308
   27.180    5.2835
   27.195    5.3010
   27.210    4.7042
   27.225    5.1080
   27.240    5.6170
   27.255    4.8271
   27.270    5.1606
   27.285    5.0377
   27.300    4.9149
   27.315    4.9500
   27.330    5.0553
   27.345    5.3537
   27.360    5.4766
   27.375    5.0553
   27.390    5.2133
   27.405    5.3888
   27.420    5.2484
   27.435    5.2133
   27.450    4.8622
   27.465    5.0026
   27.480    5.5819
   27.495    5.5819
   27.510    5.4239
   27.525    5.2659
   27.540    5.2484
   27.555    5.3537
   27.570    4.9500
   27.585    5.0026
   27.600    4.8798
   27.615    5.2133
   27.630    5.4415
   27.645    4.8973
   27.660    5.3537
   27.675    4.9500
   27.690    5.3712
   27.705    5.0728
   27.720    5.3888
   27.735    5.3361
   27.750    4.9851
   27.765    4.7920
   27.780    5.0728
   27.795    5.0904
   27.810    5.1606
   27.825    4.9500
   27.840    5.2133
   27.855    5.5643
   27.870    5.0904
   27.885    5.2659
   27.900    5.4941
   27.915    5.1431
   27.930    4.9149
   27.945    5.0026
   27.960    5.0377
   27.975    4.7569
   27.990    5.2133
   28.005    5.4941
   28.020    5.2484
   28.035    5.3010
   28.050    5.2308
   28.065    5.1782
   28.080    5.1957
   28.095    5.5468
   28.110    5.5292
   28.125    5.4590
   28.140    5.0202
   28.155    4.7569
   28.170    4.9675
   28.185    4.8798
   28.200    5.2308
   28.215    4.9675
   28.230    5.1957
   28.245    4.7569
   28.260    4.7744
   28.275    5.3186
   28.290    5.0728
   28.305    4.9851
   28.320    4.7920
   28.335    4.9500
   28.350    5.0553
   28.365    4.7920
   28.380    4.4936
   28.395    4.8973
   28.410    5.2659
   28.425    4.8271
   28.440    5.0904
   28.455    4.5989
   28.470    4.7920
   28.485    4.9851
   28.500    4.7920
   28.515    5.0904
   28.530    5.1606
   28.545    5.2133
   28.560    5.2659
   28.575    5.3537
   28.590    5.0377
   28.605    5.2133
   28.620    5.0377
   28.635    4.9149
   28.650    4.8798
   28.665    5.1957
   28.680    5.0728
   28.695    5.3712
   28.710    5.0026
   28.725    4.9675
   28.740    5.0202
   28.755    4.5989
   28.770    5.3010
   28.785    4.7920
   28.800    5.4415
   28.815    4.9675
   28.830    4.5463
   28.845    5.3712
   28.860    4.8622
   28.875    4.6867
   28.890    4.9851
   28.905    5.0553
   28.920    5.2133
   28.935    5.3712
   28.950    5.0728
   28.965    5.1255
   28.980    5.1431
   28.995    4.7920
   29.010    4.8095
   29.025    5.1606
   29.040    5.0553
   29.055    5.1255
   29.070    4.9500
   29.085    4.9500
   29.100    5.1431
   29.115    4.9851
   29.130    4.7393
   29.145    4.6516
   29.160    4.7393
   29.175    4.8798
   29.190    4.5989
   29.205    4.8095
   29.220    5.1080
   29.235    5.1957
   29.250    4.5989
   29.265    4.6340
   29.280    4.9324
   29.295    5.4766
   29.310    4.5287
   29.325    5.0202
   29.340    5.1606
   29.355    4.8095
   29.370    4.6691
   29.385    4.5638
   29.400    4.8447
   29.415    4.6340
   29.430    4.4760
   29.445    4.4936
   29.460    5.0904
   29.475    4.7569
   29.490    4.7920
   29.505    5.1255
   29.520    4.7920
   29.535    4.6867
   29.550    4.7920
   29.565    5.2484
   29.580    4.8622
   29.595    4.5111
   29.610    4.3181
   29.625    4.4058
   29.640    4.9851
   29.655    4.8095
   29.670    4.4058
   29.685    5.0026
   29.700    4.5287
   29.715    4.7920
   29.730    5.1080
   29.745    4.8095
   29.760    4.3181
   29.775    4.6340
   29.790    4.8622
   29.805    4.9851
   29.820    4.8271
   29.835    5.0728
   29.850    4.9851
   29.865    4.9500
   29.880    4.7042
   29.895    4.6516
   29.910    5.0553
   29.925    4.8622
   29.940    4.6691
   29.955    5.1080
   29.970    4.7569
   29.985    4.4936
   30.000    4.7744
   30.015    4.9675
   30.030    4.6340
   30.045    4.6867
   30.060    4.4058
   30.075    4.3883
   30.090    4.6165
   30.105    5.0904
   30.120    5.0202
   30.135    4.6691
   30.150    4.5989
   30.165    4.8095
   30.180    4.7218
   30.195    4.7218
   30.210    4.7920
   30.225    4.0548
   30.240    5.0728
   30.255    5.5643
   30.270    4.7218
   30.285    4.2478
   30.300    4.4058
   30.315    4.3181
   30.330    4.6165
   30.345    4.7920
   30.360    4.2127
   30.375    4.4585
   30.390    4.6691
   30.405    4.8095
   30.420    4.7042
   30.435    4.8095
   30.450    4.3532
   30.465    4.6340
   30.480    4.1601
   30.495    4.5638
   30.510    4.7042
   30.525    5.1080
   30.540    4.5463
   30.555    4.1425
   30.570    4.7744
   30.585    4.8622
   30.600    4.6691
   30.615    4.8447
   30.630    4.6516
   30.645    5.0026
   30.660    4.5989
   30.675    4.4936
   30.690    4.7218
   30.705    4.4234
   30.720    4.5111
   30.735    4.8095
   30.750    4.3356
   30.765    4.6516
   30.780    4.2830
   30.795    4.3883
   30.810    4.1952
   30.825    5.0026
   30.840    4.7920
   30.855    4.8622
   30.870    4.9851
   30.885    4.5989
   30.900    4.2303
   30.915    4.1601
   30.930    4.4409
   30.945    4.7393
   30.960    4.6516
   30.975    4.4058
   30.990    4.5287
   31.005    4.7218
   31.020    4.7744
   31.035    4.8622
   31.050    4.7569
   31.065    4.5814
   31.080    4.4936
   31.095    4.5287
   31.110    4.4058
   31.125    4.2654
   31.140    4.8095
   31.155    4.4936
   31.170    4.7393
   31.185    4.2127
   31.200    4.7569
   31.215    4.9149
   31.230    4.6867
   31.245    4.8973
   31.260    4.4760
   31.275    4.9324
   31.290    4.6691
   31.305    4.3356
   31.320    4.6165
   31.335    4.2478
   31.350    4.7218
   31.365    4.7218
   31.380    4.4409
   31.395    4.1776
   31.410    4.8798
   31.425    4.3005
   31.440    4.7218
   31.455    4.9675
   31.470    4.7569
   31.485    5.1255
   31.500    4.5638
   31.515    4.5638
   31.530    4.5111
   31.545    4.3532
   31.560    4.5463
   31.575    4.8798
   31.590    4.4936
   31.605    4.8622
   31.620    4.9675
   31.635    4.8973
   31.650    4.4409
   31.665    4.7569
   31.680    4.5111
   31.695    4.5287
   31.710    4.7569
   31.725    4.8622
   31.740    5.2308
   31.755    4.8447
   31.770    4.7042
   31.785    4.7744
   31.800    5.3186
   31.815    5.0904
   31.830    4.6691
   31.845    4.5463
   31.860    4.5111
   31.875    4.4585
   31.890    4.2303
   31.905    4.1074
   31.920    4.1952
   31.935    4.2654
   31.950    4.7393
   31.965    4.5638
   31.980    4.2303
   31.995    4.4760
   32.010    4.4585
   32.025    4.5287
   32.040    4.6516
   32.055    4.5287
   32.070    4.2830
   32.085    4.2830
   32.100    4.4585
   32.115    4.7569
   32.130    4.5463
   32.145    4.6867
   32.160    4.7393
   32.175    4.8447
   32.190    4.4936
   32.205    4.5989
   32.220    4.4936
   32.235    4.2478
   32.250    4.5638
   32.265    4.5111
   32.280    4.4585
   32.295    4.1250
   32.310    4.5814
   32.325    4.5111
   32.340    4.4585
   32.355    4.2303
   32.370    4.1601
   32.385    4.2830
   32.400    4.3532
   32.415    4.3707
   32.430    4.6516
   32.445    4.7393
   32.460    4.1074
   32.475    4.5814
   32.490    4.1601
   32.505    4.2654
   32.520    4.3005
   32.535    4.6516
   32.550    4.3883
   32.565    4.2127
   32.580    4.4760
   32.595    4.8095
   32.610    3.9670
   32.625    4.0021
   32.640    4.4409
   32.655    4.2303
   32.670    4.4760
   32.685    4.7042
   32.700    4.5814
   32.715    4.6691
   32.730    4.7042
   32.745    5.0553
   32.760    4.5111
   32.775    4.1601
   32.790    4.1601
   32.805    4.5111
   32.820    4.0899
   32.835    4.2478
   32.850    4.2478
   32.865    4.7042
   32.880    4.6340
   32.895    4.5989
   32.910    4.0899
   32.925    4.4234
   32.940    4.3356
   32.955    4.4234
   32.970    3.9846
   32.985    4.5463
   33.000    4.5111
   33.015    4.9324
   33.030    3.9670
   33.045    4.4234
   33.060    4.3707
   33.075    4.7218
   33.090    4.3356
   33.105    3.8792
   33.120    4.2830
   33.135    4.1952
   33.150    4.6691
   33.165    4.1776
   33.180    4.3532
   33.195    4.7218
   33.210    4.2303
   33.225    4.1425
   33.240    4.1952
   33.255    4.4936
   33.270    3.9846
   33.285    4.0548
   33.300    4.6516
   33.315    4.3181
   33.330    4.5463
   33.345    4.4409
   33.360    4.4585
   33.375    4.6165
   33.390    4.2127
   33.405    3.8968
   33.420    4.3883
   33.435    4.2478
   33.450    4.5814
   33.465    4.4760
   33.480    4.1074
   33.495    4.2830
   33.510    4.2127
   33.525    4.2303
   33.540    4.0548
   33.555    4.5287
   33.570    4.1601
   33.585    4.3883
   33.600    4.3181
   33.615    4.4936
   33.630    4.1250
   33.645    4.3356
   33.660    4.5638
   33.675    4.2654
   33.690    4.8095
   33.705    4.7042
   33.720    4.5989
   33.735    4.1776
   33.750    4.6691
   33.765    4.8973
   33.780    4.4585
   33.795    4.2478
   33.810    4.1776
   33.825    4.3707
   33.840    4.2127
   33.855    4.4760
   33.870    4.9675
   33.885    4.6516
   33.900    4.6867
   33.915    4.6340
   33.930    4.5814
   33.945    4.4936
   33.960    4.2830
   33.975    4.3005
   33.990    4.0372
   34.005    4.3181
   34.020    4.6691
   34.035    4.4760
   34.050    4.0899
   34.065    3.8617
   34.080    4.1250
   34.095    4.2478
   34.110    4.1952
   34.125    4.5287
   34.140    4.7569
   34.155    4.2830
   34.170    3.8090
   34.185    4.1776
   34.200    4.0372
   34.215    4.3707
   34.230    4.5463
   34.245    4.3181
   34.260    4.0723
   34.275    4.3532
   34.290    4.3707
   34.305    4.2654
   34.320    4.1074
   34.335    4.1074
   34.350    4.1250
   34.365    4.4585
   34.380    4.5287
   34.395    4.2478
   34.410    4.0899
   34.425    4.3356
   34.440    4.4409
   34.455    4.2830
   34.470    4.1601
   34.485    4.3883
   34.500    4.1952
   34.515    4.2478
   34.530    4.1601
   34.545    4.4760
   34.560    3.9846
   34.575    4.0021
   34.590    4.3005
   34.605    4.5463
   34.620    3.9319
   34.635    3.5633
   34.650    4.1776
   34.665    4.0548
   34.680    4.2654
   34.695    4.3181
   34.710    3.9319
   34.725    4.1250
   34.740    3.9319
   34.755    3.9846
   34.770    4.1776
   34.785    4.1074
   34.800    3.8090
   34.815    3.8441
   34.830    4.3005
   34.845    4.3005
   34.860    4.2127
   34.875    4.3356
   34.890    4.1074
   34.905    4.0021
   34.920    4.4760
   34.935    4.2478
   34.950    4.2654
   34.965    4.5989
   34.980    4.5638
   34.995    4.3356
   35.010    4.1250
   35.025    4.1952
   35.040    4.0021
   35.055    4.2654
   35.070    4.4585
   35.085    4.3005
   35.100    4.1952
   35.115    4.2478
   35.130    4.0372
   35.145    4.0372
   35.160    3.9494
   35.175    3.7213
   35.190    4.2654
   35.205    3.9143
   35.220    4.3707
   35.235    4.1601
   35.250    4.0723
   35.265    4.2127
   35.280    4.5287
   35.295    4.4585
   35.310    4.4936
   35.325    4.3181
   35.340    3.9494
   35.355    4.5111
   35.370    4.3181
   35.385    4.0723
   35.400    3.9319
   35.415    3.9670
   35.430    4.3707
   35.445    4.2830
   35.460    4.2303
   35.475    4.4234
   35.490    4.0372
   35.505    3.8617
   35.520    4.3532
   35.535    4.4760
   35.550    3.8617
   35.565    4.2654
   35.580    4.3005
   35.595    4.3707
   35.610    4.4058
   35.625    4.3532
   35.640    4.0723
   35.655    4.0723
   35.670    3.8266
   35.685    3.8617
   35.700    4.1250
   35.715    4.5111
   35.730    4.1074
   35.745    3.8792
   35.760    3.7388
   35.775    3.9319
   35.790    3.7915
   35.805    3.8617
   35.820    3.7037
   35.835    3.7037
   35.850    4.0021
   35.865    4.3883
   35.880    3.9846
   35.895    4.2127
   35.910    3.8968
   35.925    4.1952
   35.940    4.1776
   35.955    4.1250
   35.970    4.0372
   35.985    4.0723
   36.000    3.9846
   36.015    4.0723
   36.030    3.9319
   36.045    3.9319
   36.060    4.2830
   36.075    4.0723
   36.090    4.4936
   36.105    4.3005
   36.120    4.0021
   36.135    4.1952
   36.150    4.4585
   36.165    4.2478
   36.180    4.2830
   36.195    4.3532
   36.210    4.0899
   36.225    4.0021
   36.240    4.3707
   36.255    4.4760
   36.270    4.1425
   36.285    4.6867
   36.300    4.2478
   36.315    4.2303
   36.330    3.8266
   36.345    4.2127
   36.360    4.1952
   36.375    4.0021
   36.390    4.1074
   36.405    3.7915
   36.420    3.4755
   36.435    3.6510
   36.450    3.9319
   36.465    4.3005
   36.480    3.9670
   36.495    3.7037
   36.510    3.9143
   36.525    4.0548
   36.540    4.4760
   36.555    4.0548
   36.570    3.9670
   36.585    3.7037
   36.600    4.2127
   36.615    4.2478
   36.630    3.9319
   36.645    3.8617
   36.660    3.8441
   36.675    3.5282
   36.690    3.9670
   36.705    4.2478
   36.720    4.3356
   36.735    4.1601
   36.750    3.9319
   36.765    3.8792
   36.780    4.1952
   36.795    3.9670
   36.810    3.9846
   36.825    3.9670
   36.840    3.8792
   36.855    4.0372
   36.870    4.2830
   36.885    4.2654
   36.900    4.0723
   36.915    4.2127
   36.930    4.1776
   36.945    4.1776
   36.960    4.0197
   36.975    4.0723
   36.990    4.4409
   37.005    3.8090
   37.020    3.7915
   37.035    4.2127
   37.050    4.3883
   37.065    3.8968
   37.080    3.8090
   37.095    4.0372
   37.110    4.0723
   37.125    4.1952
   37.140    3.9670
   37.155    4.0197
   37.170    3.9670
   37.185    3.7915
   37.200    4.0723
   37.215    4.0899
   37.230    4.5814
   37.245    4.0723
   37.260    4.2478
   37.275    4.4585
   37.290    3.8266
   37.305    4.1425
   37.320    4.2478
   37.335    4.6516
   37.350    4.3005
   37.365    4.1074
   37.380    3.8617
   37.395    4.2303
   37.410    4.0021
   37.425    4.0197
   37.440    4.3707
   37.455    3.8266
   37.470    4.4058
   37.485    3.7213
   37.500    3.8266
   37.515    4.1952
   37.530    3.9846
   37.545    3.8441
   37.560    3.8441
   37.575    4.1601
   37.590    4.0548
   37.605    4.0899
   37.620    4.0197
   37.635    4.1074
   37.650    4.0021
   37.665    4.1952
   37.680    4.5814
   37.695    3.9670
   37.710    3.7915
   37.725    3.8090
   37.740    3.8968
   37.755    4.2127
   37.770    4.2127
   37.785    4.2127
   37.800    4.0372
   37.815    4.0899
   37.830    4.2830
   37.845    3.8792
   37.860    3.7037
   37.875    3.8968
   37.890    4.3181
   37.905    3.9846
   37.920    3.5457
   37.935    3.9670
   37.950    4.1250
   37.965    4.1074
   37.980    3.6510
   37.995    4.1601
   38.010    4.1601
   38.025    3.9670
   38.040    3.9319
   38.055    3.5457
   38.070    4.0899
   38.085    4.3181
   38.100    3.9494
   38.115    3.9846
   38.130    4.0899
   38.145    4.3181
   38.160    4.1250
   38.175    3.8266
   38.190    3.8617
   38.205    4.0548
   38.220    4.1601
   38.235    4.0899
   38.250    3.7915
   38.265    4.0548
   38.280    4.0021
   38.295    3.9846
   38.310    3.7388
   38.325    3.8968
   38.340    3.6159
   38.355    3.6862
   38.370    3.7388
   38.385    4.2303
   38.400    4.3356
   38.415    4.2127
   38.430    4.1425
   38.445    4.4409
   38.460    4.3356
   38.475    4.1074
   38.490    4.0197
   38.505    4.3181
   38.520    4.3883
   38.535    4.1250
   38.550    3.9494
   38.565    3.7739
   38.580    3.9319
   38.595    3.8441
   38.610    4.0723
   38.625    4.1074
   38.640    4.0899
   38.655    4.4058
   38.670    4.8973
   38.685    4.1601
   38.700    3.8266
   38.715    4.0021
   38.730    4.1601
   38.745    4.0021
   38.760    4.1250
   38.775    4.1952
   38.790    4.0372
   38.805    3.9494
   38.820    3.9319
   38.835    4.0899
   38.850    3.7564
   38.865    3.8792
   38.880    3.5633
   38.895    4.0372
   38.910    4.0197
   38.925    3.5633
   38.940    4.1425
   38.955    3.9494
   38.970    4.2478
   38.985    4.0197
   39.000    3.9319
   39.015    4.1776
   39.030    3.8968
   39.045    3.9670
   39.060    3.8792
   39.075    3.8266
   39.090    4.2830
   39.105    3.8090
   39.120    4.0197
   39.135    4.0723
   39.150    3.8266
   39.165    4.0723
   39.180    4.0021
   39.195    4.3532
   39.210    4.1425
   39.225    4.0021
   39.240    4.0372
   39.255    3.6862
   39.270    3.9319
   39.285    4.1250
   39.300    3.9319
   39.315    4.1074
   39.330    4.4936
   39.345    4.5638
   39.360    4.0372
   39.375    4.0372
   39.390    3.9494
   39.405    3.9494
   39.420    4.0372
   39.435    4.2303
   39.450    4.1250
   39.465    4.0021
   39.480    3.9670
   39.495    4.2654
   39.510    4.3356
   39.525    3.7739
   39.540    3.7037
   39.555    4.0548
   39.570    3.9846
   39.585    4.4936
   39.600    4.1776
   39.615    4.1601
   39.630    4.2478
   39.645    4.0899
   39.660    4.0021
   39.675    3.8266
   39.690    3.5457
   39.705    3.7915
   39.720    4.3356
   39.735    4.1952
   39.750    4.0899
   39.765    4.0372
   39.780    4.1952
   39.795    4.1601
   39.810    4.3883
   39.825    4.0197
   39.840    4.1952
   39.855    4.2303
   39.870    4.0723
   39.885    3.8968
   39.900    3.7739
   39.915    3.7564
   39.930    4.2830
   39.945    4.3356
   39.960    3.8090
   39.975    3.9846
   39.990    4.2478
   40.005    4.1250
   40.020    3.8792
   40.035    4.0548
   40.050    4.0372
   40.065    4.0723
   40.080    4.1250
   40.095    3.9319
   40.110    4.1776
   40.125    3.9494
   40.140    3.6686
   40.155    3.6686
   40.170    3.8090
   40.185    3.4053
   40.200    3.6686
   40.215    3.9494
   40.230    3.9494
   40.245    3.7388
   40.260    3.6686
   40.275    3.8441
   40.290    3.7739
   40.305    3.7564
   40.320    4.1601
   40.335    4.2478
   40.350    4.2303
   40.365    3.9494
   40.380    3.6510
   40.395    4.0372
   40.410    4.3005
   40.425    4.4058
   40.440    4.1250
   40.455    4.0548
   40.470    4.0548
   40.485    4.3707
   40.500    4.4409
   40.515    3.9670
   40.530    3.9494
   40.545    4.1601
   40.560    4.0372
   40.575    3.8792
   40.590    4.2478
   40.605    3.8617
   40.620    3.8266
   40.635    3.8266
   40.650    3.9670
   40.665    4.0548
   40.680    4.1952
   40.695    4.1601
   40.710    4.2654
   40.725    3.9670
   40.740    4.2478
   40.755    3.8617
   40.770    4.0548
   40.785    4.3707
   40.800    4.4585
   40.815    4.0899
   40.830    3.8792
   40.845    3.9143
   40.860    3.9846
   40.875    3.8792
   40.890    3.9494
   40.905    3.7739
   40.920    3.9319
   40.935    3.9494
   40.950    4.2478
   40.965    4.1776
   40.980    4.2303
   40.995    4.3181
   41.010    4.1601
   41.025    4.0899
   41.040    3.8441
   41.055    4.1425
   41.070    4.1776
   41.085    4.1074
   41.100    3.8090
   41.115    4.0372
   41.130    4.3356
   41.145    4.0548
   41.160    4.0021
   41.175    4.1250
   41.190    3.8441
   41.205    3.7213
   41.220    3.7739
   41.235    3.8266
   41.250    4.2303
   41.265    4.0899
   41.280    3.9319
   41.295    4.3181
   41.310    4.1601
   41.325    3.9670
   41.340    3.5633
   41.355    3.8090
   41.370    4.1074
   41.385    3.9846
   41.400    3.9670
   41.415    4.1250
   41.430    4.0723
   41.445    3.8968
   41.460    3.5457
   41.475    3.7388
   41.490    4.3883
   41.505    4.3532
   41.520    4.4585
   41.535    4.4234
   41.550    4.0372
   41.565    4.1776
   41.580    4.0548
   41.595    4.1425
   41.610    4.0723
   41.625    4.0197
   41.640    3.7213
   41.655    3.6686
   41.670    4.2478
   41.685    3.7739
   41.700    4.1250
   41.715    4.0021
   41.730    4.1250
   41.745    4.0723
   41.760    4.1074
   41.775    4.3532
   41.790    3.7915
   41.805    4.2127
   41.820    4.1601
   41.835    4.5989
   41.850    3.8792
   41.865    3.8090
   41.880    4.3532
   41.895    4.0021
   41.910    4.0723
   41.925    4.1074
   41.940    3.8617
   41.955    4.2127
   41.970    4.1074
   41.985    4.0899
   42.000    4.1074
   42.015    3.9494
   42.030    3.7213
   42.045    3.5984
   42.060    3.7213
   42.075    3.7037
   42.090    3.8617
   42.105    4.1250
   42.120    4.1952
   42.135    4.1074
   42.150    4.0548
   42.165    3.6335
   42.180    3.6510
   42.195    4.0723
   42.210    3.7564
   42.225    3.6862
   42.240    3.7037
   42.255    4.2654
   42.270    3.9846
   42.285    3.6862
   42.300    3.6862
   42.315    3.8968
   42.330    3.8441
   42.345    4.0197
   42.360    4.0372
   42.375    4.0372
   42.390    4.0723
   42.405    4.1776
   42.420    3.9319
   42.435    3.6686
   42.450    3.4931
   42.465    3.9143
   42.480    4.0021
   42.495    4.2478
   42.510    4.1250
   42.525    3.8968
   42.540    3.9846
   42.555    4.3356
   42.570    4.0021
   42.585    4.2303
   42.600    4.4058
   42.615    4.3356
   42.630    4.1250
   42.645    3.9319
   42.660    3.5984
   42.675    3.8792
   42.690    4.0372
   42.705    4.1074
   42.720    3.7213
   42.735    4.0021
   42.750    4.3883
   42.765    4.3883
   42.780    4.0021
   42.795    3.9143
   42.810    3.7213
   42.825    3.9143
   42.840    3.9319
   42.855    3.5457
   42.870    4.3005
   42.885    4.3356
   42.900    4.0899
   42.915    4.0197
   42.930    3.8792
   42.945    3.8968
   42.960    3.8266
   42.975    3.8441
   42.990    3.6686
   43.005    3.7739
   43.020    3.7564
   43.035    3.6862
   43.050    4.0197
   43.065    4.1952
   43.080    3.9670
   43.095    3.7388
   43.110    3.6159
   43.125    4.1425
   43.140    4.0723
   43.155    4.0021
   43.170    3.8090
   43.185    3.8266
   43.200    4.0021
   43.215    3.8617
   43.230    4.0548
   43.245    4.0548
   43.260    4.3005
   43.275    3.8792
   43.290    3.9143
   43.305    4.1250
   43.320    3.8090
   43.335    3.8968
   43.350    4.0021
   43.365    4.2478
   43.380    4.1776
   43.395    4.3707
   43.410    4.0548
   43.425    4.0723
   43.440    4.2303
   43.455    4.2830
   43.470    4.5111
   43.485    4.0899
   43.500    3.9846
   43.515    4.2478
   43.530    3.8792
   43.545    3.7388
   43.560    3.7213
   43.575    3.8968
   43.590    3.9670
   43.605    4.2478
   43.620    4.0548
   43.635    3.9494
   43.650    4.0021
   43.665    3.6686
   43.680    4.1425
   43.695    4.0899
   43.710    4.0372
   43.725    4.1776
   43.740    3.9143
   43.755    3.8090
   43.770    3.9319
   43.785    4.0021
   43.800    3.6686
   43.815    4.0899
   43.830    3.8792
   43.845    3.9846
   43.860    4.2830
   43.875    4.2303
   43.890    3.8441
   43.905    4.1425
   43.920    4.1074
   43.935    4.0899
   43.950    4.1952
   43.965    3.9143
   43.980    3.6335
   43.995    4.1776
   44.010    4.1074
   44.025    3.9319
   44.040    3.8266
   44.055    3.8090
   44.070    3.7037
   44.085    4.0197
   44.100    3.8617
   44.115    4.0548
   44.130    4.0899
   44.145    4.0723
   44.160    4.0021
   44.175    4.2303
   44.190    4.2127
   44.205    3.8090
   44.220    4.0021
   44.235    4.4058
   44.250    3.8617
   44.265    3.3351
   44.280    3.8266
   44.295    3.7915
   44.310    4.1250
   44.325    3.8441
   44.340    4.1074
   44.355    3.6686
   44.370    3.9846
   44.385    3.8968
   44.400    4.1074
   44.415    3.9319
   44.430    3.8617
   44.445    4.0548
   44.460    4.2478
   44.475    3.8090
   44.490    3.8617
   44.505    4.1425
   44.520    4.1074
   44.535    4.0197
   44.550    3.9494
   44.565    3.7915
   44.580    4.0021
   44.595    4.1601
   44.610    3.7564
   44.625    3.9670
   44.640    4.1074
   44.655    4.3181
   44.670    3.9846
   44.685    3.9319
   44.700    4.0372
   44.715    4.0372
   44.730    3.9670
   44.745    4.3707
   44.760    4.4760
   44.775    3.7037
   44.790    4.0197
   44.805    3.8266
   44.820    4.1776
   44.835    4.3532
   44.850    4.2303
   44.865    3.8792
   44.880    4.0021
   44.895    4.2830
   44.910    4.1074
   44.925    4.1952
   44.940    4.3532
   44.955    4.1074
   44.970    3.7915
   44.985    3.9494
   45.000    3.8441
   45.015    3.7388
   45.030    4.0548
   45.045    4.1952
   45.060    3.8441
   45.075    3.6510
   45.090    3.7037
   45.105    3.7739
   45.120    4.0548
   45.135    4.1074
   45.150    4.0723
   45.165    4.0021
   45.180    4.1601
   45.195    3.8617
   45.210    3.9143
   45.225    3.9494
   45.240    3.8968
   45.255    3.9494
   45.270    3.8792
   45.285    3.9494
   45.300    3.8792
   45.315    3.6159
   45.330    4.1250
   45.345    4.1250
   45.360    3.6335
   45.375    3.6686
   45.390    3.7037
   45.405    3.9846
   45.420    4.4409
   45.435    4.3181
   45.450    3.6862
   45.465    3.7564
   45.480    3.8968
   45.495    4.0021
   45.510    3.7564
   45.525    3.8441
   45.540    4.0548
   45.555    4.0723
   45.570    3.8090
   45.585    4.0372
   45.600    4.0372
   45.615    3.8792
   45.630    3.7037
   45.645    3.7213
   45.660    3.7915
   45.675    4.2127
   45.690    4.0548
   45.705    3.7564
   45.720    4.1952
   45.735    4.0723
   45.750    4.1952
   45.765    3.7388
   45.780    3.6335
   45.795    4.2478
   45.810    3.7739
   45.825    3.6686
   45.840    3.9846
   45.855    3.7213
   45.870    3.9494
   45.885    3.8617
   45.900    3.8266
   45.915    3.7213
   45.930    3.7213
   45.945    3.5808
   45.960    4.0021
   45.975    3.6510
   45.990    4.1952
   46.005    3.6686
   46.020    3.5106
   46.035    3.7915
   46.050    3.4580
   46.065    3.7037
   46.080    3.8792
   46.095    3.5808
   46.110    3.9494
   46.125    4.1074
   46.140    4.1952
   46.155    3.8968
   46.170    3.9670
   46.185    4.0021
   46.200    3.8617
   46.215    3.7739
   46.230    3.6862
   46.245    3.9494
   46.260    4.0899
   46.275    3.8266
   46.290    3.8441
   46.305    4.1074
   46.320    4.0548
   46.335    3.7915
   46.350    3.7564
   46.365    3.8617
   46.380    3.9494
   46.395    3.9494
   46.410    3.8968
   46.425    4.1601
   46.440    3.4755
   46.455    3.6159
   46.470    3.4580
   46.485    3.3526
   46.500    3.5106
   46.515    3.5633
   46.530    3.8792
   46.545    3.5282
   46.560    3.4755
   46.575    3.7564
   46.590    3.7037
   46.605    3.8968
   46.620    3.8266
   46.635    3.7388
   46.650    3.6510
   46.665    3.7037
   46.680    3.6686
   46.695    3.8617
   46.710    3.8792
   46.725    4.0723
   46.740    4.0197
   46.755    3.3877
   46.770    3.9846
   46.785    4.1425
   46.800    3.6686
   46.815    3.8266
   46.830    3.7739
   46.845    4.0899
   46.860    3.9143
   46.875    3.8090
   46.890    3.5808
   46.905    3.7915
   46.920    3.5808
   46.935    3.8968
   46.950    3.8266
   46.965    4.0197
   46.980    3.9143
   46.995    3.5106
   47.010    4.0723
   47.025    3.8090
   47.040    3.5282
   47.055    3.7564
   47.070    4.0021
   47.085    3.9494
   47.100    4.1952
   47.115    4.1074
   47.130    3.7037
   47.145    4.0372
   47.160    4.0021
   47.175    4.1601
   47.190    4.0548
   47.205    3.8968
   47.220    3.8617
   47.235    4.2127
   47.250    3.7915
   47.265    3.9319
   47.280    3.7213
   47.295    4.1425
   47.310    3.9494
   47.325    4.0548
   47.340    3.7915
   47.355    4.2478
   47.370    4.1250
   47.385    4.1601
   47.400    3.9319
   47.415    3.6686
   47.430    3.6862
   47.445    4.1425
   47.460    3.5984
   47.475    3.9319
   47.490    3.6159
   47.505    4.0372
   47.520    3.9319
   47.535    3.7915
   47.550    3.7388
   47.565    3.6159
   47.580    3.7915
   47.595    3.5457
   47.610    3.6335
   47.625    3.4053
   47.640    3.6686
   47.655    3.7037
   47.670    3.6159
   47.685    3.8266
   47.700    3.6862
   47.715    4.0021
   47.730    3.6862
   47.745    4.0197
   47.760    4.2127
   47.775    4.1074
   47.790    4.0197
   47.805    3.8266
   47.820    3.6159
   47.835    3.9670
   47.850    3.8090
   47.865    3.7564
   47.880    3.9846
   47.895    3.8266
   47.910    3.8968
   47.925    4.2830
   47.940    4.0372
   47.955    3.9143
   47.970    3.8090
   47.985    3.9494
   48.000    4.1074
   48.015    3.9670
   48.030    3.5106
   48.045    3.7915
   48.060    3.9846
   48.075    3.5808
   48.090    3.7915
   48.105    3.8792
   48.120    3.6862
   48.135    3.6159
   48.150    3.2649
   48.165    3.7915
   48.180    3.6510
   48.195    4.0899
   48.210    3.6159
   48.225    4.1074
   48.240    3.5984
   48.255    3.5984
   48.270    3.8090
   48.285    3.8968
   48.300    3.4755
   48.315    4.1776
   48.330    3.7915
   48.345    3.8266
   48.360    4.0197
   48.375    3.5457
   48.390    3.6335
   48.405    3.6686
   48.420    4.0197
   48.435    4.1074
   48.450    3.9670
   48.465    4.0197
   48.480    4.2303
   48.495    3.5633
   48.510    3.6510
   48.525    3.8617
   48.540    3.4755
   48.555    3.9670
   48.570    3.8090
   48.585    3.8968
   48.600    3.8441
   48.615    3.8968
   48.630    3.9846
   48.645    3.9319
   48.660    3.7739
   48.675    3.5808
   48.690    3.7388
   48.705    3.8090
   48.720    3.8968
   48.735    3.6159
   48.750    4.1250
   48.765    4.2478
   48.780    3.8792
   48.795    3.8792
   48.810    3.5457
   48.825    3.9846
   48.840    3.9670
   48.855    3.6686
   48.870    3.8617
   48.885    4.0021
   48.900    3.8090
   48.915    3.8792
   48.930    3.6335
   48.945    3.9143
   48.960    3.6862
   48.975    3.8090
   48.990    4.0372
   49.005    3.8968
   49.020    3.8617
   49.035    3.8090
   49.050    3.8090
   49.065    3.7388
   49.080    3.4931
   49.095    3.8617
   49.110    4.0372
   49.125    3.6862
   49.140    3.8792
   49.155    3.8090
   49.170    3.8090
   49.185    3.7388
   49.200    3.6335
   49.215    3.6862
   49.230    3.8441
   49.245    3.5808
   49.260    3.7037
   49.275    3.6862
   49.290    3.6686
   49.305    3.6335
   49.320    3.7915
   49.335    3.7739
   49.350    3.9494
   49.365    3.5984
   49.380    3.7564
   49.395    3.6335
   49.410    3.7037
   49.425    3.9670
   49.440    3.6159
   49.455    4.4058
   49.470    3.8968
   49.485    4.0899
   49.500    4.1776
   49.515    3.9319
   49.530    3.7564
   49.545    3.7037
   49.560    4.2127
   49.575    3.7037
   49.590    3.6862
   49.605    3.7739
   49.620    3.6159
   49.635    3.7388
   49.650    3.5282
   49.665    3.7915
   49.680    3.7564
   49.695    3.6686
   49.710    3.7564
   49.725    3.9319
   49.740    3.7915
   49.755    3.6335
   49.770    3.9670
   49.785    3.7564
   49.800    3.8441
   49.815    3.7739
   49.830    3.6862
   49.845    3.9670
   49.860    3.8792
   49.875    3.7037
   49.890    3.6510
   49.905    3.7564
   49.920    3.7213
   49.935    3.8090
   49.950    3.5808
   49.965    3.7915
   49.980    4.1425
