    1.500   33.4211
    1.515   33.7722
    1.530   33.0700
    1.545   31.2445
    1.560   32.0695
    1.575   30.9637
    1.590   30.2264
    1.605   30.0860
    1.620   29.6998
    1.635   28.9802
    1.650   28.4185
    1.665   29.0504
    1.680   27.5584
    1.695   26.7685
    1.710   25.9961
    1.725   25.5749
    1.740   25.1185
    1.755   25.1711
    1.770   25.3116
    1.785   25.2940
    1.800   24.9254
    1.815   24.3286
    1.830   23.5387
    1.845   23.1876
    1.860   24.1531
    1.875   23.2930
    1.890   23.0823
    1.905   22.2924
    1.920   22.2573
    1.935   21.3972
    1.950   21.9589
    1.965   21.0111
    1.980   21.4850
    1.995   20.7302
    2.010   20.6600
    2.025   19.8350
    2.040   20.0105
    2.055   20.1334
    2.070   19.3084
    2.085   19.8174
    2.100   18.6063
    2.115   18.4659
    2.130   17.7637
    2.145   17.9217
    2.160   18.6940
    2.175   18.1148
    2.190   18.0446
    2.205   18.4483
    2.220   16.9914
    2.235   16.7808
    2.250   17.7111
    2.265   18.0270
    2.280   17.6233
    2.295   17.0441
    2.310   16.8510
    2.325   16.8861
    2.340   17.2196
    2.355   17.4829
    2.370   17.4127
    2.385   16.9738
    2.400   16.4121
    2.415   16.6930
    2.430   16.9036
    2.445   15.9909
    2.460   16.2893
    2.475   16.0962
    2.490   15.8329
    2.505   15.6925
    2.520   15.9031
    2.535   15.7276
    2.550   15.9909
    2.565   15.6398
    2.580   15.1308
    2.595   14.9728
    2.610   14.7095
    2.625   14.8324
    2.640   15.9207
    2.655   15.2887
    2.670   15.1834
    2.685   15.0957
    2.700   14.7797
    2.715   15.3063
    2.730   14.9201
    2.745   14.3409
    2.760   13.9196
    2.775   14.2531
    2.790   14.2531
    2.805   14.9377
    2.820   15.3239
    2.835   14.9552
    2.850   14.4286
    2.865   14.3935
    2.880   14.1654
    2.895   13.4632
    2.910   14.0249
    2.925   13.7967
    2.940   14.9552
    2.955   14.4989
    2.970   14.3409
    2.985   14.6568
    3.000   14.1302
    3.015   14.0776
    3.030   14.8148
    3.045   14.9201
    3.060   14.7973
    3.075   14.3760
    3.090   13.6914
    3.105   14.0600
    3.120   13.6914
    3.135   14.7446
    3.150   15.6398
    3.165   15.0957
    3.180   15.7802
    3.195   15.5520
    3.210   15.8504
    3.225   15.6925
    3.240   15.9733
    3.255   16.2191
    3.270   16.0260
    3.285   16.9563
    3.300   17.2196
    3.315   17.3776
    3.330   18.2728
    3.345   18.7467
    3.360   18.8345
    3.375   20.7829
    3.390   21.6781
    3.405   21.4674
    3.420   22.0116
    3.435   23.0648
    3.450   23.8547
    3.465   25.5398
    3.480   26.4525
    3.495   27.8392
    3.510   28.3658
    3.525   30.3142
    3.540   31.6482
    3.555   32.7190
    3.570   35.2115
    3.585   37.8620
    3.600   39.7578
    3.615   41.9344
    3.630   45.0061
    3.645   47.7620
    3.660   50.9742
    3.675   56.5736
    3.690   59.2417
    3.705   65.3502
    3.720   69.2294
    3.735   75.4432
    3.750   83.9038
    3.765   94.9096
    3.780  105.1080
    3.795  119.9403
    3.810  137.3179
    3.825  160.9268
    3.840  182.0607
    3.855  185.0448
    3.870  175.1448
    3.885  150.6231
    3.900  116.8510
    3.915   81.7272
    3.930   51.5008
    3.945   33.8599
    3.960   22.1520
    3.975   18.3956
    3.990   16.2717
    4.005   14.6217
    4.020   13.5334
    4.035   12.7084
    4.050   11.8132
    4.065   11.6904
    4.080   11.4271
    4.095   11.3744
    4.110   11.5850
    4.125   11.6904
    4.140   11.6026
    4.155   10.9356
    4.170   11.2340
    4.185   11.1111
    4.200   11.3217
    4.215   10.6372
    4.230   10.4968
    4.245   10.2510
    4.260   10.0404
    4.275   10.3563
    4.290   10.4616
    4.305   10.0930
    4.320    9.7771
    4.335    9.8122
    4.350   10.3212
    4.365   10.2686
    4.380   10.4090
    4.395   10.8829
    4.410   10.3739
    4.425    9.8122
    4.440   10.4968
    4.455   10.0053
    4.470   10.1457
    4.485   10.1983
    4.500   10.3037
    4.515    9.7946
    4.530    9.7595
    4.545    9.7946
    4.560   10.0053
    4.575    9.4611
    4.590    9.5489
    4.605    9.8999
    4.620   10.3563
    4.635    9.7771
    4.650    9.5840
    4.665    9.9526
    4.680    9.9702
    4.695    9.5313
    4.710    9.6893
    4.725    9.5138
    4.740    9.8122
    4.755    9.9526
    4.770    9.9702
    4.785    9.5313
    4.800    9.5840
    4.815    9.5664
    4.830    9.7595
    4.845    9.9877
    4.860    9.5313
    4.875   10.5670
    4.890   10.5143
    4.905    9.7771
    4.920   10.3914
    4.935   10.4090
    4.950   10.1106
    4.965   10.4090
    4.980   10.5319
    4.995   10.3212
    5.010   10.5494
    5.025   10.4441
    5.040   10.7249
    5.055   10.9180
    5.070   10.7425
    5.085   10.1983
    5.100   10.7952
    5.115   10.8127
    5.130   11.6904
    5.145   12.6031
    5.160   12.1116
    5.175   12.3223
    5.190   12.9015
    5.205   13.2701
    5.220   13.5861
    5.235   13.4983
    5.250   14.0249
    5.265   14.6217
    5.280   14.9377
    5.295   15.9733
    5.310   16.0435
    5.325   15.8504
    5.340   17.6935
    5.355   19.0276
    5.370   21.1690
    5.385   22.3100
    5.400   24.0477
    5.415   26.1541
    5.430   28.9802
    5.445   32.9823
    5.460   35.8434
    5.475   38.0727
    5.490   36.8264
    5.505   33.9652
    5.520   28.6291
    5.535   24.1004
    5.550   19.8701
    5.565   14.8324
    5.580   13.2350
    5.595   13.1824
    5.610   12.1819
    5.625   12.4276
    5.640   11.9888
    5.655   12.2521
    5.670   10.8303
    5.685   11.2866
    5.700   11.7079
    5.715   11.1111
    5.730   10.4441
    5.745   10.9531
    5.760   11.1111
    5.775   10.4441
    5.790   10.5494
    5.805   10.5845
    5.820   10.5319
    5.835   10.2335
    5.850   10.1106
    5.865    9.9526
    5.880    9.8297
    5.895   10.3212
    5.910   10.3037
    5.925    9.9702
    5.940   10.1808
    5.955    9.3031
    5.970    9.4611
    5.985    9.7069
    6.000    9.8999
    6.015    9.3207
    6.030    9.0047
    6.045    9.2505
    6.060    9.2680
    6.075    9.0925
    6.090    9.6367
    6.105    9.0223
    6.120    8.8292
    6.135    9.3734
    6.150    9.5664
    6.165    9.2154
    6.180    9.3909
    6.195    9.0925
    6.210    9.2154
    6.225    8.8117
    6.240    9.1276
    6.255    8.3904
    6.270    8.7765
    6.285    9.5489
    6.300    9.5138
    6.315    8.9345
    6.330    8.5835
    6.345    8.9696
    6.360    9.5138
    6.375    9.0398
    6.390    9.1101
    6.405    8.3553
    6.420    8.8117
    6.435    8.4781
    6.450    8.6537
    6.465    8.7239
    6.480    8.6712
    6.495    8.8292
    6.510    9.0223
    6.525    9.1452
    6.540    8.5133
    6.555    9.1101
    6.570    9.0223
    6.585    8.7590
    6.600    9.7946
    6.615    9.7244
    6.630   10.0579
    6.645    9.7771
    6.660   10.2686
    6.675   10.0404
    6.690   10.9707
    6.705   12.2696
    6.720   12.3925
    6.735   11.8834
    6.750   11.7606
    6.765   10.7776
    6.780   10.5319
    6.795    9.4085
    6.810    9.0750
    6.825    8.4606
    6.840    8.2149
    6.855    8.7063
    6.870    8.0393
    6.885    8.3553
    6.900    8.3026
    6.915    8.0393
    6.930    8.0393
    6.945    8.0042
    6.960    8.2851
    6.975    8.3026
    6.990    7.9691
    7.005    7.9691
    7.020    7.6883
    7.035    7.7058
    7.050    7.7234
    7.065    7.8287
    7.080    7.6883
    7.095    7.9340
    7.110    7.1441
    7.125    7.7585
    7.140    7.7585
    7.155    7.4250
    7.170    6.8808
    7.185    7.9340
    7.200    7.7936
    7.215    7.7058
    7.230    7.5478
    7.245    7.8111
    7.260    7.6356
    7.275    7.4250
    7.290    7.3723
    7.305    7.6356
    7.320    7.8638
    7.335    7.3723
    7.350    7.3547
    7.365    7.5303
    7.380    7.3899
    7.395    7.1090
    7.410    7.4601
    7.425    7.0388
    7.440    7.0563
    7.455    7.7058
    7.470    7.4952
    7.485    7.5654
    7.500    7.3723
    7.515    7.0212
    7.530    7.3196
    7.545    7.6005
    7.560    7.7409
    7.575    7.5303
    7.590    7.8813
    7.605    8.3026
    7.620    8.1797
    7.635    8.6186
    7.650    8.7063
    7.665    9.2680
    7.680    9.9702
    7.695   10.5494
    7.710   11.9712
    7.725   12.2872
    7.740   13.3404
    7.755   14.3760
    7.770   15.5169
    7.785   15.6398
    7.800   13.7792
    7.815   13.2877
    7.830   11.6377
    7.845    9.5840
    7.860    8.6186
    7.875    6.9335
    7.890    7.4601
    7.905    6.9335
    7.920    7.0563
    7.935    6.8457
    7.950    6.9159
    7.965    6.7228
    7.980    6.4244
    7.995    6.4946
    8.010    6.6526
    8.025    6.4244
    8.040    6.3718
    8.055    6.3542
    8.070    6.4595
    8.085    6.6702
    8.100    6.4771
    8.115    6.9686
    8.130    6.3542
    8.145    6.5824
    8.160    6.3893
    8.175    6.3191
    8.190    6.5473
    8.205    6.5122
    8.220    6.4420
    8.235    6.4069
    8.250    6.1611
    8.265    6.5298
    8.280    6.5649
    8.295    6.7228
    8.310    6.4244
    8.325    6.4244
    8.340    6.6351
    8.355    6.5298
    8.370    6.7053
    8.385    6.5649
    8.400    6.1962
    8.415    6.1436
    8.430    6.4069
    8.445    6.3718
    8.460    5.8452
    8.475    6.1085
    8.490    6.5122
    8.505    6.7228
    8.520    6.6175
    8.535    6.1962
    8.550    6.2138
    8.565    6.2665
    8.580    6.7755
    8.595    6.8633
    8.610    6.6000
    8.625    7.0388
    8.640    6.8984
    8.655    7.2143
    8.670    7.4776
    8.685    8.0744
    8.700    8.2324
    8.715    8.1095
    8.730    8.3553
    8.745    7.6005
    8.760    6.7755
    8.775    6.5298
    8.790    6.4420
    8.805    6.0558
    8.820    5.9505
    8.835    6.2665
    8.850    6.1085
    8.865    5.6697
    8.880    6.2665
    8.895    6.2138
    8.910    6.0909
    8.925    6.3191
    8.940    6.4771
    8.955    5.9681
    8.970    5.6521
    8.985    6.2313
    9.000    6.0909
    9.015    6.4946
    9.030    5.9681
    9.045    6.0032
    9.060    5.7925
    9.075    6.3542
    9.090    6.3893
    9.105    6.4420
    9.120    6.3367
    9.135    6.3016
    9.150    6.6877
    9.165    6.3718
    9.180    6.5473
    9.195    6.1260
    9.210    6.1962
    9.225    6.1436
    9.240    6.6000
    9.255    6.3367
    9.270    6.6351
    9.285    6.5649
    9.300    7.0563
    9.315    6.6175
    9.330    6.4420
    9.345    7.2319
    9.360    6.9159
    9.375    7.1617
    9.390    8.5133
    9.405    8.1622
    9.420    8.5133
    9.435    9.4436
    9.450   10.2335
    9.465   11.6553
    9.480   12.2521
    9.495   14.7446
    9.510   17.0792
    9.525   19.2557
    9.540   20.6951
    9.555   21.2041
    9.570   19.1680
    9.585   16.1489
    9.600   13.1824
    9.615    9.9175
    9.630    8.4781
    9.645    7.1090
    9.660    6.7228
    9.675    6.4420
    9.690    5.9329
    9.705    6.1962
    9.720    6.9510
    9.735    6.5649
    9.750    6.0734
    9.765    5.8803
    9.780    6.1260
    9.795    6.1962
    9.810    6.3191
    9.825    6.5298
    9.840    6.1436
    9.855    5.4766
    9.870    6.0207
    9.885    5.5468
    9.900    5.8803
    9.915    6.3542
    9.930    6.1260
    9.945    5.9154
    9.960    6.1436
    9.975    5.9505
    9.990    6.4244
   10.005    6.0032
   10.020    6.2138
   10.035    6.3016
   10.050    6.3893
   10.065    6.3367
   10.080    5.7399
   10.095    6.3016
   10.110    6.7053
   10.125    6.4771
   10.140    6.1611
   10.155    6.0383
   10.170    6.2313
   10.185    6.5122
   10.200    7.1266
   10.215    7.6180
   10.230    7.4250
   10.245    7.9340
   10.260    9.0047
   10.275    9.1803
   10.290   10.8303
   10.305   11.2515
   10.320   11.4973
   10.335   10.5670
   10.350    9.9877
   10.365    9.1276
   10.380    7.8989
   10.395    6.6175
   10.410    6.3016
   10.425    7.1617
   10.440    6.9686
   10.455    6.0558
   10.470    6.5649
   10.485    6.5649
   10.500    6.2665
   10.515    6.2138
   10.530    6.0383
   10.545    6.8633
   10.560    6.5649
   10.575    6.0032
   10.590    6.3016
   10.605    6.1962
   10.620    5.8101
   10.635    6.0032
   10.650    5.8627
   10.665    5.8276
   10.680    5.9856
   10.695    6.1962
   10.710    6.3893
   10.725    6.4946
   10.740    6.7579
   10.755    6.5649
   10.770    6.1085
   10.785    6.6702
   10.800    6.5824
   10.815    6.8457
   10.830    6.8282
   10.845    6.7579
   10.860    6.4771
   10.875    6.8984
   10.890    6.3542
   10.905    6.5122
   10.920    7.5303
   10.935    7.4952
   10.950    8.0920
   10.965    8.7765
   10.980    9.5138
   10.995   10.0228
   11.010   11.3920
   11.025   13.0595
   11.040   11.9186
   11.055   11.3744
   11.070   10.3563
   11.085    9.1101
   11.100    8.4079
   11.115    7.4776
   11.130    7.3196
   11.145    6.7228
   11.160    6.2313
   11.175    6.3893
   11.190    6.4420
   11.205    6.1962
   11.220    6.4946
   11.235    6.4069
   11.250    6.1787
   11.265    6.5298
   11.280    6.0207
   11.295    6.0909
   11.310    6.4069
   11.325    6.7579
   11.340    6.0383
   11.355    6.1260
   11.370    5.9681
   11.385    6.1260
   11.400    6.0032
   11.415    6.1260
   11.430    6.3718
   11.445    6.5122
   11.460    6.2665
   11.475    6.0909
   11.490    6.1962
   11.505    6.1962
   11.520    6.3367
   11.535    6.4771
   11.550    6.4771
   11.565    6.7404
   11.580    7.2319
   11.595    7.9164
   11.610    7.2845
   11.625    8.0218
   11.640    8.6888
   11.655    9.4436
   11.670   10.2159
   11.685   11.3393
   11.700   11.9537
   11.715   12.4978
   11.730   12.2872
   11.745   10.8478
   11.760   10.1106
   11.775    8.1446
   11.790    7.0388
   11.805    6.6175
   11.820    6.1260
   11.835    5.7750
   11.850    5.8978
   11.865    5.9681
   11.880    5.6345
   11.895    6.1260
   11.910    6.5122
   11.925    6.0909
   11.940    6.1260
   11.955    6.0909
   11.970    6.1962
   11.985    6.1436
   12.000    6.4771
   12.015    5.9681
   12.030    5.8627
   12.045    6.0734
   12.060    6.0909
   12.075    5.9505
   12.090    5.7223
   12.105    5.5468
   12.120    6.0207
   12.135    6.2313
   12.150    6.1962
   12.165    6.0383
   12.180    5.4239
   12.195    6.0558
   12.210    5.6872
   12.225    6.0558
   12.240    6.0734
   12.255    6.1611
   12.270    6.1085
   12.285    6.6702
   12.300    6.7404
   12.315    6.7579
   12.330    7.3547
   12.345    7.3372
   12.360    7.2319
   12.375    7.1968
   12.390    6.9686
   12.405    6.5298
   12.420    6.3718
   12.435    5.7048
   12.450    5.5643
   12.465    6.0558
   12.480    5.8452
   12.495    6.0909
   12.510    5.8978
   12.525    6.0032
   12.540    6.3367
   12.555    5.6697
   12.570    5.3186
   12.585    5.7925
   12.600    5.5819
   12.615    5.5468
   12.630    5.7399
   12.645    5.7399
   12.660    6.0558
   12.675    5.7048
   12.690    5.7048
   12.705    5.9681
   12.720    5.5292
   12.735    5.5292
   12.750    6.1436
   12.765    6.3893
   12.780    6.0558
   12.795    5.9329
   12.810    6.5122
   12.825    6.4771
   12.840    6.2840
   12.855    6.8808
   12.870    7.1266
   12.885    7.5303
   12.900    8.0042
   12.915    8.6712
   12.930    9.3909
   12.945   10.1632
   12.960    9.7595
   12.975    9.9526
   12.990    9.8824
   13.005    8.5308
   13.020    7.2143
   13.035    6.6877
   13.050    6.4771
   13.065    6.4069
   13.080    5.9681
   13.095    5.7574
   13.110    5.7574
   13.125    5.8276
   13.140    5.9505
   13.155    6.0207
   13.170    5.9154
   13.185    6.2665
   13.200    6.1260
   13.215    5.6345
   13.230    5.6872
   13.245    5.6345
   13.260    5.8803
   13.275    5.5994
   13.290    5.1606
   13.305    5.2484
   13.320    5.2659
   13.335    5.6872
   13.350    5.1782
   13.365    5.5117
   13.380    6.3542
   13.395    5.7574
   13.410    5.3888
   13.425    5.9329
   13.440    5.9329
   13.455    6.5122
   13.470    6.7053
   13.485    6.7930
   13.500    7.2494
   13.515    7.7585
   13.530    7.4074
   13.545    7.1968
   13.560    7.6883
   13.575    7.4250
   13.590    7.3547
   13.605    6.1260
   13.620    6.0383
   13.635    5.9154
   13.650    5.7048
   13.665    5.7925
   13.680    5.5468
   13.695    5.9329
   13.710    5.9681
   13.725    5.5468
   13.740    5.6345
   13.755    5.4239
   13.770    5.5468
   13.785    5.8276
   13.800    5.8627
   13.815    5.7399
   13.830    5.8978
   13.845    5.8803
   13.860    5.7223
   13.875    5.6345
   13.890    5.7399
   13.905    6.2665
   13.920    6.2313
   13.935    5.5819
   13.950    6.0909
   13.965    6.1260
   13.980    6.3191
   13.995    6.4069
   14.010    6.6877
   14.025    6.8282
   14.040    7.0212
   14.055    7.6005
   14.070    8.8994
   14.085    9.0925
   14.100    9.4962
   14.115    9.0574
   14.130    8.9170
   14.145    7.7585
   14.160    7.4425
   14.175    6.7404
   14.190    6.3191
   14.205    6.1085
   14.220    6.1962
   14.235    6.2138
   14.250    6.3016
   14.265    6.0734
   14.280    5.9856
   14.295    6.8633
   14.310    6.6702
   14.325    5.9329
   14.340    6.2313
   14.355    6.0383
   14.370    6.1611
   14.385    6.0207
   14.400    6.3016
   14.415    6.3542
   14.430    5.7925
   14.445    5.7750
   14.460    6.1085
   14.475    5.9505
   14.490    6.2489
   14.505    6.3191
   14.520    5.8627
   14.535    5.8627
   14.550    6.5473
   14.565    6.3191
   14.580    6.1787
   14.595    5.7574
   14.610    6.1260
   14.625    6.2489
   14.640    5.9681
   14.655    5.8627
   14.670    6.3191
   14.685    6.1085
   14.700    6.4595
   14.715    5.5117
   14.730    5.9856
   14.745    5.8101
   14.760    5.9681
   14.775    6.0207
   14.790    6.1962
   14.805    5.9154
   14.820    5.6872
   14.835    6.0207
   14.850    5.5819
   14.865    6.0383
   14.880    6.3893
   14.895    5.8627
   14.910    5.4766
   14.925    5.4590
   14.940    5.4239
   14.955    6.1436
   14.970    6.1962
   14.985    5.8803
   15.000    5.7399
   15.015    5.7048
   15.030    5.9856
   15.045    6.2138
   15.060    5.6345
   15.075    6.1085
   15.090    6.0383
   15.105    6.1962
   15.120    6.4946
   15.135    6.7755
   15.150    7.2670
   15.165    6.4244
   15.180    6.4595
   15.195    5.8627
   15.210    6.2489
   15.225    6.3718
   15.240    5.9856
   15.255    5.4415
   15.270    5.5117
   15.285    6.1436
   15.300    5.8803
   15.315    6.1085
   15.330    5.4590
   15.345    5.1782
   15.360    5.4766
   15.375    5.6521
   15.390    5.7925
   15.405    5.3537
   15.420    5.6697
   15.435    5.8978
   15.450    5.7223
   15.465    5.8978
   15.480    5.4239
   15.495    5.6872
   15.510    5.6697
   15.525    5.5994
   15.540    5.3888
   15.555    5.3537
   15.570    5.4064
   15.585    5.8978
   15.600    5.0728
   15.615    5.3888
   15.630    5.7399
   15.645    5.6521
   15.660    5.7223
   15.675    5.9681
   15.690    5.7574
   15.705    5.7399
   15.720    5.5468
   15.735    5.8627
   15.750    6.0032
   15.765    5.7925
   15.780    5.6170
   15.795    6.1085
   15.810    5.9681
   15.825    5.8978
   15.840    5.3537
   15.855    5.4064
   15.870    5.5292
   15.885    5.5468
   15.900    5.5643
   15.915    5.7048
   15.930    5.6872
   15.945    5.4415
   15.960    5.6170
   15.975    5.5994
   15.990    6.0207
   16.005    6.0734
   16.020    5.8627
   16.035    6.3016
   16.050    6.1787
   16.065    6.1611
   16.080    5.9505
   16.095    5.9856
   16.110    6.5122
   16.125    7.0563
   16.140    6.8808
   16.155    6.4946
   16.170    6.1260
   16.185    6.2138
   16.200    6.0909
   16.215    6.0032
   16.230    5.6170
   16.245    5.6521
   16.260    5.9856
   16.275    5.7223
   16.290    5.6872
   16.305    5.6521
   16.320    5.7399
   16.335    5.6872
   16.350    5.5994
   16.365    5.5994
   16.380    5.7574
   16.395    6.0207
   16.410    5.1957
   16.425    5.5819
   16.440    5.7048
   16.455    5.6872
   16.470    5.5117
   16.485    5.4590
   16.500    5.8452
   16.515    5.9329
   16.530    5.7750
   16.545    6.4771
   16.560    6.5649
   16.575    6.3016
   16.590    6.2313
   16.605    7.0037
   16.620    7.4425
   16.635    7.1792
   16.650    7.0739
   16.665    6.5824
   16.680    6.1787
   16.695    5.9329
   16.710    5.7223
   16.725    6.0909
   16.740    5.9154
   16.755    6.0383
   16.770    6.2840
   16.785    6.0032
   16.800    5.4590
   16.815    5.7574
   16.830    5.4590
   16.845    5.5819
   16.860    5.3888
   16.875    5.8627
   16.890    5.8101
   16.905    5.6521
   16.920    5.5994
   16.935    5.2484
   16.950    5.9681
   16.965    6.0558
   16.980    6.4595
   16.995    6.2665
   17.010    6.3542
   17.025    7.3547
   17.040    7.3196
   17.055    7.8989
   17.070    8.7063
   17.085    8.8819
   17.100    7.8111
   17.115    7.5127
   17.130    7.0212
   17.145    7.0563
   17.160    6.4420
   17.175    6.1962
   17.190    5.9681
   17.205    5.9856
   17.220    5.8276
   17.235    5.8803
   17.250    6.2840
   17.265    5.8276
   17.280    5.5643
   17.295    5.5994
   17.310    5.4415
   17.325    5.3537
   17.340    5.7048
   17.355    5.6521
   17.370    5.7750
   17.385    5.1957
   17.400    5.1782
   17.415    5.6872
   17.430    5.6521
   17.445    6.0383
   17.460    5.9681
   17.475    6.3016
   17.490    6.2665
   17.505    6.2489
   17.520    5.7399
   17.535    5.8978
   17.550    5.8978
   17.565    5.9329
   17.580    6.5122
   17.595    6.0032
   17.610    5.8452
   17.625    5.6521
   17.640    5.5292
   17.655    5.6521
   17.670    5.4239
   17.685    5.2308
   17.700    5.6170
   17.715    5.5994
   17.730    5.8452
   17.745    5.7925
   17.760    5.5819
   17.775    5.6872
   17.790    5.7925
   17.805    5.7048
   17.820    5.3186
   17.835    5.4590
   17.850    5.4239
   17.865    5.5994
   17.880    5.9329
   17.895    5.8276
   17.910    5.5643
   17.925    6.1260
   17.940    5.5292
   17.955    6.7228
   17.970    6.2840
   17.985    5.7925
   18.000    6.4244
   18.015    6.0558
   18.030    6.1436
   18.045    5.7048
   18.060    5.8978
   18.075    5.3712
   18.090    5.5117
   18.105    5.5468
   18.120    5.8101
   18.135    5.6345
   18.150    5.5994
   18.165    5.8452
   18.180    5.8803
   18.195    5.6697
   18.210    5.7223
   18.225    5.5819
   18.240    5.7750
   18.255    5.3712
   18.270    5.8452
   18.285    5.6521
   18.300    5.5994
   18.315    5.9681
   18.330    6.3367
   18.345    5.9681
   18.360    6.4420
   18.375    6.6702
   18.390    6.3893
   18.405    6.4946
   18.420    6.3016
   18.435    5.7925
   18.450    5.7925
   18.465    5.5994
   18.480    5.6170
   18.495    5.8101
   18.510    5.7399
   18.525    5.6345
   18.540    5.7048
   18.555    5.8627
   18.570    6.0032
   18.585    5.5643
   18.600    5.8978
   18.615    5.9154
   18.630    5.7574
   18.645    5.7574
   18.660    5.7223
   18.675    5.4590
   18.690    5.8627
   18.705    6.1611
   18.720    5.3712
   18.735    6.0734
   18.750    5.8803
   18.765    6.1260
   18.780    5.9505
   18.795    5.7925
   18.810    5.4766
   18.825    6.1787
   18.840    6.4420
   18.855    6.0032
   18.870    6.0207
   18.885    5.8101
   18.900    6.1260
   18.915    5.8978
   18.930    5.7223
   18.945    5.4064
   18.960    5.2835
   18.975    5.3537
   18.990    5.6345
   19.005    5.0553
   19.020    5.9681
   19.035    5.6872
   19.050    5.3712
   19.065    5.4415
   19.080    5.5643
   19.095    5.5819
   19.110    5.5468
   19.125    5.5994
   19.140    5.8978
   19.155    5.6345
   19.170    5.3361
   19.185    5.5117
   19.200    5.3537
   19.215    5.8978
   19.230    6.0207
   19.245    5.8452
   19.260    5.6697
   19.275    5.6872
   19.290    5.6170
   19.305    5.5994
   19.320    5.9329
   19.335    6.3367
   19.350    5.9329
   19.365    5.7925
   19.380    5.5819
   19.395    5.5292
   19.410    5.4415
   19.425    5.5292
   19.440    5.6697
   19.455    5.4766
   19.470    5.5292
   19.485    5.5117
   19.500    5.6521
   19.515    6.0032
   19.530    5.5643
   19.545    5.8101
   19.560    6.1085
   19.575    6.4946
   19.590    6.7228
   19.605    6.7930
   19.620    6.7930
   19.635    6.3718
   19.650    6.4244
   19.665    5.8803
   19.680    5.9154
   19.695    5.8101
   19.710    5.3888
   19.725    5.4941
   19.740    5.3537
   19.755    5.4941
   19.770    5.3010
   19.785    5.4415
   19.800    5.7399
   19.815    5.3010
   19.830    5.3361
   19.845    5.5292
   19.860    5.7048
   19.875    5.6521
   19.890    5.4415
   19.905    5.0728
   19.920    5.1080
   19.935    5.2835
   19.950    5.7750
   19.965    5.7223
   19.980    5.7750
   19.995    5.7223
   20.010    5.0553
   20.025    5.3537
   20.040    5.4941
   20.055    5.5994
   20.070    5.5643
   20.085    5.3010
   20.100    5.1255
   20.115    5.0553
   20.130    5.3010
   20.145    5.1080
   20.160    5.2308
   20.175    4.9500
   20.190    4.8447
   20.205    5.1431
   20.220    5.0728
   20.235    5.0728
   20.250    5.4239
   20.265    5.0377
   20.280    5.8627
   20.295    5.4766
   20.310    5.9154
   20.325    6.1260
   20.340    6.3191
   20.355    6.6702
   20.370    7.0563
   20.385    8.1622
   20.400    7.8462
   20.415    7.6005
   20.430    7.8111
   20.445    7.0563
   20.460    6.6702
   20.475    5.6521
   20.490    6.0558
   20.505    5.5292
   20.520    5.4239
   20.535    5.5292
   20.550    5.6345
   20.565    5.6521
   20.580    5.5994
   20.595    5.1782
   20.610    5.1080
   20.625    5.3010
   20.640    5.3537
   20.655    5.6170
   20.670    5.8101
   20.685    5.6521
   20.700    5.0377
   20.715    5.0904
   20.730    5.2484
   20.745    5.2835
   20.760    5.5117
   20.775    5.3712
   20.790    5.2659
   20.805    5.1782
   20.820    5.2484
   20.835    5.1782
   20.850    5.1255
   20.865    5.2659
   20.880    5.4941
   20.895    5.2835
   20.910    4.9851
   20.925    5.2484
   20.940    5.3361
   20.955    5.2308
   20.970    4.7744
   20.985    4.8622
   21.000    4.9324
   21.015    5.3888
   21.030    4.9851
   21.045    5.0904
   21.060    5.0553
   21.075    5.3712
   21.090    4.9851
   21.105    5.0904
   21.120    5.0904
   21.135    5.4766
   21.150    5.5643
   21.165    5.4941
   21.180    5.1782
   21.195    5.0904
   21.210    5.0377
   21.225    5.2484
   21.240    5.4766
   21.255    5.5468
   21.270    5.2308
   21.285    5.0904
   21.300    5.1606
   21.315    5.1080
   21.330    4.9675
   21.345    5.1431
   21.360    5.4239
   21.375    5.1606
   21.390    4.7920
   21.405    4.8622
   21.420    4.9851
   21.435    4.9851
   21.450    4.9500
   21.465    5.0904
   21.480    4.6165
   21.495    5.4415
   21.510    5.4590
   21.525    5.2659
   21.540    5.5819
   21.555    5.2484
   21.570    5.3361
   21.585    5.3712
   21.600    5.1431
   21.615    5.4239
   21.630    5.6521
   21.645    5.3537
   21.660    5.4415
   21.675    4.8447
   21.690    5.0553
   21.705    5.6345
   21.720    5.6170
   21.735    5.2484
   21.750    5.0026
   21.765    5.3888
   21.780    5.1782
   21.795    5.1606
   21.810    5.4415
   21.825    5.4415
   21.840    5.7399
   21.855    6.1787
   21.870    5.9681
   21.885    6.5298
   21.900    6.2489
   21.915    6.0383
   21.930    5.9681
   21.945    5.8101
   21.960    5.8452
   21.975    5.2659
   21.990    4.6691
   22.005    4.8095
   22.020    5.3712
   22.035    5.5292
   22.050    5.4941
   22.065    5.1255
   22.080    5.2133
   22.095    5.6170
   22.110    5.6697
   22.125    5.5819
   22.140    5.0728
   22.155    5.2133
   22.170    5.3186
   22.185    5.5819
   22.200    5.3888
   22.215    5.6872
   22.230    5.8452
   22.245    5.5643
   22.260    5.8978
   22.275    5.1957
   22.290    5.7925
   22.305    5.2484
   22.320    4.7569
   22.335    5.3537
   22.350    5.1255
   22.365    5.1431
   22.380    4.5814
   22.395    5.1255
   22.410    4.8095
   22.425    4.9675
   22.440    5.0553
   22.455    5.0377
   22.470    5.0377
   22.485    5.0377
   22.500    5.0377
   22.515    5.3888
   22.530    5.6170
   22.545    6.3893
   22.560    6.8282
   22.575    7.6532
   22.590    7.9340
   22.605    7.7936
   22.620    7.7760
   22.635    6.8984
   22.650    6.7053
   22.665    6.5298
   22.680    5.5994
   22.695    5.1606
   22.710    5.4590
   22.725    4.7393
   22.740    4.8973
   22.755    5.3010
   22.770    5.2133
   22.785    5.2659
   22.800    5.3888
   22.815    4.9149
   22.830    5.1606
   22.845    5.4415
   22.860    5.8627
   22.875    6.4595
   22.890    6.8282
   22.905    7.5303
   22.920    7.7058
   22.935    7.7585
   22.950    8.3904
   22.965    7.7760
   22.980    7.3021
   22.995    6.5473
   23.010    6.1260
   23.025    5.3888
   23.040    5.1431
   23.055    5.2835
   23.070    5.0202
   23.085    5.1431
   23.100    4.7569
   23.115    4.8973
   23.130    5.3888
   23.145    5.4239
   23.160    5.3537
   23.175    5.0377
   23.190    5.3888
   23.205    5.3010
   23.220    5.5292
   23.235    5.5643
   23.250    5.7223
   23.265    6.0032
   23.280    6.6351
   23.295    6.4069
   23.310    5.6872
   23.325    5.9505
   23.340    5.4766
   23.355    4.8798
   23.370    4.9851
   23.385    5.4941
   23.400    5.2308
   23.415    5.5117
   23.430    5.4590
   23.445    5.0904
   23.460    4.9149
   23.475    4.8973
   23.490    5.0553
   23.505    4.8095
   23.520    5.2308
   23.535    5.1606
   23.550    5.0728
   23.565    4.8447
   23.580    5.0904
   23.595    5.3361
   23.610    5.2484
   23.625    5.3537
   23.640    5.0728
   23.655    4.7744
   23.670    4.6165
   23.685    5.0728
   23.700    5.0026
   23.715    5.0728
   23.730    4.9149
   23.745    5.1957
   23.760    4.6516
   23.775    4.9675
   23.790    4.7744
   23.805    4.8447
   23.820    4.8798
   23.835    4.9324
   23.850    4.5638
   23.865    4.8271
   23.880    5.2133
   23.895    5.0728
   23.910    5.5819
   23.925    5.4239
   23.940    6.4595
   23.955    6.1436
   23.970    5.9856
   23.985    5.3888
   24.000    5.5292
   24.015    5.0377
   24.030    4.8798
   24.045    4.8447
   24.060    4.7920
   24.075    4.5463
   24.090    5.0904
   24.105    4.7744
   24.120    5.0728
   24.135    4.5287
   24.150    4.6691
   24.165    4.8973
   24.180    4.5638
   24.195    5.0553
   24.210    4.4058
   24.225    4.4058
   24.240    4.6516
   24.255    5.3361
   24.270    5.2484
   24.285    4.7393
   24.300    4.8973
   24.315    4.5638
   24.330    4.8622
   24.345    5.1080
   24.360    5.1255
   24.375    4.7569
   24.390    5.0026
   24.405    4.8271
   24.420    4.3883
   24.435    4.4760
   24.450    4.4409
   24.465    4.9851
   24.480    4.7744
   24.495    4.7393
   24.510    5.0377
   24.525    5.0202
   24.540    4.8973
   24.555    4.7744
   24.570    4.9149
   24.585    4.9149
   24.600    4.7744
   24.615    5.0904
   24.630    4.9324
   24.645    4.6165
   24.660    4.5463
   24.675    4.7393
   24.690    4.8271
   24.705    4.7042
   24.720    4.6867
   24.735    4.6691
   24.750    4.7393
   24.765    4.7218
   24.780    4.8271
   24.795    4.5638
   24.810    5.1606
   24.825    4.8622
   24.840    4.7218
   24.855    4.4234
   24.870    4.9851
   24.885    5.5117
   24.900    4.9675
   24.915    4.6691
   24.930    4.7218
   24.945    4.7218
   24.960    4.7920
   24.975    5.0202
   24.990    4.7569
   25.005    4.8798
   25.020    4.7569
   25.035    4.8622
   25.050    4.5989
   25.065    4.5989
   25.080    4.4058
   25.095    4.5989
   25.110    5.0377
   25.125    5.2484
   25.140    4.8271
   25.155    5.3010
   25.170    4.6516
   25.185    4.8798
   25.200    5.1255
   25.215    5.2308
   25.230    5.0377
   25.245    5.4064
   25.260    4.8798
   25.275    4.7393
   25.290    4.7393
   25.305    4.5814
   25.320    4.7042
   25.335    4.7920
   25.350    4.8622
   25.365    5.0026
   25.380    5.1431
   25.395    5.0904
   25.410    4.7042
   25.425    5.1255
   25.440    4.3181
   25.455    4.3181
   25.470    4.7920
   25.485    5.3186
   25.500    4.9149
   25.515    4.9675
   25.530    5.3186
   25.545    5.0904
   25.560    5.3361
   25.575    4.9851
   25.590    5.1080
   25.605    5.0202
   25.620    4.5287
   25.635    4.6165
   25.650    4.8973
   25.665    4.8271
   25.680    5.1080
   25.695    4.7393
   25.710    4.9324
   25.725    4.7744
   25.740    5.1782
   25.755    4.7920
   25.770    5.1080
   25.785    5.1080
   25.800    5.5292
   25.815    5.9329
   25.830    6.4771
   25.845    6.9335
   25.860    6.6175
   25.875    6.3016
   25.890    5.8803
   25.905    5.2133
   25.920    5.4415
   25.935    5.3186
   25.950    4.7744
   25.965    4.9675
   25.980    4.8271
   25.995    4.7744
   26.010    4.8271
   26.025    4.4409
   26.040    4.8271
   26.055    4.8622
   26.070    4.8447
   26.085    4.3707
   26.100    4.5111
   26.115    4.5638
   26.130    4.7042
   26.145    4.8447
   26.160    4.7042
   26.175    4.4234
   26.190    4.8447
   26.205    4.5287
   26.220    4.4409
   26.235    4.9149
   26.250    4.6165
   26.265    4.3005
   26.280    4.2303
   26.295    4.7218
   26.310    4.7042
   26.325    4.4585
   26.340    4.7744
   26.355    4.8271
   26.370    4.6165
   26.385    4.8271
   26.400    4.6691
   26.415    4.4058
   26.430    4.9500
   26.445    4.9675
   26.460    5.0728
   26.475    4.9149
   26.490    5.3888
   26.505    5.0728
   26.520    4.7393
   26.535    4.7218
   26.550    4.1952
   26.565    4.4234
   26.580    4.6516
   26.595    4.3356
   26.610    4.6516
   26.625    4.4409
   26.640    4.5111
   26.655    4.8973
   26.670    4.2478
   26.685    4.5989
   26.700    4.7218
   26.715    4.8447
   26.730    4.2654
   26.745    4.2303
   26.760    4.5989
   26.775    4.5814
   26.790    4.9500
   26.805    4.6516
   26.820    4.5814
   26.835    4.4409
   26.850    4.3356
   26.865    4.6516
   26.880    4.5814
   26.895    4.4058
   26.910    4.2478
   26.925    4.6691
   26.940    4.8973
   26.955    4.9851
   26.970    4.5287
   26.985    4.7920
   27.000    5.2133
   27.015    5.8978
   27.030    5.4415
   27.045    5.6872
   27.060    5.4590
   27.075    5.3186
   27.090    5.0026
   27.105    5.0553
   27.120    4.6340
   27.135    4.3181
   27.150    4.3356
   27.165    4.1776
   27.180    4.0021
   27.195    4.7569
   27.210    4.6867
   27.225    4.2127
   27.240    4.2830
   27.255    4.4058
   27.270    4.4585
   27.285    4.5111
   27.300    4.3707
   27.315    4.8798
   27.330    4.4409
   27.345    4.3532
   27.360    4.0197
   27.375    3.7213
   27.390    3.9670
   27.405    4.0197
   27.420    4.4234
   27.435    4.4760
   27.450    4.4760
   27.465    4.3707
   27.480    4.5638
   27.495    4.7569
   27.510    4.7393
   27.525    4.2830
   27.540    4.7569
   27.555    4.5111
   27.570    4.5814
   27.585    4.3005
   27.600    4.5638
   27.615    4.9851
   27.630    4.8798
   27.645    4.7920
   27.660    5.1782
   27.675    4.6340
   27.690    4.7393
   27.705    4.9324
   27.720    4.3181
   27.735    4.5287
   27.750    4.6516
   27.765    4.4409
   27.780    4.3005
   27.795    4.2830
   27.810    4.2830
   27.825    4.1952
   27.840    4.1952
   27.855    4.3181
   27.870    4.1601
   27.885    4.3707
   27.900    4.3181
   27.915    4.3356
   27.930    4.5111
   27.945    4.4585
   27.960    4.3883
   27.975    4.1952
   27.990    4.3181
   28.005    4.2303
   28.020    4.3883
   28.035    3.9670
   28.050    4.2478
   28.065    4.2478
   28.080    4.7744
   28.095    4.7218
   28.110    4.1250
   28.125    4.5814
   28.140    4.4234
   28.155    4.7393
   28.170    4.9324
   28.185    5.3888
   28.200    5.6697
   28.215    5.3537
   28.230    5.1782
   28.245    4.8095
   28.260    4.9149
   28.275    4.4585
   28.290    4.1425
   28.305    3.8090
   28.320    4.4409
   28.335    4.1952
   28.350    4.1601
   28.365    4.2127
   28.380    4.6867
   28.395    4.4058
   28.410    4.3532
   28.425    4.2830
   28.440    4.3181
   28.455    4.6691
   28.470    4.4936
   28.485    5.2308
   28.500    5.0728
   28.515    4.8271
   28.530    4.5111
   28.545    4.3883
   28.560    4.5638
   28.575    4.2654
   28.590    4.6165
   28.605    4.3532
   28.620    4.4058
   28.635    4.6691
   28.650    4.4936
   28.665    4.4936
   28.680    3.6510
   28.695    4.6516
   28.710    4.0899
   28.725    3.8968
   28.740    4.1601
   28.755    4.3883
   28.770    4.7393
   28.785    4.4058
   28.800    4.0197
   28.815    4.2303
   28.830    4.2830
   28.845    4.2654
   28.860    4.2127
   28.875    4.3356
   28.890    4.0899
   28.905    4.0372
   28.920    4.4058
   28.935    4.6340
   28.950    4.4409
   28.965    4.2303
   28.980    4.7744
   28.995    4.5287
   29.010    4.3181
   29.025    4.4058
   29.040    4.5463
   29.055    4.4760
   29.070    4.5287
   29.085    4.7042
   29.100    4.5638
   29.115    4.5989
   29.130    4.4760
   29.145    4.2654
   29.160    4.0548
   29.175    4.2303
   29.190    4.2127
   29.205    3.8792
   29.220    4.1601
   29.235    4.1074
   29.250    4.1601
   29.265    4.5111
   29.280    4.3883
   29.295    4.8271
   29.310    5.2133
   29.325    5.1080
   29.340    4.6691
   29.355    4.6340
   29.370    4.5463
   29.385    4.1250
   29.400    4.0548
   29.415    3.9143
   29.430    4.1425
   29.445    4.1601
   29.460    4.1074
   29.475    4.1074
   29.490    4.0372
   29.505    3.7564
   29.520    4.0372
   29.535    4.2654
   29.550    4.0021
   29.565    3.7739
   29.580    4.0197
   29.595    4.1425
   29.610    3.8441
   29.625    4.0548
   29.640    3.7739
   29.655    3.7213
   29.670    3.5984
   29.685    3.8090
   29.700    3.9846
   29.715    4.3707
   29.730    3.8090
   29.745    3.9846
   29.760    3.8090
   29.775    3.8441
   29.790    4.3883
   29.805    4.5638
   29.820    4.3181
   29.835    4.4936
   29.850    4.4409
   29.865    4.3532
   29.880    4.0899
   29.895    4.0899
   29.910    4.1952
   29.925    4.1601
   29.940    4.0723
   29.955    4.1601
   29.970    3.9670
   29.985    3.9143
   30.000    4.1074
   30.015    3.5808
   30.030    3.8968
   30.045    4.2654
   30.060    4.0372
   30.075    3.8441
   30.090    4.1074
   30.105    4.0899
   30.120    4.3005
   30.135    3.7037
   30.150    3.8617
   30.165    3.9319
   30.180    3.8266
   30.195    3.8968
   30.210    3.8792
   30.225    3.7915
   30.240    4.2654
   30.255    4.1776
   30.270    3.4404
   30.285    4.1776
   30.300    4.0548
   30.315    3.6159
   30.330    4.0372
   30.345    4.0021
   30.360    4.1601
   30.375    4.1425
   30.390    3.8792
   30.405    3.5282
   30.420    4.0723
   30.435    3.9846
   30.450    3.7564
   30.465    3.7739
   30.480    4.0372
   30.495    4.1952
   30.510    3.5457
   30.525    3.7915
   30.540    3.5633
   30.555    3.8792
   30.570    3.8968
   30.585    3.8968
   30.600    3.7739
   30.615    4.1776
   30.630    4.3005
   30.645    4.1074
   30.660    4.0548
   30.675    4.2830
   30.690    4.4234
   30.705    3.9846
   30.720    3.7037
   30.735    3.8968
   30.750    4.1074
   30.765    3.7564
   30.780    3.8090
   30.795    3.6510
   30.810    3.8090
   30.825    3.6862
   30.840    3.7213
   30.855    3.5457
   30.870    3.5106
   30.885    3.6159
   30.900    3.8090
   30.915    3.7915
   30.930    3.6159
   30.945    3.4229
   30.960    4.1776
   30.975    3.9670
   30.990    3.4755
   31.005    3.5633
   31.020    3.7739
   31.035    3.6862
   31.050    4.0197
   31.065    4.2830
   31.080    3.7915
   31.095    3.5633
   31.110    3.5633
   31.125    3.7564
   31.140    3.4931
   31.155    3.6686
   31.170    3.7564
   31.185    3.8266
   31.200    3.7564
   31.215    4.0548
   31.230    3.7739
   31.245    3.3877
   31.260    3.5282
   31.275    3.5808
   31.290    3.5633
   31.305    3.7739
   31.320    3.4229
   31.335    3.7564
   31.350    4.0372
   31.365    3.5457
   31.380    4.1952
   31.395    4.1074
   31.410    4.1425
   31.425    4.3005
   31.440    4.2127
   31.455    4.0197
   31.470    4.0723
   31.485    3.8090
   31.500    3.8266
   31.515    3.4931
   31.530    3.4755
   31.545    3.4229
   31.560    3.6686
   31.575    3.4404
   31.590    3.5106
   31.605    3.5633
   31.620    3.7915
   31.635    4.2303
   31.650    4.0197
   31.665    3.4404
   31.680    3.7564
   31.695    3.7213
   31.710    3.7037
   31.725    3.6862
   31.740    3.7739
   31.755    3.3877
   31.770    3.2824
   31.785    3.5808
   31.800    3.7037
   31.815    3.5633
   31.830    3.7037
   31.845    3.8441
   31.860    3.3702
   31.875    3.5457
   31.890    3.5106
   31.905    3.4931
   31.920    4.1776
   31.935    3.7037
   31.950    3.6510
   31.965    3.9670
   31.980    3.6510
   31.995    3.4755
   32.010    3.5808
   32.025    3.6159
   32.040    3.5984
   32.055    3.4580
   32.070    3.4755
   32.085    3.4404
   32.100    3.3877
   32.115    3.6686
   32.130    3.5106
   32.145    3.8617
   32.160    3.3175
   32.175    3.6686
   32.190    3.7213
   32.205    3.7213
   32.220    3.6510
   32.235    3.3526
   32.250    3.3000
   32.265    3.5282
   32.280    3.3526
   32.295    3.4931
   32.310    3.4580
   32.325    3.5457
   32.340    3.4580
   32.355    3.3351
   32.370    3.5282
   32.385    3.5106
   32.400    3.6686
   32.415    3.6159
   32.430    3.3351
   32.445    3.2824
   32.460    3.5106
   32.475    3.4580
   32.490    3.6335
   32.505    3.4580
   32.520    3.3877
   32.535    3.4755
   32.550    3.4404
   32.565    3.2298
   32.580    3.5106
   32.595    3.4580
   32.610    3.6159
   32.625    3.3175
   32.640    3.3526
   32.655    3.2473
   32.670    3.4931
   32.685    3.4404
   32.700    3.4229
   32.715    3.5106
   32.730    3.4755
   32.745    3.6335
   32.760    3.5282
   32.775    3.9846
   32.790    3.7388
   32.805    3.3351
   32.820    3.3000
   32.835    3.3526
   32.850    3.0718
   32.865    3.8090
   32.880    3.5457
   32.895    3.6510
   32.910    3.5633
   32.925    3.6510
   32.940    3.6862
   32.955    4.0372
   32.970    3.8441
   32.985    3.7037
   33.000    3.6686
   33.015    3.2649
   33.030    3.3877
   33.045    3.0893
   33.060    3.4229
   33.075    3.5282
   33.090    3.5633
   33.105    3.4053
   33.120    3.5457
   33.135    3.4229
   33.150    3.1596
   33.165    3.0893
   33.180    2.9665
   33.195    3.3000
   33.210    3.5808
   33.225    3.6686
   33.240    3.5984
   33.255    3.7213
   33.270    3.3877
   33.285    3.3877
   33.300    3.6862
   33.315    3.5282
   33.330    3.2649
   33.345    3.3000
   33.360    3.1245
   33.375    3.1771
   33.390    3.8090
   33.405    3.5633
   33.420    3.1771
   33.435    3.4229
   33.450    3.1771
   33.465    2.9665
   33.480    3.2473
   33.495    3.6686
   33.510    3.5808
   33.525    3.3877
   33.540    3.5282
   33.555    3.3526
   33.570    3.1947
   33.585    2.9840
   33.600    3.2649
   33.615    3.3175
   33.630    3.4580
   33.645    3.2824
   33.660    3.7037
   33.675    3.7564
   33.690    3.1245
   33.705    3.4053
   33.720    3.5457
   33.735    3.3351
   33.750    3.5984
   33.765    3.3702
   33.780    3.3877
   33.795    3.5457
   33.810    3.1947
   33.825    3.2473
   33.840    3.6335
   33.855    3.3877
   33.870    3.7213
   33.885    4.0723
   33.900    3.8266
   33.915    3.8968
   33.930    4.0372
   33.945    4.0021
   33.960    3.8266
   33.975    3.7915
   33.990    3.4580
   34.005    3.5633
   34.020    3.2824
   34.035    3.1420
   34.050    3.6335
   34.065    3.5106
   34.080    3.3175
   34.095    3.3702
   34.110    3.1069
   34.125    3.4755
   34.140    3.5808
   34.155    3.3526
   34.170    3.1947
   34.185    3.3351
   34.200    3.2122
   34.215    3.2824
   34.230    3.3175
   34.245    3.1245
   34.260    3.0893
   34.275    3.2122
   34.290    3.2649
   34.305    3.2649
   34.320    3.5633
   34.335    3.8441
   34.350    3.3351
   34.365    3.2824
   34.380    3.2649
   34.395    3.5633
   34.410    3.6335
   34.425    3.7564
   34.440    3.2649
   34.455    3.5457
   34.470    3.3702
   34.485    3.4053
   34.500    3.6159
   34.515    3.2649
   34.530    3.2122
   34.545    3.3000
   34.560    3.3877
   34.575    3.3000
   34.590    3.4053
   34.605    3.2122
   34.620    3.7388
   34.635    3.4229
   34.650    3.5808
   34.665    3.1420
   34.680    3.4580
   34.695    3.6335
   34.710    3.2473
   34.725    3.4053
   34.740    3.2473
   34.755    3.3877
   34.770    3.2473
   34.785    3.4404
   34.800    3.5457
   34.815    3.2649
   34.830    3.2122
   34.845    3.6862
   34.860    3.8792
   34.875    3.6686
   34.890    3.8617
   34.905    3.6159
   34.920    3.7037
   34.935    3.4580
   34.950    3.2649
   34.965    3.5282
   34.980    3.5808
   34.995    3.4053
   35.010    3.4229
   35.025    3.4404
   35.040    3.1069
   35.055    3.4755
   35.070    3.3351
   35.085    3.5457
   35.100    3.3877
   35.115    3.4931
   35.130    3.3000
   35.145    3.3526
   35.160    3.4931
   35.175    3.7037
   35.190    3.1947
   35.205    2.9489
   35.220    3.2298
   35.235    3.1771
   35.250    3.3702
   35.265    3.4755
   35.280    3.4229
   35.295    3.3526
   35.310    3.5984
   35.325    3.2824
   35.340    3.2649
   35.355    3.5106
   35.370    3.7213
   35.385    3.7739
   35.400    3.5457
   35.415    3.4404
   35.430    3.6686
   35.445    3.5457
   35.460    3.4580
   35.475    3.4580
   35.490    3.7037
   35.505    3.7213
   35.520    3.1596
   35.535    3.0191
   35.550    3.3526
   35.565    3.2649
   35.580    3.7213
   35.595    2.9314
   35.610    3.1069
   35.625    3.3702
   35.640    3.3175
   35.655    3.1245
   35.670    3.5633
   35.685    3.3351
   35.700    3.3000
   35.715    3.1420
   35.730    3.1420
   35.745    3.4755
   35.760    3.3702
   35.775    3.2122
   35.790    3.4053
   35.805    3.7213
   35.820    3.3702
   35.835    3.4229
   35.850    3.3351
   35.865    3.3000
   35.880    3.5984
   35.895    3.2824
   35.910    3.1245
   35.925    3.3175
   35.940    3.1947
   35.955    3.3175
   35.970    3.6159
   35.985    3.5633
   36.000    3.6686
   36.015    3.4053
   36.030    3.4755
   36.045    3.4755
   36.060    3.6510
   36.075    3.1947
   36.090    3.1245
   36.105    3.1596
   36.120    3.5984
   36.135    3.3877
   36.150    3.4229
   36.165    3.3702
   36.180    3.7213
   36.195    3.4229
   36.210    3.4404
   36.225    3.5106
   36.240    3.6510
   36.255    3.7564
   36.270    3.6159
   36.285    3.8617
   36.300    3.5633
   36.315    3.7564
   36.330    3.4229
   36.345    3.5984
   36.360    3.5106
   36.375    3.0542
   36.390    3.2122
   36.405    3.2122
   36.420    2.9665
   36.435    3.0542
   36.450    3.3175
   36.465    3.3702
   36.480    3.2824
   36.495    3.4053
   36.510    3.4755
   36.525    3.4229
   36.540    3.0893
   36.555    3.5984
   36.570    3.3702
   36.585    3.2473
   36.600    3.6335
   36.615    3.5282
   36.630    3.3877
   36.645    3.8266
   36.660    3.3702
   36.675    3.3351
   36.690    3.5457
   36.705    3.6159
   36.720    3.7037
   36.735    3.4931
   36.750    3.3175
   36.765    3.1947
   36.780    3.2649
   36.795    3.2649
   36.810    3.1069
   36.825    3.4053
   36.840    3.2473
   36.855    3.2122
   36.870    3.3526
   36.885    3.2649
   36.900    3.2649
   36.915    3.7564
   36.930    3.3526
   36.945    3.5984
   36.960    3.1771
   36.975    3.1069
   36.990    3.1771
   37.005    3.5282
   37.020    3.3877
   37.035    3.4229
   37.050    3.2298
   37.065    3.5984
   37.080    3.7915
   37.095    3.7739
   37.110    4.0372
   37.125    3.6862
   37.140    3.5808
   37.155    3.8792
   37.170    3.4229
   37.185    3.3702
   37.200    3.4053
   37.215    3.1420
   37.230    3.1596
   37.245    3.4053
   37.260    3.5457
   37.275    3.1420
   37.290    3.0367
   37.305    3.3702
   37.320    3.3351
   37.335    3.0718
   37.350    3.6335
   37.365    3.6335
   37.380    3.1771
   37.395    3.2649
   37.410    3.4580
   37.425    3.2824
   37.440    2.9840
   37.455    2.9314
   37.470    3.1947
   37.485    3.1245
   37.500    3.2473
   37.515    3.1245
   37.530    3.1069
   37.545    3.2824
   37.560    3.2473
   37.575    3.1771
   37.590    3.3351
   37.605    3.6159
   37.620    3.0016
   37.635    3.0191
   37.650    3.3000
   37.665    3.3175
   37.680    3.2122
   37.695    3.0718
   37.710    3.4053
   37.725    3.0191
   37.740    2.9314
   37.755    3.0718
   37.770    3.1420
   37.785    3.4580
   37.800    3.0542
   37.815    3.4053
   37.830    3.4755
   37.845    3.3000
   37.860    3.0718
   37.875    3.2824
   37.890    3.3702
   37.905    3.4053
   37.920    3.1771
   37.935    2.9314
   37.950    3.2824
   37.965    3.3877
   37.980    3.5282
   37.995    3.6159
   38.010    3.5106
   38.025    3.0893
   38.040    3.4580
   38.055    3.3175
   38.070    3.4755
   38.085    3.0718
   38.100    3.2824
   38.115    3.1771
   38.130    3.3526
   38.145    3.4931
   38.160    3.5808
   38.175    3.0718
   38.190    3.1596
   38.205    3.1596
   38.220    3.0718
   38.235    3.1947
   38.250    2.9665
   38.265    3.2298
   38.280    3.0191
   38.295    2.8612
   38.310    3.1771
   38.325    3.5457
   38.340    3.4229
   38.355    3.0542
   38.370    2.9489
   38.385    3.3351
   38.400    3.3000
   38.415    3.0016
   38.430    3.1947
   38.445    3.4229
   38.460    3.5984
   38.475    3.4404
   38.490    3.3702
   38.505    3.5633
   38.520    3.5984
   38.535    3.3000
   38.550    3.0016
   38.565    3.1420
   38.580    3.1420
   38.595    3.1771
   38.610    3.3877
   38.625    3.0542
   38.640    2.9314
   38.655    3.0016
   38.670    3.0367
   38.685    3.1245
   38.700    3.6335
   38.715    3.1245
   38.730    3.1596
   38.745    3.1420
   38.760    3.2824
   38.775    3.1420
   38.790    3.1245
   38.805    2.9840
   38.820    3.1596
   38.835    2.9314
   38.850    3.0542
   38.865    3.1069
   38.880    3.0542
   38.895    2.9314
   38.910    3.1069
   38.925    2.9314
   38.940    2.9840
   38.955    2.7383
   38.970    2.9665
   38.985    2.8787
   39.000    3.3702
   39.015    3.0191
   39.030    3.0542
   39.045    3.2122
   39.060    3.2824
   39.075    2.8963
   39.090    2.8787
   39.105    3.3000
   39.120    3.2122
   39.135    3.2473
   39.150    3.2473
   39.165    3.0191
   39.180    3.0893
   39.195    3.0191
   39.210    2.9840
   39.225    3.4229
   39.240    3.0718
   39.255    3.1947
   39.270    3.3000
   39.285    3.1420
   39.300    2.9665
   39.315    3.0718
   39.330    3.1596
   39.345    3.4404
   39.360    3.0893
   39.375    3.3702
   39.390    3.0893
   39.405    3.0893
   39.420    3.0893
   39.435    3.4404
   39.450    3.3877
   39.465    3.1596
   39.480    3.1069
   39.495    3.1420
   39.510    3.2824
   39.525    3.0367
   39.540    2.8963
   39.555    2.8436
   39.570    3.0367
   39.585    3.3351
   39.600    3.2122
   39.615    3.1947
   39.630    3.1420
   39.645    2.8085
   39.660    3.2473
   39.675    3.0718
   39.690    3.4755
   39.705    3.4053
   39.720    3.1771
   39.735    3.3351
   39.750    3.0367
   39.765    3.3000
   39.780    3.1420
   39.795    3.1245
   39.810    3.2824
   39.825    2.9489
   39.840    3.0016
   39.855    3.1771
   39.870    2.9840
   39.885    2.9314
   39.900    2.9665
   39.915    2.8787
   39.930    2.8787
   39.945    2.9665
   39.960    3.3000
   39.975    3.1069
   39.990    2.9840
