    1.500   16.6614
    1.515   16.5982
    1.530   16.7246
    1.545   17.5355
    1.560   17.3565
    1.575   16.1769
    1.590   16.2928
    1.605   16.4613
    1.620   16.3244
    1.635   15.7662
    1.650   15.5134
    1.665   16.1348
    1.680   16.2296
    1.695   16.1559
    1.710   15.9347
    1.725   15.5029
    1.740   15.5556
    1.755   15.5661
    1.770   15.1659
    1.785   15.1553
    1.800   15.4608
    1.815   15.2185
    1.830   15.5872
    1.845   15.2923
    1.860   14.9868
    1.875   14.5866
    1.890   14.4602
    1.905   14.7130
    1.920   14.8183
    1.935   15.5556
    1.950   14.8710
    1.965   14.3971
    1.980   15.4397
    1.995   15.3449
    2.010   15.1553
    2.025   14.6814
    2.040   15.1237
    2.055   15.0711
    2.070   15.1132
    2.085   14.4918
    2.100   14.8289
    2.115   14.4286
    2.130   14.7130
    2.145   15.4397
    2.160   15.2396
    2.175   15.4608
    2.190   15.4081
    2.205   15.8189
    2.220   15.9979
    2.235   15.8926
    2.250   15.8083
    2.265   16.0084
    2.280   15.8504
    2.295   15.9136
    2.310   16.1875
    2.325   16.0084
    2.340   16.6193
    2.355   16.5561
    2.370   16.4929
    2.385   16.3981
    2.400   16.3876
    2.415   17.3565
    2.430   17.2617
    2.445   18.1148
    2.460   17.4092
    2.475   17.8199
    2.490   18.0411
    2.505   18.6309
    2.520   19.5155
    2.535   19.2944
    2.550   19.4418
    2.565   19.8842
    2.580   19.4418
    2.595   19.9789
    2.610   20.4213
    2.625   20.5898
    2.640   21.7378
    2.655   21.2428
    2.670   21.9063
    2.685   22.4855
    2.700   22.9489
    2.715   23.5914
    2.730   23.6230
    2.745   23.4966
    2.760   24.9605
    2.775   25.2659
    2.790   25.6240
    2.805   26.0979
    2.820   26.3507
    2.835   27.0037
    2.850   28.6572
    2.865   28.5413
    2.880   29.8789
    2.895   30.8162
    2.910   30.7952
    2.925   31.6272
    2.940   32.2486
    2.955   33.5650
    2.970   34.3865
    2.985   35.3555
    3.000   36.1664
    3.015   37.7567
    3.030   39.4734
    3.045   40.1896
    3.060   41.5061
    3.075   42.5382
    3.090   43.2122
    3.105   46.1401
    3.120   46.6772
    3.135   49.2786
    3.150   51.5745
    3.165   53.5229
    3.180   55.4818
    3.195   57.6830
    3.210   60.1896
    3.225   62.6435
    3.240   64.1706
    3.255   67.4987
    3.270   71.6904
    3.285   75.7241
    3.300   79.2101
    3.315   84.5287
    3.330   89.1943
    3.345   92.6277
    3.360   98.9995
    3.375  107.5513
    3.390  115.3660
    3.405  121.5482
    3.420  129.2048
    3.435  135.3449
    3.450  139.9368
    3.465  138.7256
    3.480  133.0490
    3.495  121.7799
    3.510  107.5724
    3.525   89.4997
    3.540   78.5571
    3.555   65.3818
    3.570   58.1148
    3.585   52.1011
    3.600   47.4987
    3.615   44.0232
    3.630   42.4645
    3.645   40.7162
    3.660   40.6424
    3.675   40.5055
    3.690   39.8210
    3.705   41.0216
    3.720   41.0216
    3.735   41.7272
    3.750   42.7067
    3.765   43.8231
    3.780   43.8125
    3.795   45.2765
    3.810   46.3086
    3.825   47.2565
    3.840   48.3412
    3.855   50.1422
    3.870   51.4481
    3.885   53.0700
    3.900   54.4286
    3.915   55.1132
    3.930   55.7873
    3.945   56.7457
    3.960   56.7141
    3.975   56.7141
    3.990   58.0095
    4.005   57.7041
    4.020   57.3144
    4.035   55.9452
    4.050   54.8710
    4.065   53.6809
    4.080   52.3223
    4.095   51.2796
    4.110   48.9416
    4.125   47.2459
    4.140   44.0548
    4.155   41.8641
    4.170   40.5582
    4.185   38.3360
    4.200   35.4397
    4.215   33.6914
    4.230   32.1011
    4.245   29.6577
    4.260   27.5303
    4.275   25.7925
    4.290   23.8652
    4.305   22.2328
    4.320   20.4845
    4.335   20.0737
    4.350   18.7362
    4.365   16.9563
    4.380   16.3770
    4.395   15.7451
    4.410   14.8289
    4.425   14.1443
    4.440   13.6388
    4.455   12.6277
    4.470   11.8694
    4.485   11.2480
    4.500   11.6272
    4.515   10.5213
    4.530   10.3739
    4.545    9.9105
    4.560    9.4155
    4.575    9.4997
    4.590    9.5945
    4.605    8.9205
    4.620    8.9837
    4.635    8.5203
    4.650    8.0779
    4.665    8.6256
    4.680    8.5729
    4.695    8.2675
    4.710    7.9621
    4.725    8.2043
    4.740    8.3307
    4.755    7.7093
    4.770    7.5408
    4.785    8.0990
    4.800    7.1827
    4.815    7.3723
    4.830    7.6988
    4.845    7.6567
    4.860    7.2565
    4.875    6.9826
    4.890    7.2775
    4.905    7.2670
    4.920    7.7725
    4.935    7.1827
    4.950    7.1406
    4.965    6.4771
    4.980    6.8457
    4.995    6.7930
    5.010    6.8562
    5.025    6.7404
    5.040    6.5508
    5.055    7.0879
    5.070    6.8984
    5.085    6.6772
    5.100    6.6561
    5.115    6.4034
    5.130    6.3823
    5.145    6.3296
    5.160    6.6667
    5.175    6.3612
    5.190    6.4350
    5.205    6.3718
    5.220    6.7193
    5.235    6.3507
    5.250    5.9821
    5.265    6.1927
    5.280    6.7825
    5.295    6.3718
    5.310    6.5508
    5.325    6.3718
    5.340    6.3718
    5.355    6.2243
    5.370    6.2454
    5.385    6.3718
    5.400    6.2454
    5.415    6.2138
    5.430    6.1190
    5.445    6.0242
    5.460    6.4350
    5.475    6.6772
    5.490    6.3612
    5.505    6.1822
    5.520    5.7820
    5.535    5.7504
    5.550    6.2033
    5.565    5.7820
    5.580    5.7609
    5.595    6.0242
    5.610    5.9400
    5.625    6.1927
    5.640    5.9189
    5.655    6.2454
    5.670    5.9926
    5.685    5.8978
    5.700    5.8978
    5.715    6.0453
    5.730    5.9294
    5.745    5.6240
    5.760    5.7715
    5.775    5.4239
    5.790    5.6451
    5.805    5.7609
    5.820    5.6029
    5.835    5.7293
    5.850    5.9505
    5.865    5.5608
    5.880    5.4344
    5.895    5.5924
    5.910    5.7504
    5.925    5.7399
    5.940    5.6029
    5.955    5.6556
    5.970    5.6029
    5.985    5.4976
    6.000    5.8241
    6.015    5.5503
    6.030    5.7188
    6.045    5.5819
    6.060    5.5608
    6.075    5.7188
    6.090    6.1506
    6.105    5.8241
    6.120    5.7293
    6.135    5.9294
    6.150    5.8662
    6.165    5.8768
    6.180    6.0558
    6.195    5.9716
    6.210    6.0874
    6.225    5.7715
    6.240    5.7609
    6.255    5.8557
    6.270    5.9084
    6.285    6.0032
    6.300    6.1717
    6.315    5.8241
    6.330    6.0979
    6.345    5.9400
    6.360    6.0558
    6.375    6.0137
    6.390    6.5298
    6.405    6.4876
    6.420    6.5192
    6.435    6.3823
    6.450    6.4560
    6.465    6.2033
    6.480    6.4455
    6.495    6.7404
    6.510    6.7404
    6.525    6.6983
    6.540    6.8562
    6.555    7.5197
    6.570    7.1090
    6.585    7.6145
    6.600    7.8462
    6.615    7.6356
    6.630    7.7409
    6.645    7.9516
    6.660    7.8462
    6.675    8.1938
    6.690    8.5940
    6.705    8.8468
    6.720    9.2470
    6.735    9.6998
    6.750    9.7736
    6.765   10.4581
    6.780   11.2480
    6.795   11.1427
    6.810   11.9642
    6.825   12.1327
    6.840   12.8805
    6.855   13.7441
    6.870   14.1022
    6.885   15.8820
    6.900   15.6819
    6.915   16.8720
    6.930   17.7146
    6.945   17.9568
    6.960   18.6835
    6.975   18.2517
    6.990   17.4934
    7.005   15.4924
    7.020   14.3233
    7.035   13.1648
    7.050   12.0590
    7.065   10.7636
    7.080    9.7630
    7.095    8.4466
    7.110    8.0358
    7.125    7.9094
    7.140    7.2670
    7.155    7.3196
    7.170    7.2670
    7.185    7.4250
    7.200    6.9194
    7.215    6.4244
    7.230    6.7299
    7.245    7.3407
    7.260    7.1933
    7.275    6.8773
    7.290    6.7825
    7.305    6.6351
    7.320    6.8457
    7.335    6.8246
    7.350    6.9300
    7.365    6.8984
    7.380    6.8562
    7.395    6.7299
    7.410    6.4034
    7.425    6.6035
    7.440    6.5087
    7.455    6.4350
    7.470    6.6667
    7.485    6.7193
    7.500    6.4455
    7.515    6.1927
    7.530    6.8036
    7.545    7.1195
    7.560    6.8141
    7.575    6.8036
    7.590    7.0563
    7.605    7.1617
    7.620    7.1301
    7.635    7.1827
    7.650    7.1933
    7.665    7.6461
    7.680    7.2249
    7.695    7.4250
    7.710    7.3723
    7.725    8.0042
    7.740    7.7409
    7.755    7.4987
    7.770    7.6883
    7.785    7.9410
    7.800    8.1306
    7.815    7.8357
    7.830    8.5835
    7.845    8.5624
    7.860    8.1938
    7.875    8.3834
    7.890    9.0258
    7.905    9.2996
    7.920    8.6467
    7.935    8.8678
    7.950    9.1417
    7.965    9.0995
    7.980    8.9942
    7.995    9.3734
    8.010    9.5419
    8.025    9.3734
    8.040   10.0790
    8.055    9.7314
    8.070    9.9105
    8.085    9.4576
    8.100    9.4892
    8.115    9.9947
    8.130    9.5524
    8.145    9.5103
    8.160    9.7420
    8.175    9.4365
    8.190    9.5524
    8.205    9.5208
    8.220    9.6051
    8.235    9.4260
    8.250    9.1311
    8.265    9.3839
    8.280    9.3418
    8.295    9.0679
    8.310    8.7520
    8.325    8.5624
    8.340    9.1943
    8.355    8.7520
    8.370    7.8146
    8.385    8.1727
    8.400    8.7520
    8.415    8.2464
    8.430    8.2675
    8.445    8.0674
    8.460    8.6045
    8.475    8.0147
    8.490    7.8884
    8.505    7.7830
    8.520    8.0358
    8.535    8.2886
    8.550    7.8884
    8.565    7.6461
    8.580    7.5724
    8.595    7.2143
    8.610    7.3407
    8.625    7.1301
    8.640    7.1195
    8.655    6.9089
    8.670    7.2354
    8.685    6.9510
    8.700    6.7299
    8.715    6.7720
    8.730    6.7088
    8.745    6.7088
    8.760    6.0137
    8.775    6.3507
    8.790    6.0664
    8.805    6.0874
    8.820    6.4034
    8.835    6.3928
    8.850    6.0664
    8.865    6.2875
    8.880    6.3086
    8.895    6.3086
    8.910    6.3191
    8.925    6.2349
    8.940    6.1190
    8.955    6.0769
    8.970    6.1506
    8.985    5.7609
    9.000    5.8136
    9.015    5.8136
    9.030    5.5292
    9.045    5.3923
    9.060    5.3712
    9.075    5.8136
    9.090    5.7188
    9.105    5.4871
    9.120    5.4766
    9.135    5.7609
    9.150    5.5608
    9.165    5.6872
    9.180    5.9084
    9.195    5.6345
    9.210    5.7293
    9.225    5.7715
    9.240    5.9505
    9.255    5.9294
    9.270    5.6345
    9.285    5.6451
    9.300    5.7820
    9.315    5.6872
    9.330    5.6661
    9.345    5.7188
    9.360    5.5398
    9.375    5.6029
    9.390    5.6661
    9.405    5.7399
    9.420    5.8768
    9.435    5.6135
    9.450    5.5714
    9.465    5.3923
    9.480    5.6661
    9.495    5.3923
    9.510    5.3081
    9.525    5.1080
    9.540    4.9921
    9.555    5.4766
    9.570    5.6977
    9.585    5.7188
    9.600    5.5714
    9.615    5.5082
    9.630    5.3186
    9.645    5.2133
    9.660    5.1395
    9.675    5.5503
    9.690    5.4344
    9.705    5.2975
    9.720    5.2449
    9.735    5.4134
    9.750    5.7925
    9.765    5.5714
    9.780    5.4976
    9.795    5.3712
    9.810    5.3818
    9.825    5.3818
    9.840    5.2870
    9.855    5.5819
    9.870    5.2975
    9.885    5.1395
    9.900    5.4766
    9.915    5.3712
    9.930    5.4028
    9.945    5.3397
    9.960    5.2343
    9.975    5.3502
    9.990    5.4134
   10.005    5.6767
   10.020    5.5503
   10.035    5.7399
   10.050    5.4134
   10.065    5.1606
   10.080    5.5398
   10.095    5.7609
   10.110    5.7188
   10.125    5.7715
   10.140    5.6240
   10.155    5.6661
   10.170    5.4660
   10.185    5.5608
   10.200    5.5292
   10.215    5.4555
   10.230    5.6977
   10.245    5.3923
   10.260    5.8662
   10.275    5.6029
   10.290    5.5714
   10.305    5.8768
   10.320    5.7399
   10.335    5.7083
   10.350    6.1822
   10.365    6.2138
   10.380    6.1822
   10.395    6.2875
   10.410    6.3191
   10.425    6.3612
   10.440    6.6561
   10.455    6.5508
   10.470    6.4244
   10.485    6.4455
   10.500    6.4139
   10.515    6.4139
   10.530    6.0032
   10.545    6.2349
   10.560    5.6977
   10.575    5.7609
   10.590    5.7715
   10.605    5.5082
   10.620    5.6872
   10.635    5.1817
   10.650    5.3186
   10.665    5.2870
   10.680    5.2554
   10.695    6.1927
   10.710    5.6135
   10.725    5.4555
   10.740    5.2133
   10.755    5.4028
   10.770    5.3923
   10.785    5.4344
   10.800    5.6977
   10.815    5.7293
   10.830    5.4239
   10.845    5.4660
   10.860    5.1395
   10.875    5.4766
   10.890    5.5292
   10.905    5.4555
   10.920    5.5292
   10.935    5.3607
   10.950    5.3186
   10.965    5.2975
   10.980    5.5187
   10.995    5.6345
   11.010    5.7504
   11.025    5.6767
   11.040    5.4555
   11.055    5.1395
   11.070    5.2765
   11.085    5.5714
   11.100    5.3081
   11.115    5.5398
   11.130    5.5924
   11.145    5.2765
   11.160    5.2765
   11.175    5.7820
   11.190    5.7820
   11.205    5.1395
   11.220    5.4450
   11.235    5.1922
   11.250    5.1606
   11.265    5.5608
   11.280    5.4660
   11.295    5.4871
   11.310    5.5187
   11.325    5.5187
   11.340    4.9289
   11.355    5.1606
   11.370    5.5714
   11.385    5.5503
   11.400    5.4660
   11.415    5.4871
   11.430    5.4555
   11.445    5.4871
   11.460    5.5503
   11.475    5.7399
   11.490    5.8768
   11.505    5.6661
   11.520    5.6451
   11.535    5.4239
   11.550    5.5503
   11.565    5.7715
   11.580    5.7083
   11.595    5.7399
   11.610    5.5714
   11.625    6.0348
   11.640    5.6556
   11.655    5.6029
   11.670    5.5503
   11.685    5.3923
   11.700    5.4766
   11.715    5.7293
   11.730    5.7925
   11.745    5.7609
   11.760    5.8031
   11.775    5.7399
   11.790    5.8241
   11.805    5.8136
   11.820    5.6029
   11.835    5.9400
   11.850    6.2138
   11.865    6.2033
   11.880    5.7293
   11.895    5.7925
   11.910    5.5608
   11.925    5.6872
   11.940    5.9400
   11.955    5.8347
   11.970    5.8452
   11.985    5.6029
   12.000    5.7820
   12.015    5.7715
   12.030    5.8978
   12.045    5.7399
   12.060    6.0348
   12.075    5.8452
   12.090    6.2349
   12.105    6.0242
   12.120    6.0664
   12.135    5.9716
   12.150    5.6872
   12.165    5.6977
   12.180    5.6872
   12.195    5.9400
   12.210    5.9716
   12.225    5.6556
   12.240    6.1401
   12.255    6.0348
   12.270    5.8873
   12.285    5.8978
   12.300    6.2981
   12.315    6.0137
   12.330    6.1717
   12.345    6.0137
   12.360    5.8768
   12.375    5.9294
   12.390    5.9400
   12.405    5.8768
   12.420    5.7399
   12.435    5.8768
   12.450    6.1506
   12.465    6.1927
   12.480    5.9084
   12.495    5.7188
   12.510    5.6661
   12.525    5.4766
   12.540    5.8347
   12.555    5.9400
   12.570    6.1085
   12.585    5.9189
   12.600    5.4028
   12.615    5.7188
   12.630    6.1927
   12.645    5.8662
   12.660    5.9610
   12.675    5.8873
   12.690    6.0242
   12.705    5.9189
   12.720    6.0242
   12.735    5.7609
   12.750    6.0137
   12.765    6.0769
   12.780    5.7083
   12.795    5.5187
   12.810    5.8768
   12.825    5.6135
   12.840    5.6661
   12.855    5.8031
   12.870    5.8136
   12.885    5.7820
   12.900    5.9821
   12.915    5.8557
   12.930    5.5292
   12.945    5.8557
   12.960    5.6556
   12.975    6.0348
   12.990    5.7820
   13.005    5.5714
   13.020    5.2870
   13.035    5.6872
   13.050    5.8452
   13.065    5.6767
   13.080    5.7083
   13.095    5.8768
   13.110    5.7399
   13.125    5.6135
   13.140    5.3923
   13.155    6.0032
   13.170    5.8241
   13.185    5.4766
   13.200    5.8873
   13.215    6.1085
   13.230    6.0769
   13.245    5.7188
   13.260    5.6872
   13.275    5.6029
   13.290    5.7293
   13.305    5.8452
   13.320    5.1185
   13.335    5.6661
   13.350    5.6451
   13.365    5.8136
   13.380    5.6029
   13.395    5.8662
   13.410    5.7925
   13.425    5.6135
   13.440    5.2870
   13.455    5.6977
   13.470    5.8557
   13.485    5.1606
   13.500    5.4976
   13.515    5.5082
   13.530    5.5398
   13.545    5.8347
   13.560    5.6451
   13.575    5.6029
   13.590    5.7188
   13.605    5.5924
   13.620    5.5503
   13.635    5.7925
   13.650    5.6661
   13.665    5.4344
   13.680    5.5819
   13.695    5.4976
   13.710    5.6767
   13.725    5.7504
   13.740    5.7504
   13.755    5.6029
   13.770    5.9189
   13.785    5.6556
   13.800    5.5398
   13.815    5.7083
   13.830    5.5292
   13.845    5.4450
   13.860    5.6451
   13.875    5.2343
   13.890    5.8978
   13.905    5.7609
   13.920    5.6135
   13.935    5.4976
   13.950    5.5819
   13.965    5.4344
   13.980    5.5292
   13.995    5.5924
   14.010    5.5503
   14.025    5.4344
   14.040    5.3291
   14.055    5.4976
   14.070    5.2975
   14.085    5.4976
   14.100    5.3818
   14.115    5.4766
   14.130    5.6767
   14.145    5.1080
   14.160    4.9816
   14.175    5.2870
   14.190    5.3081
   14.205    5.6029
   14.220    5.6767
   14.235    5.5503
   14.250    5.3818
   14.265    5.3502
   14.280    5.4660
   14.295    5.7609
   14.310    5.5819
   14.325    5.2554
   14.340    5.0658
   14.355    4.9921
   14.370    5.4871
   14.385    5.4555
   14.400    5.5714
   14.415    5.5924
   14.430    5.3186
   14.445    5.2343
   14.460    5.0974
   14.475    5.1185
   14.490    5.4976
   14.505    5.4134
   14.520    5.2765
   14.535    5.3397
   14.550    5.8768
   14.565    4.9921
   14.580    4.7815
   14.595    5.1711
   14.610    5.3712
   14.625    5.5819
   14.640    5.4976
   14.655    5.2449
   14.670    5.2133
   14.685    5.2765
   14.700    5.4555
   14.715    5.2027
   14.730    5.1501
   14.745    5.2027
   14.760    5.2554
   14.775    5.2975
   14.790    5.3081
   14.805    4.7920
   14.820    5.5608
   14.835    5.4976
   14.850    5.1080
   14.865    5.1711
   14.880    5.2238
   14.895    5.3712
   14.910    5.4976
   14.925    5.3607
   14.940    5.2659
   14.955    5.3291
   14.970    5.6240
   14.985    5.3186
   15.000    5.2238
   15.015    5.3397
   15.030    5.3818
   15.045    5.0448
   15.060    5.1817
   15.075    5.4555
   15.090    5.1817
   15.105    5.2133
   15.120    5.2554
   15.135    5.5714
   15.150    5.2870
   15.165    5.4134
   15.180    5.4450
   15.195    5.2449
   15.210    5.1711
   15.225    5.4028
   15.240    5.5082
   15.255    5.3186
   15.270    5.3818
   15.285    5.3923
   15.300    5.3923
   15.315    5.3607
   15.330    5.3291
   15.345    5.2765
   15.360    5.3607
   15.375    5.4239
   15.390    5.3186
   15.405    5.4239
   15.420    5.4239
   15.435    5.2870
   15.450    5.3081
   15.465    5.1711
   15.480    5.3607
   15.495    5.6135
   15.510    5.3502
   15.525    5.4555
   15.540    5.5819
   15.555    5.3923
   15.570    5.2765
   15.585    5.2975
   15.600    5.0974
   15.615    5.0237
   15.630    5.3923
   15.645    5.4028
   15.660    5.2975
   15.675    5.3502
   15.690    5.2870
   15.705    5.2554
   15.720    5.4976
   15.735    5.5082
   15.750    5.5608
   15.765    5.3397
   15.780    5.1711
   15.795    5.2133
   15.810    5.3923
   15.825    5.3818
   15.840    5.5924
   15.855    5.0869
   15.870    4.7499
   15.885    5.2027
   15.900    5.0764
   15.915    5.5398
   15.930    5.3397
   15.945    5.2027
   15.960    5.3923
   15.975    5.6135
   15.990    5.7083
   16.005    5.4555
   16.020    5.4028
   16.035    5.3923
   16.050    5.2133
   16.065    5.3397
   16.080    5.3923
   16.095    5.3818
   16.110    5.6135
   16.125    5.5398
   16.140    5.4134
   16.155    5.4028
   16.170    5.6661
   16.185    5.5187
   16.200    5.6872
   16.215    5.4555
   16.230    5.5292
   16.245    5.8452
   16.260    5.3186
   16.275    5.2449
   16.290    5.2133
   16.305    5.4766
   16.320    5.2870
   16.335    5.3923
   16.350    5.1817
   16.365    5.6661
   16.380    5.4660
   16.395    5.3818
   16.410    5.3712
   16.425    5.2870
   16.440    5.5503
   16.455    5.3607
   16.470    4.9710
   16.485    5.4239
   16.500    5.3712
   16.515    5.5608
   16.530    5.4239
   16.545    5.6240
   16.560    5.4028
   16.575    5.0132
   16.590    5.3291
   16.605    5.2133
   16.620    5.0869
   16.635    5.0342
   16.650    5.3502
   16.665    5.3397
   16.680    5.4766
   16.695    5.1922
   16.710    5.4871
   16.725    5.7925
   16.740    5.3291
   16.755    5.2870
   16.770    5.0553
   16.785    5.0553
   16.800    5.3502
   16.815    5.4555
   16.830    5.4450
   16.845    5.4344
   16.860    5.4344
   16.875    5.2765
   16.890    5.0553
   16.905    5.4555
   16.920    5.3291
   16.935    5.3923
   16.950    5.3186
   16.965    5.1817
   16.980    5.2765
   16.995    5.0658
   17.010    5.3502
   17.025    5.2659
   17.040    5.0869
   17.055    5.3186
   17.070    5.3502
   17.085    5.3923
   17.100    5.3186
   17.115    4.9605
   17.130    5.5292
   17.145    5.1290
   17.160    4.8973
   17.175    4.9289
   17.190    5.2133
   17.205    5.2238
   17.220    5.0764
   17.235    5.1185
   17.250    5.6767
   17.265    5.7820
   17.280    5.2975
   17.295    5.5187
   17.310    5.5924
   17.325    5.5819
   17.340    5.2027
   17.355    5.1922
   17.370    5.3081
   17.385    5.6767
   17.400    5.4028
   17.415    5.3607
   17.430    5.3607
   17.445    5.4344
   17.460    5.0132
   17.475    5.1922
   17.490    5.5292
   17.505    5.3081
   17.520    5.6240
   17.535    5.6345
   17.550    5.1922
   17.565    5.6240
   17.580    5.8557
   17.595    5.1922
   17.610    5.4871
   17.625    5.5714
   17.640    5.2975
   17.655    5.0974
   17.670    5.1606
   17.685    5.3607
   17.700    5.3923
   17.715    5.3923
   17.730    5.1501
   17.745    5.5714
   17.760    5.1606
   17.775    5.5082
   17.790    5.4344
   17.805    5.3081
   17.820    5.5714
   17.835    5.8662
   17.850    5.3502
   17.865    5.3291
   17.880    5.5292
   17.895    5.2765
   17.910    5.2343
   17.925    5.2554
   17.940    5.1395
   17.955    5.6240
   17.970    5.2449
   17.985    5.3923
   18.000    5.3502
   18.015    5.2659
   18.030    5.1080
   18.045    5.6345
   18.060    5.8347
   18.075    5.5292
   18.090    5.3818
   18.105    5.6135
   18.120    5.4871
   18.135    5.2659
   18.150    5.4344
   18.165    5.1922
   18.180    5.3502
   18.195    4.6761
   18.210    5.2133
   18.225    5.3291
   18.240    5.5608
   18.255    5.5398
   18.270    5.7399
   18.285    5.6135
   18.300    5.1395
   18.315    5.0026
   18.330    5.1606
   18.345    5.4028
   18.360    5.4871
   18.375    5.3291
   18.390    5.2133
   18.405    5.8557
   18.420    5.7293
   18.435    5.4871
   18.450    5.5608
   18.465    5.5082
   18.480    5.0869
   18.495    5.2765
   18.510    5.5608
   18.525    5.5924
   18.540    5.6556
   18.555    5.6767
   18.570    5.4450
   18.585    5.1080
   18.600    5.3818
   18.615    5.6661
   18.630    5.6977
   18.645    5.2238
   18.660    5.4766
   18.675    5.4134
   18.690    5.2659
   18.705    5.0342
   18.720    5.2343
   18.735    5.6345
   18.750    5.7715
   18.765    5.5714
   18.780    5.4450
   18.795    5.2870
   18.810    5.7925
   18.825    5.7083
   18.840    5.8768
   18.855    5.5398
   18.870    5.5819
   18.885    5.6451
   18.900    5.8136
   18.915    5.6872
   18.930    5.4028
   18.945    5.8136
   18.960    5.9400
   18.975    6.1085
   18.990    5.9926
   19.005    5.6451
   19.020    5.5714
   19.035    5.7715
   19.050    5.4555
   19.065    5.6977
   19.080    5.4766
   19.095    5.3818
   19.110    5.4134
   19.125    5.0553
   19.140    5.0869
   19.155    5.4239
   19.170    5.6135
   19.185    5.5608
   19.200    5.6767
   19.215    5.3291
   19.230    5.7399
   19.245    5.7083
   19.260    5.9294
   19.275    5.5187
   19.290    5.7399
   19.305    5.6135
   19.320    5.3291
   19.335    5.4134
   19.350    5.5924
   19.365    5.6767
   19.380    5.6872
   19.395    5.9294
   19.410    5.5503
   19.425    5.5608
   19.440    5.6661
   19.455    5.8662
   19.470    6.1190
   19.485    5.8136
   19.500    6.0453
   19.515    5.9716
   19.530    5.8031
   19.545    5.5608
   19.560    5.8452
   19.575    5.9505
   19.590    5.4344
   19.605    5.8662
   19.620    5.9294
   19.635    5.9189
   19.650    6.0348
   19.665    5.8452
   19.680    6.0453
   19.695    6.0242
   19.710    6.0979
   19.725    6.0979
   19.740    5.9084
   19.755    6.0769
   19.770    6.1190
   19.785    5.9400
   19.800    6.2243
   19.815    6.1295
   19.830    6.0242
   19.845    6.0664
   19.860    5.9505
   19.875    5.7925
   19.890    5.7715
   19.905    6.3086
   19.920    6.0137
   19.935    6.2665
   19.950    5.9716
   19.965    6.1822
   19.980    5.9505
   19.995    5.9926
   20.010    5.8873
   20.025    6.1401
   20.040    6.2138
   20.055    5.9189
   20.070    6.4034
   20.085    6.1295
   20.100    6.1822
   20.115    5.8873
   20.130    5.8873
   20.145    5.8136
   20.160    6.1085
   20.175    6.1506
   20.190    5.7293
   20.205    6.2138
   20.220    5.9189
   20.235    5.7399
   20.250    5.7083
   20.265    5.9610
   20.280    5.8241
   20.295    5.8557
   20.310    5.9084
   20.325    5.8557
   20.340    6.2138
   20.355    6.2349
   20.370    5.8241
   20.385    5.7504
   20.400    5.8873
   20.415    5.9505
   20.430    5.9610
   20.445    5.9189
   20.460    5.7925
   20.475    6.0874
   20.490    6.1085
   20.505    6.1611
   20.520    5.9926
   20.535    5.8768
   20.550    6.0242
   20.565    6.2138
   20.580    6.2559
   20.595    6.1401
   20.610    5.8031
   20.625    5.8662
   20.640    6.1611
   20.655    6.1611
   20.670    5.9610
   20.685    5.9189
   20.700    5.8557
   20.715    5.9084
   20.730    5.8873
   20.745    6.1190
   20.760    5.7925
   20.775    5.5608
   20.790    5.7293
   20.805    6.0242
   20.820    5.8557
   20.835    5.9926
   20.850    6.0979
   20.865    6.2138
   20.880    6.3402
   20.895    6.2559
   20.910    6.0348
   20.925    5.8347
   20.940    6.0979
   20.955    6.0242
   20.970    5.6345
   20.985    6.0664
   21.000    6.1611
   21.015    5.9821
   21.030    5.9505
   21.045    5.8768
   21.060    6.2243
   21.075    6.0348
   21.090    6.1295
   21.105    6.1506
   21.120    6.2875
   21.135    5.9926
   21.150    6.3823
   21.165    6.5403
   21.180    6.0453
   21.195    5.6556
   21.210    5.7504
   21.225    5.7609
   21.240    5.9189
   21.255    6.0979
   21.270    6.2770
   21.285    5.8347
   21.300    5.7715
   21.315    5.9926
   21.330    6.3296
   21.345    6.3296
   21.360    5.9294
   21.375    5.7293
   21.390    6.0453
   21.405    6.0874
   21.420    5.7504
   21.435    5.8768
   21.450    5.8241
   21.465    5.9294
   21.480    5.5819
   21.495    6.2770
   21.510    6.3612
   21.525    6.0769
   21.540    6.1401
   21.555    5.9610
   21.570    5.5714
   21.585    5.8662
   21.600    5.6451
   21.615    5.9610
   21.630    6.1295
   21.645    5.8662
   21.660    5.8452
   21.675    5.9189
   21.690    5.8557
   21.705    6.2665
   21.720    5.9505
   21.735    6.1190
   21.750    6.3612
   21.765    6.4666
   21.780    5.9610
   21.795    5.8662
   21.810    6.1190
   21.825    6.1085
   21.840    5.7399
   21.855    6.0664
   21.870    6.3086
   21.885    5.9821
   21.900    6.1190
   21.915    6.2770
   21.930    5.7820
   21.945    5.7715
   21.960    6.1717
   21.975    5.9400
   21.990    5.9294
   22.005    5.9084
   22.020    6.0348
   22.035    5.9400
   22.050    5.4766
   22.065    5.9821
   22.080    6.2559
   22.095    5.4344
   22.110    6.0137
   22.125    6.0979
   22.140    5.6345
   22.155    5.7925
   22.170    6.0137
   22.185    5.9610
   22.200    6.0453
   22.215    6.1717
   22.230    5.9189
   22.245    5.9610
   22.260    6.2665
   22.275    5.7504
   22.290    5.6767
   22.305    5.9716
   22.320    5.8873
   22.335    6.1927
   22.350    6.0874
   22.365    6.0137
   22.380    5.8557
   22.395    5.9821
   22.410    5.6029
   22.425    5.7188
   22.440    6.0558
   22.455    6.1085
   22.470    5.8768
   22.485    5.9926
   22.500    5.4976
   22.515    5.8136
   22.530    5.7609
   22.545    6.2138
   22.560    6.1190
   22.575    5.9505
   22.590    5.4871
   22.605    6.1611
   22.620    6.1927
   22.635    6.1822
   22.650    5.9926
   22.665    6.0348
   22.680    6.0453
   22.695    5.8662
   22.710    6.3296
   22.725    5.8031
   22.740    5.8241
   22.755    6.1085
   22.770    6.2243
   22.785    6.0558
   22.800    6.0242
   22.815    5.9400
   22.830    6.0664
   22.845    5.6872
   22.860    5.8136
   22.875    6.0032
   22.890    6.1190
   22.905    5.8241
   22.920    5.7504
   22.935    5.8136
   22.950    6.1190
   22.965    6.2349
   22.980    5.8241
   22.995    5.8662
   23.010    5.8662
   23.025    5.6977
   23.040    6.0348
   23.055    6.1295
   23.070    5.8452
   23.085    5.7504
   23.100    6.0242
   23.115    6.3928
   23.130    6.5929
   23.145    6.0137
   23.160    6.0874
   23.175    5.9716
   23.190    6.2033
   23.205    5.9189
   23.220    6.0453
   23.235    6.0979
   23.250    5.8347
   23.265    5.5819
   23.280    5.6451
   23.295    5.7188
   23.310    5.8768
   23.325    5.8452
   23.340    5.7083
   23.355    6.0348
   23.370    5.7504
   23.385    6.2033
   23.400    5.7715
   23.415    5.9821
   23.430    5.8873
   23.445    5.8136
   23.460    5.8873
   23.475    5.7715
   23.490    5.6029
   23.505    5.5608
   23.520    5.4976
   23.535    5.9505
   23.550    5.8557
   23.565    6.2243
   23.580    5.9294
   23.595    5.6661
   23.610    5.8873
   23.625    5.6767
   23.640    5.5503
   23.655    5.7504
   23.670    5.7399
   23.685    5.8768
   23.700    5.9189
   23.715    5.7609
   23.730    5.6240
   23.745    6.0032
   23.760    5.8768
   23.775    6.1611
   23.790    5.8347
   23.805    5.4766
   23.820    5.6767
   23.835    5.9294
   23.850    5.6661
   23.865    5.6556
   23.880    5.4239
   23.895    5.7504
   23.910    5.6240
   23.925    5.5714
   23.940    5.6345
   23.955    5.5187
   23.970    5.7504
   23.985    5.3186
   24.000    5.4028
   24.015    5.7925
   24.030    5.8452
   24.045    5.6661
   24.060    5.7609
   24.075    5.5187
   24.090    5.6135
   24.105    5.6661
   24.120    5.4976
   24.135    5.8031
   24.150    5.8347
   24.165    5.4555
   24.180    5.4239
   24.195    5.6872
   24.210    5.8662
   24.225    5.3397
   24.240    5.5714
   24.255    5.6977
   24.270    5.5819
   24.285    5.8241
   24.300    5.4344
   24.315    5.5714
   24.330    5.7293
   24.345    5.7715
   24.360    5.7399
   24.375    5.8452
   24.390    5.4344
   24.405    5.1606
   24.420    5.5819
   24.435    5.5714
   24.450    5.8136
   24.465    5.8136
   24.480    5.8136
   24.495    5.6135
   24.510    5.5924
   24.525    5.6135
   24.540    6.0032
   24.555    5.8031
   24.570    5.4871
   24.585    5.6451
   24.600    5.7504
   24.615    5.6556
   24.630    5.7293
   24.645    6.2349
   24.660    5.8031
   24.675    5.6135
   24.690    5.7715
   24.705    5.5819
   24.720    5.6556
   24.735    5.5503
   24.750    6.0137
   24.765    5.7399
   24.780    5.6345
   24.795    5.4766
   24.810    5.7083
   24.825    5.7609
   24.840    5.9294
   24.855    5.2870
   24.870    5.2659
   24.885    5.4766
   24.900    5.4134
   24.915    5.5608
   24.930    5.4134
   24.945    5.7925
   24.960    5.6872
   24.975    5.7925
   24.990    5.6345
   25.005    5.5714
   25.020    5.4555
   25.035    5.2343
   25.050    5.2765
   25.065    4.8973
   25.080    5.0974
   25.095    5.1711
   25.110    5.2343
   25.125    5.4555
   25.140    5.2343
   25.155    5.1606
   25.170    5.4450
   25.185    5.3818
   25.200    5.4976
   25.215    5.6345
   25.230    5.8347
   25.245    5.4660
   25.260    4.8657
   25.275    5.4134
   25.290    5.6767
   25.305    5.4976
   25.320    5.3607
   25.335    5.6767
   25.350    5.6451
   25.365    5.3607
   25.380    5.2133
   25.395    5.1185
   25.410    5.1922
   25.425    5.2975
   25.440    5.4134
   25.455    5.8347
   25.470    5.8768
   25.485    5.7083
   25.500    5.6977
   25.515    5.5503
   25.530    5.4134
   25.545    5.2659
   25.560    5.2870
   25.575    5.1606
   25.590    5.3818
   25.605    4.9500
   25.620    5.1817
   25.635    5.4660
   25.650    5.4450
   25.665    5.3818
   25.680    5.1080
   25.695    5.3607
   25.710    5.6345
   25.725    4.9710
   25.740    5.3081
   25.755    5.0974
   25.770    5.5608
   25.785    5.6872
   25.800    5.3923
   25.815    5.4344
   25.830    5.3712
   25.845    5.1501
   25.860    4.9184
   25.875    5.1922
   25.890    5.2133
   25.905    5.4450
   25.920    5.1922
   25.935    5.1080
   25.950    5.2027
   25.965    5.4450
   25.980    5.1606
   25.995    5.2659
   26.010    5.4660
   26.025    5.2765
   26.040    5.2343
   26.055    5.2765
   26.070    5.0974
   26.085    5.2238
   26.100    5.2659
   26.115    4.9500
   26.130    5.1395
   26.145    5.2027
   26.160    5.0026
   26.175    5.5187
   26.190    5.3502
   26.205    5.2870
   26.220    5.3186
   26.235    5.1501
   26.250    4.9394
   26.265    5.1922
   26.280    4.9289
   26.295    5.1290
   26.310    4.8763
   26.325    4.8552
   26.340    5.2554
   26.355    5.4028
   26.370    5.4555
   26.385    5.2343
   26.400    5.3081
   26.415    5.4450
   26.430    5.4134
   26.445    5.1817
   26.460    5.0026
   26.475    4.9500
   26.490    5.3923
   26.505    5.3502
   26.520    5.3607
   26.535    4.9184
   26.550    4.9921
   26.565    5.3923
   26.580    5.4976
   26.595    5.4028
   26.610    4.9710
   26.625    5.3923
   26.640    5.0974
   26.655    5.2027
   26.670    5.2554
   26.685    4.9816
   26.700    5.0974
   26.715    5.3607
   26.730    5.0026
   26.745    5.1501
   26.760    5.2870
   26.775    4.7709
   26.790    5.0553
   26.805    5.3818
   26.820    5.0553
   26.835    5.4555
   26.850    4.8763
   26.865    5.1606
   26.880    5.0974
   26.895    5.2343
   26.910    4.9710
   26.925    4.8657
   26.940    5.2765
   26.955    5.0658
   26.970    5.2975
   26.985    5.4344
   27.000    5.0869
   27.015    5.2765
   27.030    4.9921
   27.045    5.2238
   27.060    5.2343
   27.075    4.8341
   27.090    5.1290
   27.105    5.1395
   27.120    5.1501
   27.135    5.2027
   27.150    5.0448
   27.165    5.0132
   27.180    5.0974
   27.195    4.9184
   27.210    5.0974
   27.225    5.4871
   27.240    5.2027
   27.255    4.8447
   27.270    5.2659
   27.285    5.3081
   27.300    4.8131
   27.315    4.5919
   27.330    5.5187
   27.345    5.2449
   27.360    5.2765
   27.375    5.2554
   27.390    5.1711
   27.405    5.1080
   27.420    4.7499
   27.435    5.0237
   27.450    4.8025
   27.465    4.6867
   27.480    5.2343
   27.495    5.4134
   27.510    5.0869
   27.525    4.9078
   27.540    4.7920
   27.555    4.9500
   27.570    5.2133
   27.585    5.2765
   27.600    5.1185
   27.615    5.4344
   27.630    5.3502
   27.645    5.0237
   27.660    5.1606
   27.675    4.8341
   27.690    5.0342
   27.705    5.0764
   27.720    4.9078
   27.735    4.7499
   27.750    4.9816
   27.765    5.1817
   27.780    5.0342
   27.795    4.7499
   27.810    4.5708
   27.825    4.8131
   27.840    5.3081
   27.855    5.0132
   27.870    4.9921
   27.885    5.1817
   27.900    5.2554
   27.915    5.0448
   27.930    5.1606
   27.945    5.2975
   27.960    5.4344
   27.975    5.2975
   27.990    5.3923
   28.005    5.0764
   28.020    5.0132
   28.035    5.4344
   28.050    5.1395
   28.065    5.2343
   28.080    5.2659
   28.095    5.1185
   28.110    5.3186
   28.125    5.0342
   28.140    5.0974
   28.155    5.1395
   28.170    5.1290
   28.185    5.0764
   28.200    5.3502
   28.215    5.2870
   28.230    5.2554
   28.245    5.4555
   28.260    5.4344
   28.275    5.1711
   28.290    5.2765
   28.305    4.9921
   28.320    5.2343
   28.335    5.0974
   28.350    5.3923
   28.365    4.7604
   28.380    4.7183
   28.395    5.3291
   28.410    5.4976
   28.425    5.1290
   28.440    5.1606
   28.455    5.1185
   28.470    5.1290
   28.485    5.2765
   28.500    5.2765
   28.515    5.1290
   28.530    4.7920
   28.545    4.8131
   28.560    4.7183
   28.575    5.0448
   28.590    4.8552
   28.605    5.0448
   28.620    5.3712
   28.635    5.1080
   28.650    4.9710
   28.665    5.0132
   28.680    4.8552
   28.695    4.9184
   28.710    5.2133
   28.725    4.9605
   28.740    4.9500
   28.755    4.9078
   28.770    4.8973
   28.785    5.2765
   28.800    4.7604
   28.815    4.7393
   28.830    5.0026
   28.845    5.0869
   28.860    4.9816
   28.875    4.7077
   28.890    4.7393
   28.905    5.0342
   28.920    4.7183
   28.935    5.0026
   28.950    5.0026
   28.965    5.0448
   28.980    5.0237
   28.995    4.8973
   29.010    5.0026
   29.025    5.0448
   29.040    5.1395
   29.055    4.8447
   29.070    4.9921
   29.085    4.8341
   29.100    4.7709
   29.115    5.1080
   29.130    4.5814
   29.145    4.7288
   29.160    5.2343
   29.175    4.9605
   29.190    4.9500
   29.205    4.8763
   29.220    4.7604
   29.235    4.6761
   29.250    4.8763
   29.265    5.1080
   29.280    5.0237
   29.295    4.9710
   29.310    4.9605
   29.325    4.9289
   29.340    5.0132
   29.355    5.1606
   29.370    5.0974
   29.385    5.1606
   29.400    4.8131
   29.415    4.8763
   29.430    5.0974
   29.445    5.2238
   29.460    4.8236
   29.475    4.8447
   29.490    4.7183
   29.505    4.9605
   29.520    4.9500
   29.535    4.8447
   29.550    4.8236
   29.565    4.8552
   29.580    5.0764
   29.595    4.8973
   29.610    4.9605
   29.625    4.9078
   29.640    4.4128
   29.655    4.6130
   29.670    4.7288
   29.685    5.2659
   29.700    4.7499
   29.715    4.9289
   29.730    5.0237
   29.745    4.8236
   29.760    4.6340
   29.775    4.7815
   29.790    4.9605
   29.805    4.9394
   29.820    4.6972
   29.835    4.6656
   29.850    5.1606
   29.865    4.5287
   29.880    4.6551
   29.895    4.8657
   29.910    4.9710
   29.925    5.0237
   29.940    4.8025
   29.955    4.5814
   29.970    4.5287
   29.985    4.5919
   30.000    4.7183
   30.015    4.6761
   30.030    4.6972
   30.045    4.8341
   30.060    4.8236
   30.075    4.8657
   30.090    4.3602
   30.105    4.5708
   30.120    4.6340
   30.135    4.3918
   30.150    4.9500
   30.165    4.5919
   30.180    4.6761
   30.195    4.7393
   30.210    4.5919
   30.225    4.6972
   30.240    4.6024
   30.255    4.6445
   30.270    4.5708
   30.285    4.5919
   30.300    4.6972
   30.315    4.4760
   30.330    4.4128
   30.345    4.9289
   30.360    4.6235
   30.375    4.5498
   30.390    4.3707
   30.405    4.7077
   30.420    5.2238
   30.435    5.0869
   30.450    4.5919
   30.465    4.7709
   30.480    4.9605
   30.495    4.7288
   30.510    4.7709
   30.525    4.8131
   30.540    4.8973
   30.555    4.9394
   30.570    4.7393
   30.585    4.6867
   30.600    4.6551
   30.615    4.6235
   30.630    4.8341
   30.645    4.6551
   30.660    4.7709
   30.675    4.4760
   30.690    4.6551
   30.705    4.4444
   30.720    4.4866
   30.735    4.8868
   30.750    4.5392
   30.765    4.7288
   30.780    4.9289
   30.795    5.0764
   30.810    4.9710
   30.825    4.9184
   30.840    4.8973
   30.855    4.6340
   30.870    4.8763
   30.885    4.8552
   30.900    5.0237
   30.915    4.9078
   30.930    4.6024
   30.945    4.7393
   30.960    4.6656
   30.975    4.5603
   30.990    4.8868
   31.005    4.6867
   31.020    4.6235
   31.035    4.6656
   31.050    4.6972
   31.065    4.6340
   31.080    4.7604
   31.095    4.7077
   31.110    4.5603
   31.125    4.3391
   31.140    4.5919
   31.155    4.6972
   31.170    4.5076
   31.185    4.6761
   31.200    4.8657
   31.215    4.4866
   31.230    4.4339
   31.245    4.2970
   31.260    4.4444
   31.275    4.8236
   31.290    4.7183
   31.305    4.9289
   31.320    4.8447
   31.335    4.6235
   31.350    4.5919
   31.365    4.5392
   31.380    4.8025
   31.395    4.7499
   31.410    4.7183
   31.425    4.4655
   31.440    4.9921
   31.455    4.8131
   31.470    4.7604
   31.485    4.4234
   31.500    4.6551
   31.515    4.7288
   31.530    4.7920
   31.545    4.6761
   31.560    4.7604
   31.575    4.8763
   31.590    4.7499
   31.605    4.7288
   31.620    4.8236
   31.635    4.7183
   31.650    4.8657
   31.665    4.8447
   31.680    4.5919
   31.695    4.6972
   31.710    4.8236
   31.725    4.9500
   31.740    4.8341
   31.755    4.6656
   31.770    4.6551
   31.785    5.1080
   31.800    4.4760
   31.815    5.0658
   31.830    4.9921
   31.845    4.8763
   31.860    4.8973
   31.875    5.2133
   31.890    4.7393
   31.905    4.8025
   31.920    5.1711
   31.935    4.9605
   31.950    4.7077
   31.965    4.5287
   31.980    4.8657
   31.995    5.0869
   32.010    5.0237
   32.025    4.9816
   32.040    5.0553
   32.055    4.9710
   32.070    5.2659
   32.085    5.2870
   32.100    4.9184
   32.115    4.8447
   32.130    5.3502
   32.145    5.2765
   32.160    4.9605
   32.175    4.8657
   32.190    4.6867
   32.205    4.4760
   32.220    4.8025
   32.235    4.8763
   32.250    4.7815
   32.265    4.5603
   32.280    4.6761
   32.295    4.3286
   32.310    4.3707
   32.325    4.4128
   32.340    4.5182
   32.355    4.2338
   32.370    4.4971
   32.385    4.5498
   32.400    4.2759
   32.415    4.5287
   32.430    4.5076
   32.445    4.3075
   32.460    4.5287
   32.475    4.3918
   32.490    4.5814
   32.505    4.2233
   32.520    4.5287
   32.535    4.4234
   32.550    4.6130
   32.565    4.4760
   32.580    4.4023
   32.595    4.4234
   32.610    4.9184
   32.625    4.7499
   32.640    4.4760
   32.655    4.7499
   32.670    4.3075
   32.685    4.3813
   32.700    4.4550
   32.715    4.5287
   32.730    4.1706
   32.745    4.3391
   32.760    4.9605
   32.775    4.5708
   32.790    4.5076
   32.805    4.4971
   32.820    4.2865
   32.835    4.2654
   32.850    4.3286
   32.865    4.4655
   32.880    4.5182
   32.895    4.0864
   32.910    4.3497
   32.925    4.0337
   32.940    4.4971
   32.955    4.5076
   32.970    4.6130
   32.985    4.2759
   33.000    4.2127
   33.015    4.7604
   33.030    4.4760
   33.045    4.3286
   33.060    4.3497
   33.075    4.6024
   33.090    4.4655
   33.105    4.2443
   33.120    4.3391
   33.135    4.3391
   33.150    4.2759
   33.165    4.1390
   33.180    4.7499
   33.195    4.3707
   33.210    4.3075
   33.225    4.3181
   33.240    4.2970
   33.255    4.3391
   33.270    4.1285
   33.285    4.1811
   33.300    4.1285
   33.315    4.2759
   33.330    4.2233
   33.345    4.1601
   33.360    4.2233
   33.375    4.5498
   33.390    4.5498
   33.405    4.4550
   33.420    4.4234
   33.435    4.2654
   33.450    4.1601
   33.465    4.1390
   33.480    4.3813
   33.495    4.4655
   33.510    4.2865
   33.525    4.0864
   33.540    4.2549
   33.555    4.0653
   33.570    4.1390
   33.585    4.3497
   33.600    4.4128
   33.615    4.3918
   33.630    4.3918
   33.645    4.2970
   33.660    4.2127
   33.675    4.0337
   33.690    3.9073
   33.705    4.3075
   33.720    4.3181
   33.735    4.4971
   33.750    4.2970
   33.765    4.4866
   33.780    4.6656
   33.795    4.6024
   33.810    4.5392
   33.825    4.5708
   33.840    4.6445
   33.855    4.8131
   33.870    4.2865
   33.885    4.6972
   33.900    4.8236
   33.915    4.5498
   33.930    4.5814
   33.945    4.3497
   33.960    4.4023
   33.975    4.1917
   33.990    4.7920
   34.005    4.4655
   34.020    4.2443
   34.035    4.3602
   34.050    4.1706
   34.065    4.3286
   34.080    4.3497
   34.095    4.2654
   34.110    4.1811
   34.125    4.1811
   34.140    4.2759
   34.155    3.8441
   34.170    4.0126
   34.185    4.1706
   34.200    4.1285
   34.215    4.1390
   34.230    4.2654
   34.245    4.2549
   34.260    4.1285
   34.275    4.0548
   34.290    3.8757
   34.305    4.1706
   34.320    4.1285
   34.335    4.3075
   34.350    4.2549
   34.365    4.1811
   34.380    4.3813
   34.395    4.2865
   34.410    4.1180
   34.425    4.4128
   34.440    4.0548
   34.455    4.2338
   34.470    3.9600
   34.485    4.2127
   34.500    4.2549
   34.515    4.5603
   34.530    4.2338
   34.545    4.3075
   34.560    3.9600
   34.575    4.0442
   34.590    3.9705
   34.605    4.0021
   34.620    4.0758
   34.635    4.2759
   34.650    4.0969
   34.665    4.5076
   34.680    4.1285
   34.695    3.9389
   34.710    4.0126
   34.725    3.7493
   34.740    3.9705
   34.755    4.1496
   34.770    3.9916
   34.785    4.2549
   34.800    4.0442
   34.815    3.8020
   34.830    3.6862
   34.845    4.1180
   34.860    4.2127
   34.875    3.9705
   34.890    4.0021
   34.905    3.7283
   34.920    3.6862
   34.935    4.1285
   34.950    3.9389
   34.965    3.7493
   34.980    4.2443
   34.995    4.1601
   35.010    4.1390
   35.025    4.4444
   35.040    4.4655
   35.055    4.1496
   35.070    4.4760
   35.085    4.2654
   35.100    4.0758
   35.115    3.9705
   35.130    3.8231
   35.145    4.2022
   35.160    4.4971
   35.175    3.9705
   35.190    3.9179
   35.205    3.9810
   35.220    3.9284
   35.235    3.9179
   35.250    3.9600
   35.265    4.2759
   35.280    4.1917
   35.295    3.8968
   35.310    4.1390
   35.325    4.3918
   35.340    4.2233
   35.355    4.3707
   35.370    4.0126
   35.385    4.0126
   35.400    4.2127
   35.415    4.1390
   35.430    4.2022
   35.445    4.3286
   35.460    4.2970
   35.475    4.3707
   35.490    4.1917
   35.505    4.0232
   35.520    4.0969
   35.535    4.2443
   35.550    4.1180
   35.565    4.0126
   35.580    4.3497
   35.595    4.0653
   35.610    4.1811
   35.625    3.9916
   35.640    4.0232
   35.655    3.8020
   35.670    3.7704
   35.685    4.2549
   35.700    4.0758
   35.715    4.1285
   35.730    4.3813
   35.745    3.8020
   35.760    4.0548
   35.775    4.2549
   35.790    3.8336
   35.805    4.0758
   35.820    4.0653
   35.835    3.9389
   35.850    3.8020
   35.865    4.0337
   35.880    4.0548
   35.895    3.7599
   35.910    3.8336
   35.925    3.9705
   35.940    4.0864
   35.955    4.1390
   35.970    3.9389
   35.985    4.1074
   36.000    4.0442
   36.015    4.0126
   36.030    3.7809
   36.045    4.1180
   36.060    3.9284
   36.075    4.1706
   36.090    3.9179
   36.105    3.6862
   36.120    3.8231
   36.135    3.6230
   36.150    3.9810
   36.165    3.9389
   36.180    4.0864
   36.195    4.0337
   36.210    3.9179
   36.225    4.0021
   36.240    3.8336
   36.255    4.1601
   36.270    3.8336
   36.285    3.6230
   36.300    3.9494
   36.315    3.5598
   36.330    3.6335
   36.345    3.8020
   36.360    3.6546
   36.375    3.7388
   36.390    3.9494
   36.405    3.8547
   36.420    3.8652
   36.435    3.9705
   36.450    3.9179
   36.465    3.7809
   36.480    3.9600
   36.495    3.9494
   36.510    3.6756
   36.525    3.7388
   36.540    3.8968
   36.555    3.7599
   36.570    3.9916
   36.585    3.6651
   36.600    3.8231
   36.615    4.0021
   36.630    3.8757
   36.645    3.9705
   36.660    4.0442
   36.675    4.1390
   36.690    4.0021
   36.705    3.8336
   36.720    4.0969
   36.735    3.5914
   36.750    3.4439
   36.765    3.5703
   36.780    3.5492
   36.795    3.7072
   36.810    3.9073
   36.825    3.9389
   36.840    3.8757
   36.855    4.0232
   36.870    3.7177
   36.885    3.7388
   36.900    4.0021
   36.915    3.8020
   36.930    4.0864
   36.945    3.7915
   36.960    4.2338
   36.975    3.8968
   36.990    3.7388
   37.005    3.6862
   37.020    3.9916
   37.035    3.8863
   37.050    3.9284
   37.065    3.6756
   37.080    3.8863
   37.095    3.7704
   37.110    3.7388
   37.125    3.8863
   37.140    3.6862
   37.155    3.4860
   37.170    3.6756
   37.185    3.9284
   37.200    4.0021
   37.215    3.8020
   37.230    3.9179
   37.245    3.7599
   37.260    3.7809
   37.275    3.8968
   37.290    3.7493
   37.305    4.0232
   37.320    3.8652
   37.335    3.6124
   37.350    3.6756
   37.365    3.9073
   37.380    3.8020
   37.395    4.0337
   37.410    3.5703
   37.425    3.7388
   37.440    3.6230
   37.455    3.7599
   37.470    3.8547
   37.485    3.7809
   37.500    4.2970
   37.515    3.9705
   37.530    3.8336
   37.545    3.8968
   37.560    3.6862
   37.575    3.5492
   37.590    3.7915
   37.605    3.8231
   37.620    3.6230
   37.635    3.8863
   37.650    3.9916
   37.665    4.2022
   37.680    3.8020
   37.695    3.6651
   37.710    3.9705
   37.725    4.0969
   37.740    4.2970
   37.755    3.9600
   37.770    3.8125
   37.785    3.7915
   37.800    3.7599
   37.815    3.6546
   37.830    3.9916
   37.845    3.7493
   37.860    3.8125
   37.875    3.8757
   37.890    3.9389
   37.905    4.2338
   37.920    3.8652
   37.935    3.6651
   37.950    3.7177
   37.965    3.9284
   37.980    3.7177
   37.995    3.6756
   38.010    3.5176
   38.025    4.1811
   38.040    3.7809
   38.055    3.8336
   38.070    3.7915
   38.085    3.9179
   38.100    3.5914
   38.115    3.5808
   38.130    3.5914
   38.145    3.6546
   38.160    3.6756
   38.175    3.8547
   38.190    3.5492
   38.205    3.7388
   38.220    3.5914
   38.235    3.5071
   38.250    3.8020
   38.265    3.7599
   38.280    3.6546
   38.295    3.6967
   38.310    4.0442
   38.325    3.7915
   38.340    3.8863
   38.355    3.6546
   38.370    3.8336
   38.385    3.8231
   38.400    3.7177
   38.415    3.6651
   38.430    3.6124
   38.445    3.6862
   38.460    3.8547
   38.475    3.7915
   38.490    3.7599
   38.505    4.0232
   38.520    3.6862
   38.535    3.7915
   38.550    3.9284
   38.565    3.6967
   38.580    3.7915
   38.595    3.8547
   38.610    3.6756
   38.625    3.7915
   38.640    3.8441
   38.655    3.8547
   38.670    3.7599
   38.685    4.0548
   38.700    3.8441
   38.715    3.6756
   38.730    3.8757
   38.745    3.9810
   38.760    3.8020
   38.775    3.7493
   38.790    3.7072
   38.805    3.8757
   38.820    3.9916
   38.835    4.0758
   38.850    3.8125
   38.865    3.7704
   38.880    3.8863
   38.895    3.8336
   38.910    3.8336
   38.925    3.8652
   38.940    4.0021
   38.955    3.6862
   38.970    3.9389
   38.985    3.8441
   39.000    3.9600
   39.015    3.8968
   39.030    4.0864
   39.045    3.7177
   39.060    3.7072
   39.075    3.7809
   39.090    4.0337
   39.105    3.8020
   39.120    3.8441
   39.135    4.0864
   39.150    3.7072
   39.165    3.8441
   39.180    3.4860
   39.195    3.8125
   39.210    3.9073
   39.225    3.8125
   39.240    3.9494
   39.255    3.9389
   39.270    3.9284
   39.285    4.0021
   39.300    3.7599
   39.315    3.5703
   39.330    3.8968
   39.345    3.8020
   39.360    3.9389
   39.375    3.7177
   39.390    3.6756
   39.405    4.0337
   39.420    3.8231
   39.435    3.8441
   39.450    3.9916
   39.465    3.5282
   39.480    3.7493
   39.495    3.5176
   39.510    3.7493
   39.525    3.7599
   39.540    3.8652
   39.555    3.4650
   39.570    3.6967
   39.585    3.7809
   39.600    3.8020
   39.615    3.6967
   39.630    4.0548
   39.645    3.4544
   39.660    3.5492
   39.675    4.0021
   39.690    4.0232
   39.705    3.8547
   39.720    3.9600
   39.735    3.8547
   39.750    3.8652
   39.765    3.6230
   39.780    3.6651
   39.795    3.7915
   39.810    3.8547
   39.825    3.6862
   39.840    3.8125
   39.855    4.0232
   39.870    3.8231
   39.885    3.7388
   39.900    3.8231
   39.915    3.6019
   39.930    3.7599
   39.945    3.5808
   39.960    3.6124
   39.975    3.6124
   39.990    3.6335
