    1.500   11.7430
    1.515   11.7430
    1.530   11.7430
    1.545   11.5850
    1.560   11.0269
    1.575   11.4376
    1.590   11.2796
    1.605   11.4165
    1.620   10.9742
    1.635   10.8373
    1.650   10.9953
    1.665   10.8899
    1.680   10.6688
    1.695   11.0690
    1.710   11.1111
    1.725   10.4897
    1.740   10.6266
    1.755   10.6477
    1.770   10.3633
    1.785   10.4160
    1.800   10.7109
    1.815   10.3212
    1.830   10.3318
    1.845   10.1211
    1.860   10.0579
    1.875   10.4792
    1.890   10.3423
    1.905   10.1001
    1.920   10.2580
    1.935    9.9105
    1.950   10.1843
    1.965   10.1001
    1.980    9.9737
    1.995    9.2048
    2.010   10.1632
    2.025    9.9737
    2.040    9.3418
    2.055    9.6893
    2.070    9.3628
    2.085    9.5419
    2.100    9.9526
    2.115    9.8052
    2.130    9.7314
    2.145    9.4050
    2.160    9.3207
    2.175    9.8894
    2.190   10.4265
    2.205   10.2475
    2.220    9.6893
    2.235    9.6682
    2.250    9.6472
    2.265    9.5629
    2.280    9.8999
    2.295    9.5735
    2.310    9.9947
    2.325    9.6682
    2.340    9.3944
    2.355    9.3207
    2.370    9.7630
    2.385    9.6261
    2.400    9.8578
    2.415    9.8157
    2.430    9.5419
    2.445    8.9837
    2.460   10.3528
    2.475    9.5524
    2.490    9.4787
    2.505    9.9947
    2.520    9.8684
    2.535    9.9421
    2.550    9.8157
    2.565    9.5103
    2.580    9.5735
    2.595    9.7314
    2.610    9.6261
    2.625    9.7946
    2.640   10.2896
    2.655   10.1948
    2.670   10.2580
    2.685    9.8999
    2.700   10.2580
    2.715    9.6682
    2.730    9.5419
    2.745   10.3107
    2.760   10.4055
    2.775   10.9637
    2.790   10.1843
    2.805   10.3949
    2.820   10.1948
    2.835   10.1211
    2.850   10.4265
    2.865    9.9947
    2.880   10.2264
    2.895   11.0585
    2.910   11.4903
    2.925   11.2902
    2.940   10.8268
    2.955   11.0585
    2.970   11.2164
    2.985   11.4481
    3.000   11.0795
    3.015   11.6061
    3.030   11.8062
    3.045   11.5640
    3.060   11.8273
    3.075   12.1538
    3.090   12.3117
    3.105   12.8173
    3.120   12.6593
    3.135   12.8699
    3.150   13.1438
    3.165   13.6704
    3.180   13.7651
    3.195   13.5018
    3.210   13.9652
    3.225   14.5234
    3.240   15.1448
    3.255   15.2817
    3.270   15.3344
    3.285   15.9768
    3.300   16.5140
    3.315   17.3565
    3.330   17.4829
    3.345   17.6514
    3.360   18.6098
    3.375   20.1159
    3.390   20.3686
    3.405   20.3897
    3.420   21.6746
    3.435   22.1801
    3.450   22.6856
    3.465   22.0116
    3.480   21.9063
    3.495   21.2533
    3.510   20.4107
    3.525   18.2622
    3.540   16.9142
    3.555   16.3981
    3.570   14.9236
    3.585   14.9236
    3.600   13.9337
    3.615   13.4597
    3.630   13.4808
    3.645   13.3755
    3.660   13.2807
    3.675   13.0490
    3.690   12.6172
    3.705   13.6072
    3.720   13.5018
    3.735   13.6282
    3.750   13.6072
    3.765   13.6809
    3.780   14.2180
    3.795   15.1237
    3.810   15.2607
    3.825   15.3765
    3.840   15.7451
    3.855   16.8299
    3.870   15.5977
    3.885   16.5666
    3.900   16.9142
    3.915   15.6925
    3.930   15.1027
    3.945   13.3649
    3.960   12.7962
    3.975   12.8910
    3.990   12.7436
    4.005   12.3328
    4.020   12.3012
    4.035   11.9853
    4.050   12.1011
    4.065   11.5324
    4.080   11.8589
    4.095   11.6272
    4.110   11.6061
    4.125   10.6793
    4.140   10.4897
    4.155   10.6372
    4.170    9.7314
    4.185    9.6788
    4.200    9.6051
    4.215    9.3628
    4.230    9.4681
    4.245    8.8257
    4.260    8.9100
    4.275    8.3728
    4.290    9.0047
    4.305    9.0047
    4.320    8.8152
    4.335    8.5835
    4.350    8.2675
    4.365    8.0990
    4.380    8.0042
    4.395    8.2570
    4.410    7.8778
    4.425    7.5935
    4.440    7.7620
    4.455    7.3618
    4.470    7.6356
    4.485    7.8989
    4.500    8.0674
    4.515    7.6356
    4.530    7.4776
    4.545    7.7093
    4.560    7.4355
    4.575    7.1090
    4.590    7.7409
    4.605    7.3196
    4.620    7.1511
    4.635    7.4355
    4.650    7.5092
    4.665    7.3512
    4.680    7.3828
    4.695    7.3723
    4.710    6.8773
    4.725    6.7825
    4.740    6.9194
    4.755    7.2354
    4.770    7.5092
    4.785    6.9616
    4.800    6.9300
    4.815    6.6140
    4.830    6.9932
    4.845    7.0458
    4.860    6.7299
    4.875    6.9932
    4.890    7.0879
    4.905    6.9194
    4.920    6.8668
    4.935    6.9510
    4.950    6.7615
    4.965    6.6983
    4.980    6.7193
    4.995    7.2354
    5.010    6.9194
    5.025    6.9300
    5.040    6.9300
    5.055    6.7299
    5.070    6.9510
    5.085    6.9826
    5.100    6.7720
    5.115    6.9300
    5.130    6.6351
    5.145    6.8773
    5.160    6.7615
    5.175    7.0248
    5.190    6.7930
    5.205    7.0037
    5.220    7.0985
    5.235    7.1511
    5.250    6.7615
    5.265    6.8773
    5.280    7.0142
    5.295    6.8352
    5.310    7.2459
    5.325    7.1406
    5.340    7.0879
    5.355    6.8036
    5.370    6.9616
    5.385    7.0985
    5.400    7.5092
    5.415    7.3618
    5.430    7.5724
    5.445    7.6145
    5.460    7.4144
    5.475    7.6461
    5.490    7.2459
    5.505    7.3723
    5.520    7.2038
    5.535    7.2354
    5.550    6.9510
    5.565    6.4455
    5.580    5.8978
    5.595    7.1195
    5.610    7.0037
    5.625    6.3296
    5.640    6.3086
    5.655    6.8352
    5.670    6.7088
    5.685    6.6351
    5.700    6.4244
    5.715    6.8562
    5.730    6.6561
    5.745    6.3402
    5.760    6.3823
    5.775    6.7088
    5.790    6.7193
    5.805    6.2770
    5.820    6.2243
    5.835    6.6140
    5.850    6.6035
    5.865    6.4666
    5.880    6.4350
    5.895    6.6351
    5.910    6.1822
    5.925    6.3191
    5.940    6.1085
    5.955    6.5508
    5.970    6.3718
    5.985    6.6667
    6.000    6.4350
    6.015    6.6877
    6.030    6.3402
    6.045    6.1401
    6.060    6.2033
    6.075    6.6351
    6.090    6.6351
    6.105    6.4034
    6.120    6.4455
    6.135    6.6983
    6.150    6.4244
    6.165    6.3507
    6.180    6.3928
    6.195    6.3191
    6.210    6.3823
    6.225    6.1822
    6.240    6.3296
    6.255    6.5298
    6.270    6.6351
    6.285    6.3086
    6.300    6.7825
    6.315    6.8773
    6.330    6.8352
    6.345    6.7720
    6.360    6.8036
    6.375    6.8141
    6.390    6.6351
    6.405    7.0248
    6.420    6.7088
    6.435    6.5192
    6.450    6.6351
    6.465    6.7299
    6.480    6.9405
    6.495    6.5087
    6.510    6.3823
    6.525    6.4244
    6.540    6.8141
    6.555    6.6983
    6.570    6.8036
    6.585    6.9721
    6.600    6.9089
    6.615    6.8246
    6.630    6.7615
    6.645    6.6456
    6.660    7.2459
    6.675    6.5087
    6.690    6.7720
    6.705    6.9510
    6.720    7.0985
    6.735    6.8562
    6.750    6.7615
    6.765    7.1617
    6.780    7.2354
    6.795    7.3196
    6.810    7.2775
    6.825    7.2880
    6.840    7.2565
    6.855    7.0248
    6.870    7.2038
    6.885    8.0253
    6.900    7.9621
    6.915    7.8884
    6.930    7.5303
    6.945    7.6777
    6.960    7.4355
    6.975    7.8778
    6.990    7.6461
    7.005    7.6040
    7.020    7.7830
    7.035    7.3934
    7.050    7.3618
    7.065    7.2354
    7.080    6.8773
    7.095    6.5298
    7.110    7.0563
    7.125    7.0563
    7.140    6.8457
    7.155    6.5298
    7.170    6.6877
    7.185    6.5087
    7.200    6.7615
    7.215    6.6877
    7.230    6.6561
    7.245    6.7088
    7.260    6.6351
    7.275    6.4560
    7.290    6.5929
    7.305    6.7193
    7.320    6.9510
    7.335    6.8984
    7.350    6.7825
    7.365    6.8141
    7.380    6.8984
    7.395    6.7825
    7.410    6.8457
    7.425    6.9616
    7.440    6.7193
    7.455    6.6456
    7.470    6.9510
    7.485    6.7404
    7.500    6.8773
    7.515    7.3512
    7.530    7.2249
    7.545    6.9300
    7.560    6.7615
    7.575    7.0879
    7.590    7.0037
    7.605    7.2775
    7.620    6.9194
    7.635    6.8141
    7.650    6.7825
    7.665    7.1195
    7.680    6.9826
    7.695    7.1301
    7.710    7.3196
    7.725    7.3512
    7.740    7.0669
    7.755    7.2354
    7.770    7.2459
    7.785    7.4671
    7.800    7.4144
    7.815    6.9616
    7.830    7.6040
    7.845    7.6567
    7.860    7.2459
    7.875    7.2354
    7.890    7.2775
    7.905    7.0458
    7.920    7.1090
    7.935    7.3196
    7.950    7.3302
    7.965    7.0458
    7.980    7.0985
    7.995    6.9932
    8.010    7.0458
    8.025    7.0985
    8.040    7.1195
    8.055    7.2354
    8.070    7.1511
    8.085    7.0563
    8.100    6.8878
    8.115    7.3512
    8.130    7.2249
    8.145    7.3407
    8.160    7.4671
    8.175    7.0353
    8.190    7.5197
    8.205    7.5303
    8.220    7.3091
    8.235    7.2880
    8.250    7.3302
    8.265    7.2775
    8.280    7.2775
    8.295    7.1933
    8.310    7.0774
    8.325    7.0774
    8.340    7.3407
    8.355    6.7509
    8.370    6.6351
    8.385    7.1933
    8.400    7.2565
    8.415    6.8668
    8.430    6.8668
    8.445    6.8984
    8.460    6.9089
    8.475    6.8457
    8.490    7.3196
    8.505    7.3723
    8.520    7.4250
    8.535    7.4882
    8.550    7.0774
    8.565    6.9826
    8.580    6.7509
    8.595    7.0248
    8.610    7.3618
    8.625    7.2670
    8.640    7.1617
    8.655    6.8352
    8.670    7.1722
    8.685    7.0669
    8.700    7.1722
    8.715    7.4671
    8.730    7.2038
    8.745    7.3934
    8.760    6.9616
    8.775    7.1090
    8.790    6.8036
    8.805    6.8352
    8.820    6.9826
    8.835    6.8246
    8.850    7.3407
    8.865    6.9616
    8.880    7.2880
    8.895    7.4039
    8.910    7.4355
    8.925    7.2354
    8.940    6.7088
    8.955    7.1722
    8.970    7.1195
    8.985    6.8036
    9.000    6.9932
    9.015    6.6245
    9.030    7.0248
    9.045    7.5408
    9.060    7.1195
    9.075    7.2143
    9.090    6.9826
    9.105    7.3407
    9.120    6.8036
    9.135    6.8457
    9.150    6.5192
    9.165    6.9826
    9.180    6.9932
    9.195    7.2354
    9.210    7.1090
    9.225    7.0458
    9.240    6.9721
    9.255    7.0563
    9.270    7.2670
    9.285    6.8773
    9.300    6.8457
    9.315    7.1406
    9.330    7.0142
    9.345    6.8773
    9.360    7.5408
    9.375    6.9932
    9.390    6.8246
    9.405    7.3091
    9.420    7.2986
    9.435    6.9194
    9.450    7.0458
    9.465    7.0879
    9.480    7.1722
    9.495    7.0774
    9.510    7.1511
    9.525    7.1827
    9.540    7.3302
    9.555    7.0458
    9.570    7.3091
    9.585    7.7409
    9.600    7.2986
    9.615    7.0985
    9.630    7.0669
    9.645    7.2249
    9.660    7.1617
    9.675    6.8457
    9.690    7.0985
    9.705    7.0669
    9.720    6.8773
    9.735    7.0563
    9.750    6.9405
    9.765    6.9826
    9.780    6.8668
    9.795    6.8668
    9.810    6.9194
    9.825    6.7825
    9.840    7.0142
    9.855    7.3407
    9.870    7.2143
    9.885    7.1195
    9.900    6.9616
    9.915    7.1090
    9.930    6.6456
    9.945    6.9089
    9.960    6.7720
    9.975    7.0669
    9.990    7.1722
   10.005    7.3512
   10.020    7.0879
   10.035    7.0142
   10.050    7.1933
   10.065    6.9616
   10.080    6.8246
   10.095    7.0669
   10.110    7.0353
   10.125    6.8141
   10.140    6.8457
   10.155    6.8246
   10.170    7.0458
   10.185    7.0353
   10.200    6.9616
   10.215    6.6772
   10.230    6.8878
   10.245    7.0037
   10.260    6.8773
   10.275    7.0985
   10.290    7.2565
   10.305    7.2459
   10.320    7.1406
   10.335    7.1722
   10.350    6.7720
   10.365    6.4771
   10.380    7.1301
   10.395    7.1301
   10.410    6.7825
   10.425    6.8878
   10.440    7.2459
   10.455    6.8773
   10.470    7.0669
   10.485    7.0037
   10.500    6.6983
   10.515    6.2033
   10.530    6.7299
   10.545    6.7193
   10.560    6.7615
   10.575    7.0985
   10.590    6.8141
   10.605    6.6140
   10.620    6.9826
   10.635    6.7615
   10.650    6.8457
   10.665    7.1722
   10.680    6.8352
   10.695    6.9089
   10.710    6.8773
   10.725    6.6351
   10.740    6.6877
   10.755    6.6561
   10.770    6.8668
   10.785    7.0774
   10.800    6.9405
   10.815    6.6667
   10.830    6.7193
   10.845    6.8036
   10.860    6.7088
   10.875    6.6772
   10.890    6.7720
   10.905    6.4666
   10.920    6.5192
   10.935    6.6772
   10.950    6.5929
   10.965    6.5192
   10.980    6.6351
   10.995    6.9510
   11.010    6.9510
   11.025    6.7193
   11.040    6.5508
   11.055    6.8457
   11.070    6.6667
   11.085    6.8562
   11.100    6.4666
   11.115    6.6035
   11.130    6.6667
   11.145    6.5087
   11.160    6.6456
   11.175    6.7509
   11.190    6.7509
   11.205    6.4771
   11.220    6.9826
   11.235    6.6667
   11.250    6.5192
   11.265    6.4982
   11.280    6.3823
   11.295    6.5403
   11.310    6.8352
   11.325    6.4876
   11.340    6.9721
   11.355    6.8668
   11.370    6.4876
   11.385    6.4982
   11.400    6.5824
   11.415    6.6351
   11.430    6.6667
   11.445    6.2981
   11.460    6.3402
   11.475    6.2243
   11.490    6.0032
   11.505    6.4560
   11.520    6.3823
   11.535    6.5087
   11.550    6.7720
   11.565    6.5298
   11.580    6.4139
   11.595    6.7509
   11.610    6.2770
   11.625    6.2559
   11.640    6.6667
   11.655    6.5087
   11.670    6.6667
   11.685    6.6035
   11.700    6.3928
   11.715    6.2243
   11.730    6.4455
   11.745    6.3718
   11.760    6.4771
   11.775    6.5192
   11.790    6.4350
   11.805    6.3086
   11.820    5.9821
   11.835    6.3612
   11.850    6.5087
   11.865    6.5087
   11.880    6.4771
   11.895    6.5192
   11.910    6.2138
   11.925    6.1401
   11.940    6.3191
   11.955    6.4560
   11.970    6.3928
   11.985    5.8347
   12.000    6.2033
   12.015    6.2665
   12.030    6.4034
   12.045    6.4350
   12.060    5.9821
   12.075    5.9505
   12.090    6.1611
   12.105    6.4771
   12.120    6.0453
   12.135    5.9821
   12.150    5.9189
   12.165    5.8768
   12.180    6.3823
   12.195    6.2665
   12.210    6.2981
   12.225    5.9084
   12.240    6.4244
   12.255    6.0874
   12.270    6.1295
   12.285    6.3086
   12.300    6.2981
   12.315    6.3402
   12.330    6.4560
   12.345    6.2138
   12.360    6.2033
   12.375    6.1927
   12.390    6.4560
   12.405    6.2349
   12.420    6.1927
   12.435    6.1085
   12.450    6.1822
   12.465    6.3191
   12.480    6.1506
   12.495    6.2875
   12.510    6.0137
   12.525    6.0032
   12.540    6.5824
   12.555    6.4560
   12.570    5.9084
   12.585    5.7925
   12.600    6.3402
   12.615    6.1611
   12.630    6.0874
   12.645    6.0032
   12.660    6.0032
   12.675    6.2033
   12.690    6.0769
   12.705    5.8557
   12.720    5.9084
   12.735    5.7925
   12.750    5.8452
   12.765    6.2033
   12.780    6.2665
   12.795    6.1295
   12.810    6.2243
   12.825    6.1295
   12.840    5.7293
   12.855    5.8241
   12.870    6.0348
   12.885    6.2559
   12.900    6.5508
   12.915    6.0664
   12.930    5.8557
   12.945    5.8241
   12.960    6.2349
   12.975    6.1717
   12.990    6.4560
   13.005    6.3823
   13.020    6.1190
   13.035    5.8873
   13.050    5.7820
   13.065    5.9610
   13.080    5.9505
   13.095    5.8136
   13.110    5.7820
   13.125    6.0979
   13.140    6.2033
   13.155    5.9189
   13.170    5.8768
   13.185    5.8662
   13.200    5.9294
   13.215    6.1295
   13.230    6.0874
   13.245    5.9926
   13.260    5.8347
   13.275    5.7715
   13.290    6.2454
   13.305    5.9610
   13.320    5.7820
   13.335    5.9716
   13.350    5.7399
   13.365    5.8452
   13.380    6.3296
   13.395    6.0664
   13.410    6.2033
   13.425    6.0242
   13.440    6.1717
   13.455    6.2875
   13.470    5.9926
   13.485    6.2981
   13.500    6.1190
   13.515    6.2138
   13.530    6.2559
   13.545    5.9716
   13.560    5.8662
   13.575    5.7925
   13.590    5.8662
   13.605    5.8031
   13.620    5.5714
   13.635    5.4239
   13.650    5.9926
   13.665    5.8452
   13.680    6.1085
   13.695    6.0769
   13.710    5.7609
   13.725    5.5608
   13.740    5.5082
   13.755    5.6977
   13.770    5.9084
   13.785    6.3823
   13.800    6.1190
   13.815    5.8978
   13.830    5.7188
   13.845    5.8136
   13.860    5.9189
   13.875    6.2770
   13.890    5.8557
   13.905    5.7188
   13.920    6.0348
   13.935    6.0348
   13.950    6.1611
   13.965    6.0032
   13.980    5.7925
   13.995    6.0664
   14.010    6.1401
   14.025    5.8557
   14.040    5.9505
   14.055    6.2770
   14.070    5.7925
   14.085    6.1190
   14.100    6.0664
   14.115    5.8031
   14.130    5.8347
   14.145    5.6556
   14.160    6.2454
   14.175    6.1401
   14.190    5.6767
   14.205    5.8557
   14.220    6.1295
   14.235    5.6977
   14.250    5.2449
   14.265    6.2243
   14.280    6.1927
   14.295    5.9926
   14.310    5.8873
   14.325    5.6135
   14.340    5.7293
   14.355    5.9505
   14.370    5.7504
   14.385    5.8452
   14.400    5.9821
   14.415    6.0137
   14.430    5.8978
   14.445    5.9084
   14.460    5.6029
   14.475    6.3191
   14.490    6.2770
   14.505    5.6451
   14.520    5.6872
   14.535    5.5292
   14.550    5.6556
   14.565    5.5608
   14.580    5.7399
   14.595    6.0874
   14.610    5.9716
   14.625    5.7399
   14.640    5.7715
   14.655    5.7399
   14.670    5.8662
   14.685    6.1717
   14.700    5.6977
   14.715    5.5819
   14.730    5.8347
   14.745    6.2033
   14.760    5.7715
   14.775    5.8662
   14.790    6.0032
   14.805    5.8031
   14.820    5.9610
   14.835    5.6977
   14.850    6.1611
   14.865    5.8031
   14.880    5.7925
   14.895    5.9610
   14.910    6.3823
   14.925    6.3612
   14.940    5.7715
   14.955    5.6556
   14.970    5.6451
   14.985    5.6556
   15.000    5.8347
   15.015    5.6872
   15.030    5.8557
   15.045    5.9610
   15.060    5.9716
   15.075    6.0242
   15.090    6.2349
   15.105    6.1927
   15.120    6.0348
   15.135    6.1611
   15.150    6.0664
   15.165    5.7083
   15.180    6.0032
   15.195    5.7925
   15.210    5.7820
   15.225    5.8768
   15.240    6.3612
   15.255    6.0769
   15.270    5.8136
   15.285    5.6345
   15.300    5.7715
   15.315    5.9294
   15.330    5.9926
   15.345    6.1717
   15.360    5.9505
   15.375    5.8557
   15.390    5.9400
   15.405    6.0558
   15.420    5.7820
   15.435    5.6872
   15.450    6.2454
   15.465    5.9716
   15.480    5.7188
   15.495    5.8031
   15.510    6.0137
   15.525    5.8031
   15.540    5.9505
   15.555    6.0032
   15.570    6.1506
   15.585    5.7820
   15.600    5.9926
   15.615    5.7504
   15.630    5.9821
   15.645    6.4666
   15.660    6.2665
   15.675    5.9400
   15.690    5.9821
   15.705    5.9821
   15.720    5.8768
   15.735    5.5082
   15.750    6.1190
   15.765    5.7504
   15.780    5.7399
   15.795    5.8873
   15.810    5.6029
   15.825    5.7083
   15.840    5.9610
   15.855    5.9084
   15.870    5.5608
   15.885    5.7399
   15.900    6.2665
   15.915    5.8557
   15.930    6.0874
   15.945    6.0242
   15.960    6.1717
   15.975    6.0348
   15.990    5.5924
   16.005    5.8768
   16.020    6.1295
   16.035    5.6029
   16.050    5.6556
   16.065    5.9716
   16.080    5.9926
   16.095    5.9294
   16.110    6.1822
   16.125    6.1085
   16.140    6.0874
   16.155    6.0664
   16.170    6.5929
   16.185    5.7399
   16.200    5.3397
   16.215    5.8136
   16.230    5.9400
   16.245    5.6767
   16.260    6.1717
   16.275    6.2665
   16.290    5.8241
   16.305    6.0137
   16.320    5.8031
   16.335    5.8031
   16.350    5.8452
   16.365    5.9294
   16.380    6.0453
   16.395    5.7504
   16.410    5.9084
   16.425    6.0348
   16.440    5.4766
   16.455    5.3502
   16.470    5.9821
   16.485    5.8136
   16.500    6.2033
   16.515    5.6240
   16.530    5.7293
   16.545    5.9294
   16.560    6.3507
   16.575    5.9505
   16.590    5.9926
   16.605    5.9084
   16.620    6.3928
   16.635    6.2770
   16.650    6.2033
   16.665    5.8873
   16.680    5.5714
   16.695    5.6451
   16.710    5.7715
   16.725    6.1401
   16.740    5.9084
   16.755    5.5398
   16.770    6.0979
   16.785    5.9505
   16.800    6.1085
   16.815    6.2033
   16.830    5.8347
   16.845    5.8978
   16.860    6.1611
   16.875    6.0137
   16.890    5.7609
   16.905    6.0664
   16.920    5.7820
   16.935    5.8978
   16.950    6.2665
   16.965    6.1611
   16.980    5.7925
   16.995    5.6135
   17.010    6.3402
   17.025    6.1927
   17.040    5.9400
   17.055    5.9716
   17.070    5.8978
   17.085    5.9189
   17.100    5.9084
   17.115    6.3507
   17.130    6.0032
   17.145    5.9084
   17.160    6.0348
   17.175    6.0453
   17.190    5.8978
   17.205    5.5187
   17.220    6.0558
   17.235    5.9505
   17.250    6.0769
   17.265    6.2349
   17.280    6.2981
   17.295    6.1295
   17.310    5.8873
   17.325    5.7083
   17.340    5.7715
   17.355    6.0032
   17.370    5.7504
   17.385    5.9821
   17.400    5.9084
   17.415    5.8347
   17.430    5.8347
   17.445    5.8031
   17.460    6.0242
   17.475    6.3612
   17.490    6.2033
   17.505    5.7820
   17.520    5.9084
   17.535    6.1295
   17.550    6.1717
   17.565    5.6661
   17.580    5.9294
   17.595    5.9189
   17.610    5.8347
   17.625    5.6029
   17.640    5.8557
   17.655    6.0664
   17.670    6.1506
   17.685    6.1506
   17.700    5.6977
   17.715    5.8452
   17.730    5.5924
   17.745    6.0137
   17.760    5.7820
   17.775    5.9400
   17.790    5.9716
   17.805    6.0137
   17.820    6.0453
   17.835    6.2349
   17.850    5.5292
   17.865    6.0874
   17.880    6.1190
   17.895    6.0558
   17.910    5.9400
   17.925    6.0664
   17.940    6.0979
   17.955    6.1401
   17.970    6.0558
   17.985    6.0242
   18.000    6.1611
   18.015    5.9610
   18.030    6.1085
   18.045    5.7188
   18.060    5.7925
   18.075    6.2981
   18.090    5.9084
   18.105    6.0558
   18.120    5.9084
   18.135    6.3612
   18.150    5.9189
   18.165    5.7609
   18.180    5.9505
   18.195    6.2033
   18.210    5.8031
   18.225    6.0453
   18.240    5.9189
   18.255    5.9610
   18.270    6.0664
   18.285    5.6451
   18.300    5.9926
   18.315    6.3296
   18.330    5.9926
   18.345    5.5608
   18.360    5.6029
   18.375    6.0558
   18.390    5.9716
   18.405    6.0348
   18.420    5.7504
   18.435    6.1401
   18.450    6.1822
   18.465    5.6345
   18.480    5.8768
   18.495    5.9610
   18.510    5.9505
   18.525    5.8241
   18.540    6.0874
   18.555    5.8347
   18.570    6.3507
   18.585    6.3296
   18.600    6.1085
   18.615    5.7399
   18.630    5.8768
   18.645    6.2243
   18.660    6.0137
   18.675    6.0453
   18.690    6.2665
   18.705    5.8978
   18.720    6.0769
   18.735    5.7293
   18.750    6.0242
   18.765    6.1611
   18.780    6.2138
   18.795    6.0453
   18.810    6.0242
   18.825    6.0242
   18.840    5.9400
   18.855    6.0137
   18.870    5.9084
   18.885    5.9821
   18.900    6.2033
   18.915    6.1717
   18.930    6.0032
   18.945    6.0453
   18.960    6.4771
   18.975    6.6456
   18.990    6.4982
   19.005    6.6877
   19.020    6.6035
   19.035    6.3191
   19.050    6.4771
   19.065    6.0664
   19.080    6.2349
   19.095    6.0769
   19.110    6.2138
   19.125    5.9294
   19.140    5.9716
   19.155    6.2875
   19.170    6.6245
   19.185    6.2454
   19.200    5.9716
   19.215    5.8452
   19.230    5.9821
   19.245    6.1611
   19.260    6.1717
   19.275    6.1295
   19.290    6.2770
   19.305    6.3507
   19.320    5.9821
   19.335    5.9084
   19.350    5.9084
   19.365    5.8978
   19.380    6.1190
   19.395    6.3402
   19.410    6.3612
   19.425    6.5087
   19.440    6.3507
   19.455    6.1401
   19.470    6.0979
   19.485    6.2454
   19.500    6.1401
   19.515    6.1401
   19.530    6.1927
   19.545    5.9084
   19.560    6.2349
   19.575    6.2665
   19.590    5.9294
   19.605    5.6451
   19.620    6.0242
   19.635    6.0558
   19.650    6.5613
   19.665    6.5929
   19.680    6.0558
   19.695    6.0348
   19.710    6.2454
   19.725    6.4350
   19.740    6.4034
   19.755    6.1927
   19.770    6.0032
   19.785    6.1295
   19.800    6.3296
   19.815    6.2454
   19.830    6.0348
   19.845    6.4034
   19.860    5.9189
   19.875    6.2875
   19.890    6.2138
   19.905    6.4876
   19.920    6.2033
   19.935    6.2138
   19.950    6.2454
   19.965    6.3612
   19.980    6.1717
   19.995    5.9821
   20.010    6.0137
   20.025    5.8978
   20.040    6.2981
   20.055    6.1717
   20.070    6.4560
   20.085    6.4034
   20.100    6.1822
   20.115    5.9505
   20.130    6.3928
   20.145    6.2349
   20.160    5.9294
   20.175    6.4350
   20.190    6.4982
   20.205    6.4982
   20.220    6.2770
   20.235    6.2243
   20.250    6.1295
   20.265    5.8557
   20.280    5.9821
   20.295    6.4455
   20.310    6.5087
   20.325    6.2559
   20.340    6.2454
   20.355    6.5508
   20.370    6.4139
   20.385    6.4876
   20.400    6.7404
   20.415    6.3823
   20.430    6.3191
   20.445    6.4139
   20.460    6.2875
   20.475    6.5719
   20.490    6.1401
   20.505    5.9821
   20.520    5.8557
   20.535    6.1401
   20.550    6.1295
   20.565    6.2243
   20.580    6.1085
   20.595    6.2454
   20.610    6.2138
   20.625    6.1506
   20.640    6.3823
   20.655    6.1927
   20.670    6.2033
   20.685    6.6877
   20.700    6.4350
   20.715    6.4560
   20.730    6.2349
   20.745    6.4876
   20.760    6.4982
   20.775    6.5087
   20.790    6.2454
   20.805    6.1401
   20.820    6.1927
   20.835    5.9926
   20.850    6.0769
   20.865    6.2243
   20.880    6.0874
   20.895    6.1927
   20.910    6.1190
   20.925    6.0769
   20.940    6.1295
   20.955    6.0453
   20.970    6.3718
   20.985    6.2243
   21.000    5.9821
   21.015    6.1822
   21.030    6.6140
   21.045    6.2033
   21.060    6.0348
   21.075    6.0032
   21.090    6.3402
   21.105    6.3823
   21.120    6.2875
   21.135    6.1611
   21.150    6.2770
   21.165    6.4034
   21.180    6.2243
   21.195    6.7193
   21.210    5.9400
   21.225    6.2349
   21.240    6.4244
   21.255    6.0874
   21.270    6.4034
   21.285    5.9610
   21.300    6.2033
   21.315    6.2559
   21.330    6.1085
   21.345    6.4560
   21.360    6.0979
   21.375    6.4139
   21.390    6.6140
   21.405    6.4350
   21.420    6.4244
   21.435    6.4139
   21.450    6.5929
   21.465    6.1506
   21.480    6.1822
   21.495    6.2454
   21.510    6.5508
   21.525    6.1190
   21.540    6.3191
   21.555    6.6561
   21.570    6.2559
   21.585    6.1506
   21.600    6.5719
   21.615    5.9610
   21.630    5.9505
   21.645    6.3296
   21.660    6.4455
   21.675    6.2770
   21.690    6.5298
   21.705    6.7404
   21.720    6.5929
   21.735    6.3612
   21.750    6.1927
   21.765    6.5298
   21.780    5.9926
   21.795    6.5403
   21.810    6.4350
   21.825    6.1190
   21.840    6.0558
   21.855    6.1717
   21.870    6.0769
   21.885    6.2665
   21.900    6.4034
   21.915    6.0769
   21.930    6.4982
   21.945    6.1190
   21.960    6.0137
   21.975    6.0137
   21.990    6.0348
   22.005    6.3507
   22.020    6.7720
   22.035    6.6772
   22.050    6.2559
   22.065    6.3928
   22.080    6.3928
   22.095    6.2665
   22.110    6.4139
   22.125    6.4666
   22.140    6.4876
   22.155    6.3191
   22.170    6.4982
   22.185    6.5192
   22.200    6.6561
   22.215    6.3928
   22.230    6.4244
   22.245    6.2981
   22.260    6.2243
   22.275    6.3507
   22.290    6.4034
   22.305    6.4560
   22.320    6.3191
   22.335    6.3823
   22.350    6.4982
   22.365    6.4771
   22.380    6.5298
   22.395    6.4034
   22.410    6.3507
   22.425    6.3191
   22.440    6.1611
   22.455    6.4244
   22.470    6.2981
   22.485    6.4139
   22.500    6.3507
   22.515    6.7930
   22.530    6.4876
   22.545    6.4244
   22.560    6.7299
   22.575    6.4244
   22.590    6.4034
   22.605    6.3402
   22.620    6.4350
   22.635    6.5403
   22.650    6.4034
   22.665    6.8668
   22.680    6.3402
   22.695    6.0664
   22.710    6.2243
   22.725    6.5508
   22.740    6.0874
   22.755    6.1085
   22.770    6.0453
   22.785    6.1822
   22.800    6.4666
   22.815    6.3296
   22.830    6.2243
   22.845    6.3718
   22.860    6.2665
   22.875    6.5192
   22.890    6.5298
   22.905    6.4666
   22.920    6.1822
   22.935    6.1190
   22.950    6.0769
   22.965    5.9610
   22.980    6.2665
   22.995    6.3402
   23.010    6.2559
   23.025    6.3191
   23.040    6.4666
   23.055    6.3718
   23.070    6.4771
   23.085    6.7720
   23.100    6.3823
   23.115    6.5824
   23.130    6.2243
   23.145    6.2875
   23.160    6.1611
   23.175    6.2243
   23.190    6.4771
   23.205    6.1401
   23.220    6.4455
   23.235    6.2875
   23.250    6.4771
   23.265    6.2033
   23.280    6.5403
   23.295    6.6983
   23.310    6.6456
   23.325    6.4034
   23.340    6.2665
   23.355    6.1085
   23.370    6.1190
   23.385    6.5824
   23.400    6.5719
   23.415    6.5087
   23.430    6.3928
   23.445    5.9400
   23.460    6.3718
   23.475    6.1401
   23.490    6.3296
   23.505    6.7720
   23.520    6.3507
   23.535    6.1927
   23.550    6.2454
   23.565    5.9821
   23.580    6.2138
   23.595    6.3191
   23.610    6.6351
   23.625    6.4350
   23.640    6.1927
   23.655    6.4034
   23.670    6.3507
   23.685    5.8452
   23.700    6.0874
   23.715    6.0242
   23.730    6.3612
   23.745    6.2770
   23.760    5.9084
   23.775    6.0664
   23.790    6.4034
   23.805    6.1927
   23.820    6.2875
   23.835    6.5719
   23.850    6.4139
   23.865    6.5298
   23.880    6.1717
   23.895    6.5403
   23.910    6.1190
   23.925    6.3402
   23.940    6.2770
   23.955    6.0453
   23.970    5.8662
   23.985    6.6351
   24.000    6.2033
   24.015    6.2559
   24.030    6.1295
   24.045    6.4771
   24.060    6.2559
   24.075    6.3086
   24.090    5.8347
   24.105    5.9926
   24.120    5.9821
   24.135    5.8873
   24.150    5.9926
   24.165    6.1822
   24.180    6.3086
   24.195    6.2559
   24.210    6.3718
   24.225    6.0558
   24.240    6.2454
   24.255    6.3823
   24.270    6.0979
   24.285    5.9821
   24.300    6.0874
   24.315    6.1506
   24.330    6.4666
   24.345    6.2875
   24.360    5.7715
   24.375    5.8452
   24.390    6.0242
   24.405    6.2243
   24.420    5.7820
   24.435    5.9926
   24.450    5.6556
   24.465    5.4976
   24.480    5.8662
   24.495    5.8452
   24.510    6.1401
   24.525    5.9821
   24.540    5.6872
   24.555    6.1085
   24.570    6.1822
   24.585    6.3507
   24.600    6.0874
   24.615    6.5824
   24.630    6.2770
   24.645    6.0348
   24.660    6.0348
   24.675    6.0348
   24.690    6.2033
   24.705    6.4982
   24.720    6.1506
   24.735    5.9294
   24.750    6.1085
   24.765    5.8031
   24.780    5.7293
   24.795    5.9189
   24.810    6.1611
   24.825    6.0979
   24.840    6.5613
   24.855    5.8662
   24.870    5.9610
   24.885    6.1190
   24.900    5.9505
   24.915    6.0242
   24.930    6.4876
   24.945    6.0558
   24.960    6.2243
   24.975    6.3402
   24.990    6.1611
   25.005    5.6872
   25.020    5.7083
   25.035    5.8978
   25.050    5.7293
   25.065    5.4766
   25.080    6.0874
   25.095    6.0979
   25.110    5.5819
   25.125    5.5819
   25.140    5.8978
   25.155    6.0348
   25.170    6.1611
   25.185    6.0242
   25.200    5.8873
   25.215    6.0242
   25.230    6.0769
   25.245    6.1190
   25.260    5.6872
   25.275    5.7820
   25.290    6.0979
   25.305    6.0453
   25.320    6.1085
   25.335    6.0032
   25.350    5.8241
   25.365    5.9821
   25.380    6.2349
   25.395    5.8768
   25.410    6.0137
   25.425    5.9505
   25.440    5.8452
   25.455    6.1295
   25.470    6.0348
   25.485    6.0979
   25.500    5.8347
   25.515    5.7820
   25.530    5.8347
   25.545    5.7399
   25.560    5.7399
   25.575    5.7820
   25.590    6.0242
   25.605    5.7504
   25.620    6.0558
   25.635    5.8136
   25.650    5.7293
   25.665    5.6345
   25.680    6.0664
   25.695    6.1822
   25.710    6.2033
   25.725    5.8241
   25.740    5.7715
   25.755    6.0558
   25.770    6.3296
   25.785    5.9926
   25.800    5.9505
   25.815    5.8873
   25.830    5.9610
   25.845    6.0348
   25.860    6.0242
   25.875    5.7820
   25.890    5.6240
   25.905    5.3607
   25.920    5.8557
   25.935    5.9821
   25.950    5.9610
   25.965    6.0137
   25.980    6.0558
   25.995    5.9505
   26.010    5.9400
   26.025    5.7820
   26.040    6.1611
   26.055    5.8031
   26.070    5.9189
   26.085    5.8662
   26.100    5.8873
   26.115    5.8347
   26.130    5.8662
   26.145    5.8031
   26.160    5.7925
   26.175    5.9821
   26.190    6.0979
   26.205    5.8452
   26.220    6.0348
   26.235    5.7715
   26.250    5.7399
   26.265    5.6977
   26.280    6.0348
   26.295    6.1085
   26.310    5.7083
   26.325    5.3607
   26.340    5.7504
   26.355    5.6872
   26.370    5.7083
   26.385    5.7504
   26.400    6.0242
   26.415    5.8873
   26.430    5.7609
   26.445    5.6135
   26.460    5.7820
   26.475    5.5924
   26.490    5.8241
   26.505    5.9400
   26.520    5.9189
   26.535    5.8031
   26.550    5.8768
   26.565    5.7188
   26.580    5.4134
   26.595    5.8768
   26.610    5.7820
   26.625    5.5082
   26.640    5.4239
   26.655    5.7820
   26.670    5.3923
   26.685    5.7504
   26.700    5.4028
   26.715    5.5714
   26.730    5.4555
   26.745    5.5608
   26.760    5.9505
   26.775    5.8031
   26.790    5.7188
   26.805    5.6977
   26.820    5.6345
   26.835    5.7504
   26.850    5.6029
   26.865    5.6240
   26.880    5.7293
   26.895    5.8452
   26.910    5.9189
   26.925    6.0664
   26.940    6.0242
   26.955    6.3296
   26.970    5.8452
   26.985    5.5714
   27.000    5.8347
   27.015    5.8136
   27.030    5.7609
   27.045    5.4028
   27.060    5.7504
   27.075    5.6135
   27.090    5.3397
   27.105    5.3081
   27.120    5.5503
   27.135    5.9610
   27.150    5.5924
   27.165    5.6661
   27.180    5.6977
   27.195    5.7925
   27.210    5.2449
   27.225    5.1290
   27.240    5.5819
   27.255    5.6451
   27.270    5.9294
   27.285    5.8768
   27.300    5.8557
   27.315    5.7609
   27.330    6.0453
   27.345    5.9084
   27.360    5.3923
   27.375    5.5082
   27.390    5.7820
   27.405    5.1711
   27.420    5.3818
   27.435    5.5398
   27.450    5.4976
   27.465    5.7399
   27.480    5.7820
   27.495    5.5187
   27.510    5.4555
   27.525    5.9926
   27.540    5.4344
   27.555    5.4976
   27.570    5.3712
   27.585    5.5187
   27.600    5.6029
   27.615    5.4766
   27.630    5.4344
   27.645    5.4239
   27.660    5.6872
   27.675    5.5819
   27.690    5.5082
   27.705    5.6872
   27.720    5.5608
   27.735    5.6029
   27.750    5.6977
   27.765    5.5082
   27.780    5.5924
   27.795    5.3081
   27.810    5.4239
   27.825    5.4344
   27.840    5.4134
   27.855    5.6451
   27.870    5.3186
   27.885    5.4134
   27.900    5.6661
   27.915    5.4766
   27.930    5.5924
   27.945    6.0137
   27.960    5.9400
   27.975    6.1295
   27.990    5.8978
   28.005    5.8873
   28.020    5.7925
   28.035    6.0137
   28.050    5.6240
   28.065    5.8136
   28.080    5.8347
   28.095    5.6661
   28.110    5.9505
   28.125    5.5082
   28.140    5.7504
   28.155    5.4871
   28.170    5.7609
   28.185    5.8978
   28.200    5.7820
   28.215    5.6556
   28.230    5.6977
   28.245    5.6240
   28.260    5.5819
   28.275    5.3291
   28.290    5.7188
   28.305    6.0453
   28.320    5.7820
   28.335    5.7399
   28.350    5.6451
   28.365    5.6029
   28.380    5.2870
   28.395    5.6451
   28.410    5.5608
   28.425    5.6872
   28.440    5.6240
   28.455    5.5292
   28.470    5.7399
   28.485    5.3818
   28.500    5.2554
   28.515    5.4344
   28.530    5.2765
   28.545    5.2554
   28.560    5.2449
   28.575    5.6661
   28.590    5.1817
   28.605    5.3607
   28.620    5.3923
   28.635    5.3818
   28.650    5.6767
   28.665    5.3502
   28.680    5.9610
   28.695    5.7188
   28.710    5.5819
   28.725    5.2027
   28.740    5.1290
   28.755    5.2765
   28.770    5.3712
   28.785    5.3818
   28.800    5.1501
   28.815    5.2449
   28.830    5.4344
   28.845    5.2238
   28.860    5.2027
   28.875    5.6451
   28.890    5.3186
   28.905    5.7083
   28.920    5.6767
   28.935    5.6872
   28.950    5.6029
   28.965    5.4239
   28.980    5.3818
   28.995    5.4239
   29.010    5.4555
   29.025    5.5398
   29.040    5.6135
   29.055    5.4450
   29.070    5.4871
   29.085    5.3818
   29.100    5.4028
   29.115    5.7399
   29.130    5.4239
   29.145    5.4450
   29.160    5.3081
   29.175    4.9816
   29.190    5.2765
   29.205    5.0869
   29.220    5.1817
   29.235    5.4344
   29.250    5.4555
   29.265    5.3291
   29.280    5.0764
   29.295    5.0553
   29.310    5.5292
   29.325    5.0132
   29.340    5.0132
   29.355    5.4450
   29.370    5.5714
   29.385    5.4239
   29.400    5.3607
   29.415    5.2554
   29.430    5.1290
   29.445    4.9289
   29.460    4.9710
   29.475    5.2554
   29.490    5.1501
   29.505    5.2870
   29.520    5.1185
   29.535    5.3607
   29.550    5.4976
   29.565    5.5082
   29.580    5.3081
   29.595    5.0658
   29.610    5.3818
   29.625    5.0974
   29.640    5.4450
   29.655    5.2449
   29.670    5.0553
   29.685    5.4766
   29.700    5.4976
   29.715    4.9500
   29.730    4.7604
   29.745    5.1817
   29.760    5.1817
   29.775    5.2343
   29.790    5.7293
   29.805    5.7504
   29.820    5.1606
   29.835    5.3502
   29.850    5.1817
   29.865    5.2659
   29.880    5.5398
   29.895    5.2343
   29.910    5.1817
   29.925    5.2449
   29.940    5.1395
   29.955    4.9500
   29.970    5.4871
   29.985    5.2027
   30.000    5.4871
   30.015    5.2343
   30.030    5.0237
   30.045    5.0448
   30.060    5.1501
   30.075    5.3291
   30.090    5.4450
   30.105    5.4976
   30.120    5.4344
   30.135    4.9289
   30.150    5.0974
   30.165    4.7183
   30.180    5.1080
   30.195    5.0026
   30.210    5.4028
   30.225    5.0132
   30.240    4.9710
   30.255    5.0026
   30.270    5.2449
   30.285    5.3291
   30.300    4.8341
   30.315    5.2870
   30.330    5.3081
   30.345    5.3291
   30.360    4.9710
   30.375    5.1817
   30.390    5.2133
   30.405    5.4028
   30.420    5.1290
   30.435    5.4239
   30.450    5.1395
   30.465    5.0448
   30.480    5.2343
   30.495    5.1080
   30.510    5.1395
   30.525    5.1606
   30.540    5.1817
   30.555    5.0342
   30.570    5.0553
   30.585    5.1080
   30.600    5.0237
   30.615    4.8868
   30.630    5.0658
   30.645    5.1395
   30.660    5.2238
   30.675    5.3502
   30.690    5.4028
   30.705    5.3397
   30.720    4.9500
   30.735    4.8447
   30.750    4.7288
   30.765    4.9289
   30.780    4.8236
   30.795    5.1501
   30.810    5.1290
   30.825    4.6445
   30.840    5.2238
   30.855    5.1922
   30.870    4.9710
   30.885    4.9500
   30.900    5.2238
   30.915    5.1922
   30.930    5.2343
   30.945    5.0342
   30.960    4.9500
   30.975    5.0237
   30.990    5.2449
   31.005    4.7709
   31.020    5.1080
   31.035    5.2238
   31.050    4.9394
   31.065    5.2133
   31.080    4.9816
   31.095    5.2343
   31.110    5.1606
   31.125    4.9605
   31.140    5.2659
   31.155    4.8131
   31.170    4.8447
   31.185    4.7393
   31.200    4.6867
   31.215    4.8763
   31.230    4.7604
   31.245    4.9394
   31.260    5.1290
   31.275    5.1395
   31.290    4.8868
   31.305    4.8025
   31.320    4.9500
   31.335    4.5392
   31.350    4.8025
   31.365    4.7183
   31.380    4.8552
   31.395    4.8973
   31.410    4.8973
   31.425    4.9816
   31.440    4.9394
   31.455    4.8868
   31.470    5.0764
   31.485    4.9816
   31.500    5.3607
   31.515    5.3291
   31.530    5.1501
   31.545    5.0132
   31.560    4.6445
   31.575    4.9921
   31.590    5.1080
   31.605    5.1501
   31.620    5.2343
   31.635    5.1290
   31.650    4.8341
   31.665    5.0553
   31.680    4.9394
   31.695    4.9605
   31.710    5.0869
   31.725    4.8973
   31.740    4.9710
   31.755    4.9289
   31.770    4.7815
   31.785    5.3291
   31.800    5.3818
   31.815    5.4660
   31.830    5.3186
   31.845    5.0026
   31.860    5.3712
   31.875    5.1185
   31.890    5.3081
   31.905    5.0764
   31.920    5.0764
   31.935    5.4134
   31.950    4.9184
   31.965    4.9289
   31.980    4.9184
   31.995    5.2975
   32.010    5.2554
   32.025    5.3291
   32.040    5.6661
   32.055    5.6767
   32.070    5.8452
   32.085    5.9505
   32.100    5.9610
   32.115    5.9294
   32.130    5.7293
   32.145    5.9294
   32.160    5.3923
   32.175    4.7288
   32.190    5.0553
   32.205    4.9394
   32.220    4.9710
   32.235    5.1395
   32.250    4.8552
   32.265    5.0026
   32.280    4.8552
   32.295    4.8447
   32.310    4.8763
   32.325    4.7288
   32.340    4.6024
   32.355    4.8657
   32.370    4.8973
   32.385    4.8025
   32.400    4.9394
   32.415    4.7499
   32.430    4.6656
   32.445    4.8552
   32.460    4.6340
   32.475    4.7920
   32.490    4.8341
   32.505    4.5182
   32.520    4.8657
   32.535    4.8025
   32.550    4.5603
   32.565    4.5603
   32.580    4.7288
   32.595    4.9500
   32.610    4.7815
   32.625    4.6867
   32.640    4.2654
   32.655    4.5814
   32.670    4.7077
   32.685    4.5182
   32.700    5.1080
   32.715    4.8447
   32.730    4.5708
   32.745    4.7393
   32.760    4.8025
   32.775    4.5708
   32.790    4.2654
   32.805    4.8447
   32.820    4.6867
   32.835    4.6235
   32.850    4.7604
   32.865    5.0132
   32.880    4.8236
   32.895    4.8025
   32.910    4.9500
   32.925    4.7288
   32.940    4.6235
   32.955    4.5708
   32.970    4.6340
   32.985    4.7604
   33.000    4.6445
   33.015    4.4971
   33.030    4.8868
   33.045    4.5287
   33.060    4.7288
   33.075    4.5603
   33.090    4.6972
   33.105    4.8236
   33.120    4.4655
   33.135    4.7288
   33.150    4.9605
   33.165    5.0342
   33.180    4.6235
   33.195    4.7183
   33.210    4.5392
   33.225    4.3181
   33.240    4.4444
   33.255    4.7709
   33.270    4.9921
   33.285    4.9289
   33.300    4.2338
   33.315    4.6130
   33.330    4.7499
   33.345    5.0342
   33.360    4.8657
   33.375    4.6867
   33.390    4.5814
   33.405    4.4760
   33.420    4.8341
   33.435    4.8447
   33.450    5.1395
   33.465    4.6130
   33.480    4.4128
   33.495    4.6130
   33.510    4.5392
   33.525    4.6130
   33.540    4.8025
   33.555    5.0237
   33.570    4.7393
   33.585    4.7709
   33.600    4.5603
   33.615    4.5603
   33.630    4.6867
   33.645    4.7077
   33.660    4.6972
   33.675    4.2338
   33.690    4.7499
   33.705    4.5498
   33.720    4.7920
   33.735    5.0764
   33.750    4.9394
   33.765    4.9078
   33.780    4.7077
   33.795    4.8657
   33.810    4.8868
   33.825    5.0132
   33.840    5.1290
   33.855    4.8552
   33.870    4.9710
   33.885    4.8868
   33.900    4.9710
   33.915    5.0237
   33.930    5.1185
   33.945    4.8763
   33.960    4.9921
   33.975    4.6972
   33.990    4.2233
   34.005    4.5814
   34.020    4.4971
   34.035    4.5182
   34.050    4.4550
   34.065    4.3813
   34.080    4.6445
   34.095    4.8341
   34.110    4.5498
   34.125    4.4550
   34.140    4.1706
   34.155    4.6445
   34.170    4.6445
   34.185    4.7288
   34.200    4.7288
   34.215    4.5392
   34.230    4.7183
   34.245    4.7920
   34.260    4.6235
   34.275    4.8552
   34.290    4.4655
   34.305    4.2865
   34.320    4.8025
   34.335    4.6340
   34.350    4.5076
   34.365    4.4550
   34.380    4.2549
   34.395    4.4023
   34.410    4.6235
   34.425    4.5919
   34.440    4.4339
   34.455    4.6445
   34.470    4.5182
   34.485    4.4128
   34.500    4.4971
   34.515    4.5498
   34.530    4.4023
   34.545    4.7604
   34.560    4.5919
   34.575    4.5498
   34.590    4.3813
   34.605    4.4550
   34.620    4.1074
   34.635    4.1811
   34.650    4.3707
   34.665    4.4234
   34.680    4.6867
   34.695    4.1390
   34.710    4.3602
   34.725    4.8341
   34.740    4.6867
   34.755    4.1917
   34.770    4.8131
   34.785    4.3813
   34.800    4.5708
   34.815    4.8131
   34.830    4.4234
   34.845    4.2443
   34.860    4.6340
   34.875    4.7604
   34.890    4.4234
   34.905    4.3181
   34.920    4.4760
   34.935    4.2759
   34.950    4.3602
   34.965    4.4023
   34.980    4.7499
   34.995    4.5919
   35.010    4.5392
   35.025    4.7393
   35.040    4.3497
   35.055    4.4655
   35.070    4.6340
   35.085    4.6130
   35.100    4.4550
   35.115    4.3813
   35.130    4.3602
   35.145    4.5287
   35.160    4.6972
   35.175    4.4866
   35.190    4.3391
   35.205    4.5708
   35.220    4.6130
   35.235    4.6130
   35.250    4.4444
   35.265    4.5182
   35.280    4.3181
   35.295    4.1917
   35.310    4.1917
   35.325    4.5392
   35.340    4.3181
   35.355    4.8763
   35.370    4.2127
   35.385    4.5076
   35.400    4.5919
   35.415    4.7815
   35.430    4.2865
   35.445    4.1180
   35.460    4.5076
   35.475    4.5076
   35.490    4.3602
   35.505    4.4128
   35.520    4.5076
   35.535    4.3391
   35.550    4.4655
   35.565    4.1706
   35.580    4.3813
   35.595    4.2549
   35.610    4.3181
   35.625    4.5182
   35.640    4.3497
   35.655    4.2233
   35.670    4.2759
   35.685    4.2127
   35.700    4.6761
   35.715    4.4550
   35.730    4.2654
   35.745    4.2759
   35.760    4.3918
   35.775    4.4760
   35.790    4.2127
   35.805    4.5287
   35.820    4.3813
   35.835    4.2865
   35.850    4.2443
   35.865    4.6551
   35.880    4.4971
   35.895    3.9916
   35.910    4.0758
   35.925    4.1601
   35.940    4.2233
   35.955    4.0758
   35.970    4.2338
   35.985    4.5182
   36.000    4.2865
   36.015    4.4760
   36.030    4.6972
   36.045    4.2443
   36.060    4.0969
   36.075    4.1917
   36.090    4.0442
   36.105    4.0969
   36.120    4.3391
   36.135    4.2549
   36.150    4.2338
   36.165    4.2022
   36.180    4.2970
   36.195    4.4023
   36.210    4.0864
   36.225    4.4550
   36.240    3.8336
   36.255    4.4655
   36.270    4.3918
   36.285    4.5076
   36.300    4.5076
   36.315    4.3918
   36.330    4.4339
   36.345    4.1706
   36.360    4.3391
   36.375    4.4128
   36.390    4.2865
   36.405    4.3181
   36.420    4.4128
   36.435    4.4655
   36.450    4.3813
   36.465    4.3813
   36.480    4.3391
   36.495    4.3602
   36.510    4.3918
   36.525    4.5919
   36.540    4.3918
   36.555    4.0758
   36.570    4.0969
   36.585    4.1496
   36.600    4.3075
   36.615    4.3075
   36.630    4.0864
   36.645    4.0442
   36.660    4.1601
   36.675    4.2970
   36.690    4.3075
   36.705    4.5814
   36.720    4.6024
   36.735    4.2549
   36.750    4.5919
   36.765    4.1706
   36.780    4.2127
   36.795    4.4655
   36.810    4.4023
   36.825    4.2127
   36.840    4.4760
   36.855    4.3286
   36.870    4.4760
   36.885    4.3075
   36.900    4.3813
   36.915    4.6445
   36.930    4.5603
   36.945    4.4023
   36.960    4.4550
   36.975    4.0969
   36.990    3.9494
   37.005    4.0337
   37.020    4.0653
   37.035    4.2865
   37.050    4.1285
   37.065    4.2654
   37.080    4.4550
   37.095    4.0969
   37.110    4.2759
   37.125    4.0337
   37.140    4.3181
   37.155    4.4760
   37.170    4.1706
   37.185    4.0232
   37.200    4.1496
   37.215    4.3602
   37.230    4.2233
   37.245    4.1390
   37.260    4.1917
   37.275    4.1811
   37.290    4.0126
   37.305    4.2022
   37.320    3.9600
   37.335    4.0758
   37.350    4.5287
   37.365    4.2022
   37.380    4.2654
   37.395    4.2970
   37.410    4.1180
   37.425    3.9705
   37.440    4.0864
   37.455    4.2022
   37.470    4.0442
   37.485    4.1285
   37.500    4.0758
   37.515    4.2338
   37.530    4.0548
   37.545    4.3918
   37.560    4.2022
   37.575    4.3286
   37.590    4.4866
   37.605    4.4866
   37.620    4.3181
   37.635    4.3497
   37.650    4.0864
   37.665    3.8336
   37.680    4.1601
   37.695    4.1074
   37.710    4.3497
   37.725    4.2970
   37.740    4.0758
   37.755    4.4550
   37.770    4.1706
   37.785    4.0021
   37.800    4.4444
   37.815    4.1706
   37.830    4.3707
   37.845    4.5603
   37.860    4.5392
   37.875    4.4971
   37.890    3.9389
   37.905    3.9705
   37.920    4.0337
   37.935    4.2443
   37.950    4.4550
   37.965    4.2865
   37.980    3.9179
   37.995    4.1496
   38.010    4.2127
   38.025    4.0864
   38.040    4.2127
   38.055    4.2127
   38.070    4.1811
   38.085    3.8863
   38.100    4.1917
   38.115    4.0969
   38.130    4.3075
   38.145    4.3813
   38.160    4.3391
   38.175    4.3813
   38.190    4.2233
   38.205    4.2022
   38.220    4.4655
   38.235    4.4866
   38.250    4.5814
   38.265    4.0442
   38.280    4.3813
   38.295    4.2443
   38.310    4.2970
   38.325    4.4866
   38.340    4.5392
   38.355    4.1285
   38.370    3.9600
   38.385    3.9705
   38.400    4.0969
   38.415    4.2338
   38.430    4.5076
   38.445    4.0969
   38.460    4.1285
   38.475    4.1390
   38.490    4.3602
   38.505    4.1811
   38.520    4.1180
   38.535    4.3813
   38.550    4.3707
   38.565    4.1390
   38.580    4.3918
   38.595    4.5603
   38.610    4.0653
   38.625    4.4023
   38.640    4.0021
   38.655    4.1180
   38.670    4.3391
   38.685    4.1811
   38.700    4.0021
   38.715    4.0653
   38.730    4.1601
   38.745    4.0548
   38.760    4.1390
   38.775    4.1180
   38.790    4.1917
   38.805    4.2443
   38.820    4.0548
   38.835    4.1811
   38.850    3.8757
   38.865    3.9916
   38.880    3.7493
   38.895    4.0969
   38.910    4.5814
   38.925    4.4234
   38.940    4.2233
   38.955    4.2759
   38.970    4.2865
   38.985    3.9810
   39.000    3.8652
   39.015    4.1180
   39.030    4.1285
   39.045    4.0548
   39.060    4.2759
   39.075    4.1811
   39.090    3.9073
   39.105    3.9810
   39.120    4.1074
   39.135    4.2022
   39.150    4.0969
   39.165    3.9600
   39.180    3.9073
   39.195    4.3497
   39.210    4.1180
   39.225    4.0548
   39.240    4.2233
   39.255    4.2759
   39.270    3.8968
   39.285    4.1390
   39.300    3.8547
   39.315    4.1074
   39.330    4.2022
   39.345    3.7283
   39.360    4.1917
   39.375    4.1180
   39.390    4.0969
   39.405    4.1390
   39.420    4.3918
   39.435    3.9916
   39.450    4.1285
   39.465    4.0232
   39.480    4.1706
   39.495    4.0969
   39.510    4.2022
   39.525    3.9389
   39.540    3.8757
   39.555    4.0337
   39.570    4.2338
   39.585    4.2233
   39.600    3.9810
   39.615    3.9810
   39.630    4.1180
   39.645    4.4971
   39.660    3.8863
   39.675    4.1285
   39.690    4.1917
   39.705    4.1285
   39.720    4.2338
   39.735    4.0337
   39.750    3.9810
   39.765    3.9810
   39.780    4.0969
   39.795    4.2022
   39.810    4.3181
   39.825    4.2443
   39.840    3.9810
   39.855    4.3918
   39.870    4.2443
   39.885    3.8757
   39.900    3.9494
   39.915    4.0548
   39.930    3.8863
   39.945    4.0021
   39.960    4.0969
   39.975    4.0337
   39.990    4.1917
