    1.500    9.2522
    1.515    9.2680
    1.530    9.2417
    1.545    9.1259
    1.560    9.1732
    1.575    8.9942
    1.590    9.0258
    1.605    9.1627
    1.620    9.0574
    1.635    9.0153
    1.650    9.0311
    1.665    8.5940
    1.680    8.5571
    1.695    8.8415
    1.710    8.5835
    1.725    8.0516
    1.740    8.3465
    1.755    8.1938
    1.770    8.6783
    1.785    8.5255
    1.800    8.2622
    1.815    8.1306
    1.830    8.1253
    1.845    7.8146
    1.860    7.7778
    1.875    7.9831
    1.890    7.9463
    1.905    7.9989
    1.920    7.8094
    1.935    7.7357
    1.950    7.6672
    1.965    7.6356
    1.980    7.5935
    1.995    7.5777
    2.010    7.7357
    2.025    7.6514
    2.040    7.5777
    2.055    7.4250
    2.070    7.6251
    2.085    7.4144
    2.100    7.2933
    2.115    7.6409
    2.130    7.1143
    2.145    7.4302
    2.160    7.2249
    2.175    7.3565
    2.190    7.0827
    2.205    7.4934
    2.220    6.9721
    2.235    7.0248
    2.250    7.2196
    2.265    7.1248
    2.280    7.2038
    2.295    7.1406
    2.310    6.9774
    2.325    7.0563
    2.340    7.1301
    2.355    6.6719
    2.370    7.2143
    2.385    7.0511
    2.400    7.0142
    2.415    6.8826
    2.430    6.6140
    2.445    6.7667
    2.460    6.7509
    2.475    6.8299
    2.490    6.9194
    2.505    6.8615
    2.520    6.7720
    2.535    6.6561
    2.550    6.6825
    2.565    6.7193
    2.580    6.7878
    2.595    6.5877
    2.610    6.5982
    2.625    6.9668
    2.640    6.8194
    2.655    6.9932
    2.670    6.7193
    2.685    6.7457
    2.700    6.9089
    2.715    6.7615
    2.730    6.6193
    2.745    6.9932
    2.760    7.0458
    2.775    6.8720
    2.790    6.9668
    2.805    6.9616
    2.820    6.7930
    2.835    6.8720
    2.850    6.8615
    2.865    6.7246
    2.880    7.0616
    2.895    7.0721
    2.910    7.2091
    2.925    6.9458
    2.940    7.1406
    2.955    7.3565
    2.970    7.5355
    2.985    7.4829
    3.000    7.5513
    3.015    7.4671
    3.030    8.1306
    3.045    7.9094
    3.060    8.0937
    3.075    8.0937
    3.090    8.1569
    3.105    8.2780
    3.120    8.5677
    3.135    8.8468
    3.150    8.9679
    3.165    9.1417
    3.180    9.4945
    3.195    9.5945
    3.210   10.0053
    3.225   10.2370
    3.240   10.6319
    3.255   10.9637
    3.270   11.5377
    3.285   11.4692
    3.300   11.9537
    3.315   12.1590
    3.330   12.2854
    3.345   13.4018
    3.360   13.8863
    3.375   14.2180
    3.390   14.4339
    3.405   15.2185
    3.420   15.7715
    3.435   16.0242
    3.450   16.2770
    3.465   16.7351
    3.480   17.0669
    3.495   16.4244
    3.510   16.8878
    3.525   16.4297
    3.540   16.1664
    3.555   15.3712
    3.570   14.2970
    3.585   13.7072
    3.600   12.9595
    3.615   13.2070
    3.630   12.6593
    3.645   11.7746
    3.660   11.3586
    3.675   10.8425
    3.690   11.0953
    3.705   11.2217
    3.720   10.8583
    3.735   10.7899
    3.750   10.8268
    3.765   10.4476
    3.780   10.6003
    3.795   10.8478
    3.810   11.0058
    3.825   10.9479
    3.840   10.9057
    3.855   10.8636
    3.870   10.8636
    3.885   10.7636
    3.900   10.9847
    3.915   10.6951
    3.930   10.3160
    3.945   10.2633
    3.960    9.8631
    3.975    9.7525
    3.990    9.5577
    4.005    9.4787
    4.020    9.3102
    4.035    9.1417
    4.050    8.8889
    4.065    8.2622
    4.080    8.2096
    4.095    7.9463
    4.110    7.7409
    4.125    7.1301
    4.140    7.1459
    4.155    7.0405
    4.170    7.2143
    4.185    7.1195
    4.200    6.7351
    4.215    6.6351
    4.230    6.6614
    4.245    6.6087
    4.260    6.4086
    4.275    6.4244
    4.290    6.2138
    4.305    6.3928
    4.320    6.2928
    4.335    6.1611
    4.350    5.9031
    4.365    6.2717
    4.380    6.4613
    4.395    6.5403
    4.410    6.1032
    4.425    6.1243
    4.440    6.2612
    4.455    6.1032
    4.470    6.0190
    4.485    6.0506
    4.500    6.0979
    4.515    5.8873
    4.530    6.0927
    4.545    6.3349
    4.560    6.0874
    4.575    6.2296
    4.590    6.1927
    4.605    6.0453
    4.620    6.1243
    4.635    6.2559
    4.650    6.3454
    4.665    6.1506
    4.680    6.2349
    4.695    6.0611
    4.710    5.9874
    4.725    5.8557
    4.740    6.2401
    4.755    6.2770
    4.770    6.0874
    4.785    5.9558
    4.800    5.9189
    4.815    6.1190
    4.830    6.2507
    4.845    6.0084
    4.860    6.1032
    4.875    6.0084
    4.890    6.0506
    4.905    6.4244
    4.920    6.1295
    4.935    6.2401
    4.950    6.1295
    4.965    6.3086
    4.980    6.3138
    4.995    6.5508
    5.010    6.2823
    5.025    6.3191
    5.040    6.3560
    5.055    6.3718
    5.070    6.5350
    5.085    6.5456
    5.100    6.7141
    5.115    6.7404
    5.130    6.7404
    5.145    6.8720
    5.160    6.6825
    5.175    6.8931
    5.190    6.9668
    5.205    7.0090
    5.220    7.2459
    5.235    7.1985
    5.250    7.3670
    5.265    7.1143
    5.280    7.0827
    5.295    7.4302
    5.310    7.3881
    5.325    7.3986
    5.340    7.5145
    5.355    7.3881
    5.370    7.6145
    5.385    8.0937
    5.400    7.7199
    5.415    7.8094
    5.430    7.8041
    5.445    7.8726
    5.460    7.8673
    5.475    7.7462
    5.490    8.2938
    5.505    8.4255
    5.520    7.9989
    5.535    7.7409
    5.550    7.9831
    5.565    8.0990
    5.580    7.6777
    5.595    7.8357
    5.610    7.9358
    5.625    8.1991
    5.640    8.1148
    5.655    7.8462
    5.670    8.0147
    5.685    7.9937
    5.700    7.9937
    5.715    7.7041
    5.730    7.7199
    5.745    7.6883
    5.760    7.6356
    5.775    7.4408
    5.790    7.6935
    5.805    7.4092
    5.820    7.1195
    5.835    7.2459
    5.850    7.1143
    5.865    7.2249
    5.880    7.2459
    5.895    6.9879
    5.910    6.7825
    5.925    6.6877
    5.940    6.6298
    5.955    6.7983
    5.970    6.8141
    5.985    6.6614
    6.000    6.2033
    6.015    6.3981
    6.030    6.0453
    6.045    6.0137
    6.060    6.3296
    6.075    6.1822
    6.090    6.2401
    6.105    6.0506
    6.120    6.0979
    6.135    6.0979
    6.150    6.0558
    6.165    5.7293
    6.180    6.0506
    6.195    5.9084
    6.210    6.0979
    6.225    5.9926
    6.240    5.8031
    6.255    5.8452
    6.270    5.9084
    6.285    5.9558
    6.300    5.7504
    6.315    5.9768
    6.330    5.7399
    6.345    5.5503
    6.360    5.4976
    6.375    5.8768
    6.390    5.5134
    6.405    5.4028
    6.420    5.7293
    6.435    5.6187
    6.450    5.5134
    6.465    5.3239
    6.480    5.3923
    6.495    5.6819
    6.510    5.5608
    6.525    5.5240
    6.540    5.7451
    6.555    5.7978
    6.570    5.5082
    6.585    5.5608
    6.600    5.4713
    6.615    5.5292
    6.630    5.2080
    6.645    5.4976
    6.660    5.5134
    6.675    5.7715
    6.690    5.3923
    6.705    5.5556
    6.720    5.7083
    6.735    5.4818
    6.750    5.5398
    6.765    5.6187
    6.780    5.8978
    6.795    5.7820
    6.810    5.7609
    6.825    5.7030
    6.840    5.9768
    6.855    5.7346
    6.870    6.2033
    6.885    6.0032
    6.900    5.9558
    6.915    6.4192
    6.930    6.4560
    6.945    6.5771
    6.960    6.6509
    6.975    6.6035
    6.990    6.2823
    7.005    6.3086
    7.020    6.3928
    7.035    6.1137
    7.050    6.1243
    7.065    6.2296
    7.080    5.8347
    7.095    5.4608
    7.110    5.5082
    7.125    5.5082
    7.140    5.4292
    7.155    5.5082
    7.170    5.2343
    7.185    5.0922
    7.200    4.9289
    7.215    4.9500
    7.230    5.0184
    7.245    4.7815
    7.260    4.7288
    7.275    4.7288
    7.290    4.8394
    7.305    4.8289
    7.320    4.7235
    7.335    4.8763
    7.350    4.7973
    7.365    4.7288
    7.380    4.4971
    7.395    4.5129
    7.410    4.5340
    7.425    4.6709
    7.440    4.8183
    7.455    4.6867
    7.470    4.5498
    7.485    4.4813
    7.500    4.5972
    7.515    4.5182
    7.530    4.4971
    7.545    4.4813
    7.560    4.6077
    7.575    4.5182
    7.590    4.4181
    7.605    4.4813
    7.620    4.6445
    7.635    4.6761
    7.650    4.9131
    7.665    4.7025
    7.680    4.6603
    7.695    4.4760
    7.710    4.6603
    7.725    4.7077
    7.740    4.7973
    7.755    4.7235
    7.770    4.9500
    7.785    4.9447
    7.800    4.7130
    7.815    4.6603
    7.830    4.7077
    7.845    4.8920
    7.860    4.7815
    7.875    4.7499
    7.890    4.4339
    7.905    4.8499
    7.920    4.8552
    7.935    4.6656
    7.950    4.6024
    7.965    4.6077
    7.980    4.3918
    7.995    4.5603
    8.010    4.6340
    8.025    4.3971
    8.040    4.3760
    8.055    4.1811
    8.070    4.1654
    8.085    4.3181
    8.100    4.1548
    8.115    4.1601
    8.130    4.1969
    8.145    4.2654
    8.160    4.0179
    8.175    3.9336
    8.190    4.0284
    8.205    3.9916
    8.220    4.0442
    8.235    3.7967
    8.250    3.8810
    8.265    3.9547
    8.280    4.1548
    8.295    4.1232
    8.310    4.0758
    8.325    3.9336
    8.340    3.6914
    8.355    3.6914
    8.370    3.7125
    8.385    3.7493
    8.400    3.7704
    8.415    3.9705
    8.430    3.6756
    8.445    3.5598
    8.460    3.8073
    8.475    3.6967
    8.490    3.5440
    8.505    3.3965
    8.520    3.5018
    8.535    3.5598
    8.550    3.4755
    8.565    3.7493
    8.580    3.7704
    8.595    3.5914
    8.610    3.5176
    8.625    3.6493
    8.640    3.5598
    8.655    3.5756
    8.670    3.5914
    8.685    3.6177
    8.700    3.7230
    8.715    3.4913
    8.730    3.5387
    8.745    3.5124
    8.760    3.5387
    8.775    3.5229
    8.790    3.6335
    8.805    3.5176
    8.820    3.6651
    8.835    3.4597
    8.850    3.5282
    8.865    3.5808
    8.880    3.4860
    8.895    3.5124
    8.910    3.5387
    8.925    3.5545
    8.940    3.6072
    8.955    3.5598
    8.970    3.4439
    8.985    3.6177
    9.000    3.5176
    9.015    3.4492
    9.030    3.4860
    9.045    3.3386
    9.060    3.4702
    9.075    3.5018
    9.090    3.6704
    9.105    3.3649
    9.120    3.3439
    9.135    3.4860
    9.150    3.5492
    9.165    3.4650
    9.180    3.4597
    9.195    3.4966
    9.210    3.4966
    9.225    3.3175
    9.240    3.4544
    9.255    3.2754
    9.270    3.4860
    9.285    3.6914
    9.300    3.5650
    9.315    3.2596
    9.330    3.2385
    9.345    3.4755
    9.360    3.1069
    9.375    3.2438
    9.390    3.5966
    9.405    3.2280
    9.420    3.4229
    9.435    3.3386
    9.450    3.3386
    9.465    3.4071
    9.480    3.3913
    9.495    3.3860
    9.510    3.2070
    9.525    3.3702
    9.540    3.6335
    9.555    3.4702
    9.570    3.3913
    9.585    3.3597
    9.600    3.3860
    9.615    3.3597
    9.630    3.2965
    9.645    3.4176
    9.660    3.4176
    9.675    3.3755
    9.690    3.4808
    9.705    3.2859
    9.720    3.4650
    9.735    3.2807
    9.750    3.4123
    9.765    3.3439
    9.780    3.2385
    9.795    3.3175
    9.810    3.2965
    9.825    3.1122
    9.840    3.3597
    9.855    3.4808
    9.870    3.4387
    9.885    3.2543
    9.900    3.3491
    9.915    3.3333
    9.930    3.3123
    9.945    3.3281
    9.960    3.4229
    9.975    3.5861
    9.990    3.3333
   10.005    3.1648
   10.020    3.4597
   10.035    3.5440
   10.050    3.4387
   10.065    3.4597
   10.080    3.4544
   10.095    3.5440
   10.110    3.5176
   10.125    3.4913
   10.140    3.3017
   10.155    3.5440
   10.170    3.4755
   10.185    3.5071
   10.200    3.3755
   10.215    3.2596
   10.230    3.3649
   10.245    3.3649
   10.260    3.3281
   10.275    3.3965
   10.290    3.3702
   10.305    3.4123
   10.320    3.6230
   10.335    3.3649
   10.350    3.5387
   10.365    3.3807
   10.380    3.4492
   10.395    3.5966
   10.410    3.3597
   10.425    3.6335
   10.440    3.6493
   10.455    3.4650
   10.470    3.2543
   10.485    3.6282
   10.500    3.5124
   10.515    3.5914
   10.530    3.5071
   10.545    3.5650
   10.560    3.5334
   10.575    3.8336
   10.590    3.6546
   10.605    3.6651
   10.620    3.5387
   10.635    3.5914
   10.650    3.5756
   10.665    3.5071
   10.680    3.5808
   10.695    3.3755
   10.710    3.6862
   10.725    3.7651
   10.740    3.7125
   10.755    3.5545
   10.770    3.4966
   10.785    3.5229
   10.800    3.5176
   10.815    3.6546
   10.830    3.5756
   10.845    3.8283
   10.860    3.8389
   10.875    3.7177
   10.890    3.6072
   10.905    3.6704
   10.920    3.7704
   10.935    3.5334
   10.950    3.5387
   10.965    3.8389
   10.980    3.7967
   10.995    3.6756
   11.010    3.5808
   11.025    3.6756
   11.040    3.8283
   11.055    3.8073
   11.070    3.3860
   11.085    3.6230
   11.100    3.6756
   11.115    3.7283
   11.130    3.8599
   11.145    3.8073
   11.160    3.6177
   11.175    3.7072
   11.190    3.7125
   11.205    3.6440
   11.220    3.6862
   11.235    3.5492
   11.250    3.7493
   11.265    3.9021
   11.280    3.6704
   11.295    3.8336
   11.310    3.7335
   11.325    3.6388
   11.340    3.6177
   11.355    3.6440
   11.370    3.7441
   11.385    3.6335
   11.400    3.6072
   11.415    3.8915
   11.430    3.8231
   11.445    3.5756
   11.460    3.7335
   11.475    3.5756
   11.490    3.7177
   11.505    3.8178
   11.520    3.6335
   11.535    3.6862
   11.550    3.8231
   11.565    3.8441
   11.580    3.7335
   11.595    3.8231
   11.610    3.5492
   11.625    3.5650
   11.640    3.5861
   11.655    3.5703
   11.670    3.6598
   11.685    3.6072
   11.700    3.6546
   11.715    3.4913
   11.730    3.6388
   11.745    3.5808
   11.760    3.6809
   11.775    3.8020
   11.790    3.6019
   11.805    3.4334
   11.820    3.5229
   11.835    3.3860
   11.850    3.5440
   11.865    3.6493
   11.880    3.5808
   11.895    3.5703
   11.910    3.8599
   11.925    3.7230
   11.940    3.6914
   11.955    3.5756
   11.970    3.4492
   11.985    3.3965
   12.000    3.4597
   12.015    3.5071
   12.030    3.5018
   12.045    3.4123
   12.060    3.4966
   12.075    3.5861
   12.090    3.3386
   12.105    3.5282
   12.120    3.5598
   12.135    3.5071
   12.150    3.4334
   12.165    3.5703
   12.180    3.4650
   12.195    3.3913
   12.210    3.5598
   12.225    3.4334
   12.240    3.5071
   12.255    3.6124
   12.270    3.5861
   12.285    3.4281
   12.300    3.4018
   12.315    3.4702
   12.330    3.3175
   12.345    3.3281
   12.360    3.4755
   12.375    3.4597
   12.390    3.3491
   12.405    3.3702
   12.420    3.4439
   12.435    3.4334
   12.450    3.3860
   12.465    3.4334
   12.480    3.2754
   12.495    3.4387
   12.510    3.6967
   12.525    3.5229
   12.540    3.5018
   12.555    3.5229
   12.570    3.5124
   12.585    3.4544
   12.600    3.4071
   12.615    3.3228
   12.630    3.4018
   12.645    3.4544
   12.660    3.5492
   12.675    3.2965
   12.690    3.2333
   12.705    3.3913
   12.720    3.5545
   12.735    3.3333
   12.750    3.4597
   12.765    3.4229
   12.780    3.4018
   12.795    3.5703
   12.810    3.4229
   12.825    3.4018
   12.840    3.3017
   12.855    3.3702
   12.870    3.2017
   12.885    3.2438
   12.900    3.5492
   12.915    3.5966
   12.930    3.2385
   12.945    3.2491
   12.960    3.3860
   12.975    3.3649
   12.990    3.2122
   13.005    3.3860
   13.020    3.2649
   13.035    3.3070
   13.050    3.4808
   13.065    3.4702
   13.080    3.4860
   13.095    3.4334
   13.110    3.4755
   13.125    3.3333
   13.140    3.2227
   13.155    3.3702
   13.170    3.2491
   13.185    3.3439
   13.200    3.3123
   13.215    3.5334
   13.230    3.3175
   13.245    3.3860
   13.260    3.4650
   13.275    3.2070
   13.290    3.3649
   13.305    3.3702
   13.320    3.3386
   13.335    3.3123
   13.350    3.1438
   13.365    3.2385
   13.380    3.3228
   13.395    3.4544
   13.410    3.3070
   13.425    3.4334
   13.440    3.5018
   13.455    3.4334
   13.470    3.6493
   13.485    3.5598
   13.500    3.2965
   13.515    3.4071
   13.530    3.1912
   13.545    3.3702
   13.560    3.5071
   13.575    3.4334
   13.590    3.4387
   13.605    3.2175
   13.620    3.4755
   13.635    3.4281
   13.650    3.3860
   13.665    3.4018
   13.680    3.5229
   13.695    3.3649
   13.710    3.4597
   13.725    3.3807
   13.740    3.4860
   13.755    3.4071
   13.770    3.2807
   13.785    3.2754
   13.800    3.4492
   13.815    3.3017
   13.830    3.2649
   13.845    3.4492
   13.860    3.4018
   13.875    3.5071
   13.890    3.4702
   13.905    3.4229
   13.920    3.4808
   13.935    3.6335
   13.950    3.6493
   13.965    3.5387
   13.980    3.3386
   13.995    3.4913
   14.010    3.4176
   14.025    3.4597
   14.040    3.5229
   14.055    3.5703
   14.070    3.4492
   14.085    3.4281
   14.100    3.6072
   14.115    3.5334
   14.130    3.7230
   14.145    3.6440
   14.160    3.6809
   14.175    3.6704
   14.190    3.6862
   14.205    3.5808
   14.220    3.6335
   14.235    3.6282
   14.250    3.6124
   14.265    3.6598
   14.280    3.9231
   14.295    3.8125
   14.310    3.8231
   14.325    3.6914
   14.340    3.8283
   14.355    3.8389
   14.370    3.7651
   14.385    3.7019
   14.400    3.6809
   14.415    3.5229
   14.430    3.8441
   14.445    3.7283
   14.460    3.7177
   14.475    3.8863
   14.490    3.8283
   14.505    3.7230
   14.520    3.5861
   14.535    3.8599
   14.550    3.8652
   14.565    3.7809
   14.580    3.7862
   14.595    3.7388
   14.610    3.6809
   14.625    3.6072
   14.640    3.6019
   14.655    3.5703
   14.670    3.8073
   14.685    3.7177
   14.700    3.5598
   14.715    3.7230
   14.730    3.4966
   14.745    3.6756
   14.760    3.5018
   14.775    3.6546
   14.790    3.4439
   14.805    3.5966
   14.820    3.6809
   14.835    3.4597
   14.850    3.3386
   14.865    3.5282
   14.880    3.5018
   14.895    3.6967
   14.910    3.5914
   14.925    3.3649
   14.940    3.2122
   14.955    3.4229
   14.970    3.5282
   14.985    3.5492
   15.000    3.6177
   15.015    3.7388
   15.030    3.5334
   15.045    3.5071
   15.060    3.5492
   15.075    3.5176
   15.090    3.5650
   15.105    3.3123
   15.120    3.2491
   15.135    3.4755
   15.150    3.4860
   15.165    3.5018
   15.180    3.4071
   15.195    3.4439
   15.210    3.4176
   15.225    3.4334
   15.240    3.5650
   15.255    3.5334
   15.270    3.3965
   15.285    3.0911
   15.300    3.2017
   15.315    3.4492
   15.330    3.4966
   15.345    3.3544
   15.360    3.4755
   15.375    3.3228
   15.390    3.2280
   15.405    3.3386
   15.420    3.4702
   15.435    3.4702
   15.450    3.5545
   15.465    3.3175
   15.480    3.4071
   15.495    3.5124
   15.510    3.3491
   15.525    3.4387
   15.540    3.3965
   15.555    3.3597
   15.570    3.2070
   15.585    3.2175
   15.600    3.2807
   15.615    3.4018
   15.630    3.4229
   15.645    3.4229
   15.660    3.3860
   15.675    3.2807
   15.690    3.2754
   15.705    3.2701
   15.720    3.4650
   15.735    3.2017
   15.750    3.2649
   15.765    3.2491
   15.780    3.3333
   15.795    3.2596
   15.810    3.3439
   15.825    3.3597
   15.840    3.4544
   15.855    3.2596
   15.870    3.2912
   15.885    3.5861
   15.900    3.3860
   15.915    3.2070
   15.930    3.3913
   15.945    3.4334
   15.960    3.3702
   15.975    3.3755
   15.990    3.4387
   16.005    3.3070
   16.020    3.2070
   16.035    3.2965
   16.050    3.2227
   16.065    3.2491
   16.080    3.1280
   16.095    3.3807
   16.110    3.4966
   16.125    3.3965
   16.140    3.4808
   16.155    3.3386
   16.170    3.4387
   16.185    3.3281
   16.200    3.3175
   16.215    3.4755
   16.230    3.4123
   16.245    3.3807
   16.260    3.3913
   16.275    3.3281
   16.290    3.4439
   16.305    3.4334
   16.320    3.1964
   16.335    3.2754
   16.350    3.1438
   16.365    3.3017
   16.380    3.4018
   16.395    3.4123
   16.410    3.3913
   16.425    3.4229
   16.440    3.4913
   16.455    3.3702
   16.470    3.2385
   16.485    3.5387
   16.500    3.3281
   16.515    3.2122
   16.530    3.0911
   16.545    3.2701
   16.560    3.3070
   16.575    3.0595
   16.590    3.1859
   16.605    3.2859
   16.620    3.1859
   16.635    3.1754
   16.650    3.1122
   16.665    3.2333
   16.680    3.4913
   16.695    3.3228
   16.710    3.3491
   16.725    3.3544
   16.740    3.2701
   16.755    3.0806
   16.770    3.3965
   16.785    3.4123
   16.800    3.4492
   16.815    3.3702
   16.830    3.2017
   16.845    3.0332
   16.860    3.3913
   16.875    3.2543
   16.890    3.3755
   16.905    3.1912
   16.920    3.3175
   16.935    3.2122
   16.950    3.2912
   16.965    3.2280
   16.980    3.2754
   16.995    3.1912
   17.010    3.3597
   17.025    3.4966
   17.040    3.6493
   17.055    3.6756
   17.070    3.4334
   17.085    3.4334
   17.100    3.4281
   17.115    3.2701
   17.130    3.2754
   17.145    3.3491
   17.160    3.2859
   17.175    3.0964
   17.190    3.1701
   17.205    3.1648
   17.220    3.2070
   17.235    3.3070
   17.250    3.4334
   17.265    3.2859
   17.280    3.2543
   17.295    3.4808
   17.310    3.3597
   17.325    3.3123
   17.340    3.4755
   17.355    3.3860
   17.370    3.3755
   17.385    3.2754
   17.400    3.2070
   17.415    3.2754
   17.430    3.3597
   17.445    3.2438
   17.460    3.1227
   17.475    3.3333
   17.490    3.3123
   17.505    3.1227
   17.520    3.1701
   17.535    3.0016
   17.550    3.0700
   17.565    3.1701
   17.580    3.2543
   17.595    3.1543
   17.610    3.3333
   17.625    3.2333
   17.640    3.3123
   17.655    3.3281
   17.670    3.1754
   17.685    3.2859
   17.700    3.3175
   17.715    3.1227
   17.730    3.3386
   17.745    3.2701
   17.760    3.2807
   17.775    3.2385
   17.790    2.9700
   17.805    3.0700
   17.820    3.1543
   17.835    3.3017
   17.850    3.2965
   17.865    3.1280
   17.880    3.3333
   17.895    3.2701
   17.910    3.1332
   17.925    3.0332
   17.940    3.2701
   17.955    3.1543
   17.970    3.2491
   17.985    3.2596
   18.000    3.2491
   18.015    3.5071
   18.030    3.2701
   18.045    3.1596
   18.060    3.1964
   18.075    3.2227
   18.090    3.1385
   18.105    3.2859
   18.120    3.2649
   18.135    3.2070
   18.150    3.2175
   18.165    3.4176
   18.180    3.0648
   18.195    3.2912
   18.210    3.2859
   18.225    3.1016
   18.240    3.1438
   18.255    3.1859
   18.270    3.1174
   18.285    3.2280
   18.300    3.2965
   18.315    3.2122
   18.330    3.1438
   18.345    3.1912
   18.360    3.1016
   18.375    3.4123
   18.390    3.1490
   18.405    3.2122
   18.420    3.3544
   18.435    2.9279
   18.450    3.3017
   18.465    3.3333
   18.480    3.1069
   18.495    3.2385
   18.510    3.2017
   18.525    3.0753
   18.540    3.1596
   18.555    3.0911
   18.570    3.1174
   18.585    3.1438
   18.600    3.1385
   18.615    3.2175
   18.630    3.2385
   18.645    3.3386
   18.660    3.0806
   18.675    3.1122
   18.690    3.0753
   18.705    3.1332
   18.720    3.0964
   18.735    3.1543
   18.750    3.2543
   18.765    3.2122
   18.780    3.0332
   18.795    3.2175
   18.810    3.2754
   18.825    3.2807
   18.840    3.1438
   18.855    3.1069
   18.870    3.1438
   18.885    3.1543
   18.900    3.1332
   18.915    3.1016
   18.930    3.1859
   18.945    3.1701
   18.960    3.0490
   18.975    3.0174
   18.990    3.2807
   19.005    3.3860
   19.020    3.2280
   19.035    3.3070
   19.050    3.2280
   19.065    3.2385
   19.080    3.2649
   19.095    3.2070
   19.110    3.3228
   19.125    3.3544
   19.140    3.2122
   19.155    3.2333
   19.170    3.1122
   19.185    3.0964
   19.200    3.0068
   19.215    3.1438
   19.230    3.2491
   19.245    3.1069
   19.260    3.1016
   19.275    3.0753
   19.290    3.0332
   19.305    3.1806
   19.320    3.0016
   19.335    3.0964
   19.350    3.0542
   19.365    3.1122
   19.380    2.9700
   19.395    3.1069
   19.410    3.1385
   19.425    2.9331
   19.440    3.1227
   19.455    2.9647
   19.470    3.0226
   19.485    3.1227
   19.500    2.9858
   19.515    2.9910
   19.530    3.1596
   19.545    2.9121
   19.560    3.0437
   19.575    2.8436
   19.590    3.0332
   19.605    3.0911
   19.620    3.1280
   19.635    3.2701
   19.650    3.3544
   19.665    3.2596
   19.680    3.2122
   19.695    3.1438
   19.710    3.1754
   19.725    3.1122
   19.740    2.7225
   19.755    3.0648
   19.770    3.3123
   19.785    2.9542
   19.800    2.9489
   19.815    2.8541
   19.830    3.0911
   19.845    3.0226
   19.860    2.8489
   19.875    2.9384
   19.890    3.0332
   19.905    2.9279
   19.920    3.0384
   19.935    2.9437
   19.950    3.0332
   19.965    3.0542
   19.980    2.9647
   19.995    2.8647
   20.010    2.8173
   20.025    3.0174
   20.040    3.0648
   20.055    3.0174
   20.070    2.9858
   20.085    3.0700
   20.100    2.9753
   20.115    3.1016
   20.130    2.8699
   20.145    3.0226
   20.160    3.0068
   20.175    3.1438
   20.190    2.9910
   20.205    2.9226
   20.220    3.0121
   20.235    2.8594
   20.250    2.9279
   20.265    2.9015
   20.280    2.7962
   20.295    2.9331
   20.310    3.0753
   20.325    3.0911
   20.340    2.9753
   20.355    2.8963
   20.370    3.1122
   20.385    2.9121
   20.400    2.8963
   20.415    2.9015
   20.430    3.0595
   20.445    3.0806
   20.460    2.9910
   20.475    2.9068
   20.490    2.9384
   20.505    2.9858
   20.520    2.9173
   20.535    3.0226
   20.550    2.8436
   20.565    2.9437
   20.580    2.8699
   20.595    2.8489
   20.610    2.9384
   20.625    2.8699
   20.640    2.9226
   20.655    2.8173
   20.670    2.7699
   20.685    2.9437
   20.700    2.9384
   20.715    2.9173
   20.730    3.0279
   20.745    2.9700
   20.760    2.7751
   20.775    2.9805
   20.790    2.8015
   20.805    2.9910
   20.820    2.9226
   20.835    2.8331
   20.850    2.8752
   20.865    2.8120
   20.880    3.0384
   20.895    2.8015
   20.910    2.7962
   20.925    2.8436
   20.940    2.8225
   20.955    2.8225
   20.970    2.7067
   20.985    2.7383
   21.000    2.8857
   21.015    2.8699
   21.030    2.7909
   21.045    3.0068
   21.060    3.0174
   21.075    2.8015
   21.090    2.9384
   21.105    2.9015
   21.120    2.9753
   21.135    3.0384
   21.150    2.9331
   21.165    2.7541
   21.180    2.8752
   21.195    2.8699
   21.210    2.7909
   21.225    2.7435
   21.240    2.8647
   21.255    2.8541
   21.270    2.9489
   21.285    2.9331
   21.300    2.8173
   21.315    3.0595
   21.330    2.8594
   21.345    2.8331
   21.360    2.9279
   21.375    2.7330
   21.390    2.7646
   21.405    2.8278
   21.420    2.9489
   21.435    2.7909
   21.450    2.7804
   21.465    2.6435
   21.480    2.7383
   21.495    2.8173
   21.510    2.8173
   21.525    2.9437
   21.540    2.7699
   21.555    2.7857
   21.570    2.8278
   21.585    2.9015
   21.600    2.8067
   21.615    2.7067
   21.630    2.9173
   21.645    2.8963
   21.660    2.8541
   21.675    2.9173
   21.690    2.8015
   21.705    2.8225
   21.720    2.7225
   21.735    2.8331
   21.750    2.8436
   21.765    2.7541
   21.780    2.6698
   21.795    2.7646
   21.810    2.7646
   21.825    2.7172
   21.840    2.7488
   21.855    2.8278
   21.870    2.7909
   21.885    2.7172
   21.900    2.9226
   21.915    2.8331
   21.930    2.5961
   21.945    2.6962
   21.960    2.7067
   21.975    2.7699
   21.990    2.9331
   22.005    2.8173
   22.020    2.8489
   22.035    2.7120
   22.050    2.8120
   22.065    2.6382
   22.080    2.6172
   22.095    2.7067
   22.110    2.8120
   22.125    2.7172
   22.140    2.6909
   22.155    2.6330
   22.170    2.5592
   22.185    2.5908
   22.200    2.7278
   22.215    2.7699
   22.230    2.8805
   22.245    2.7804
   22.260    2.7909
   22.275    2.8120
   22.290    2.8383
   22.305    2.7014
   22.320    2.7909
   22.335    2.7646
   22.350    2.7172
   22.365    2.6277
   22.380    2.8278
   22.395    2.7172
   22.410    2.6540
   22.425    2.5592
   22.440    2.6382
   22.455    2.7699
   22.470    2.7541
   22.485    2.5750
   22.500    2.5856
   22.515    2.6646
   22.530    2.5750
   22.545    2.5750
   22.560    2.5224
   22.575    2.6172
   22.590    2.5066
   22.605    2.6435
   22.620    2.5698
   22.635    2.6804
   22.650    2.8383
   22.665    2.5592
   22.680    2.6382
   22.695    2.6804
   22.710    2.7172
   22.725    2.6330
   22.740    2.6698
   22.755    2.6488
   22.770    2.6540
   22.785    2.5856
   22.800    2.7014
   22.815    2.6382
   22.830    2.6119
   22.845    2.6119
   22.860    2.4276
   22.875    2.4645
   22.890    2.5066
   22.905    2.5908
   22.920    2.7383
   22.935    2.5276
   22.950    2.7067
   22.965    2.7225
   22.980    2.5224
   22.995    2.5803
   23.010    2.4961
   23.025    2.5434
   23.040    2.6066
   23.055    2.4487
   23.070    2.5434
   23.085    2.7120
   23.100    2.4592
   23.115    2.4329
   23.130    2.5698
   23.145    2.6909
   23.160    2.7541
   23.175    2.5329
   23.190    2.5487
   23.205    2.4381
   23.220    2.3749
   23.235    2.6119
   23.250    2.7172
   23.265    2.5382
   23.280    2.5803
   23.295    2.6066
   23.310    2.6014
   23.325    2.4434
   23.340    2.4381
   23.355    2.3855
   23.370    2.4645
   23.385    2.6172
   23.400    2.3855
   23.415    2.5118
   23.430    2.5592
   23.445    2.5224
   23.460    2.5329
   23.475    2.5013
   23.490    2.7383
   23.505    2.6224
   23.520    2.4592
   23.535    2.3381
   23.550    2.4223
   23.565    2.5592
   23.580    2.4645
   23.595    2.3486
   23.610    2.4329
   23.625    2.5066
   23.640    2.4697
   23.655    2.4855
   23.670    2.4908
   23.685    2.5592
   23.700    2.7120
   23.715    2.5803
   23.730    2.4065
   23.745    2.5698
   23.760    2.5224
   23.775    2.4118
   23.790    2.6014
   23.805    2.4329
   23.820    2.4171
   23.835    2.3433
   23.850    2.3328
   23.865    2.4065
   23.880    2.4118
   23.895    2.5066
   23.910    2.4908
   23.925    2.5276
   23.940    2.3960
   23.955    2.3644
   23.970    2.4645
   23.985    2.4223
   24.000    2.4276
   24.015    2.5276
   24.030    2.4487
   24.045    2.2854
   24.060    2.2643
   24.075    2.3644
   24.090    2.4592
   24.105    2.4487
   24.120    2.4539
   24.135    2.4329
   24.150    2.3433
   24.165    2.5276
   24.180    2.3328
   24.195    2.4329
   24.210    2.2907
   24.225    2.3697
   24.240    2.3802
   24.255    2.4750
   24.270    2.5118
   24.285    2.3644
   24.300    2.4223
   24.315    2.3117
   24.330    2.4276
   24.345    2.3960
   24.360    2.4171
   24.375    2.1748
   24.390    2.2643
   24.405    2.3117
   24.420    2.4697
   24.435    2.3539
   24.450    2.4013
   24.465    2.3539
   24.480    2.2907
   24.495    2.3170
   24.510    2.2801
   24.525    2.3697
   24.540    2.3381
   24.555    2.3381
   24.570    2.1959
   24.585    2.3697
   24.600    2.2275
   24.615    2.2538
   24.630    2.3802
   24.645    2.3749
   24.660    2.4961
   24.675    2.3170
   24.690    2.3170
   24.705    2.3855
   24.720    2.4908
   24.735    2.3802
   24.750    2.3275
   24.765    2.2959
   24.780    2.3170
   24.795    2.4803
   24.810    2.2486
   24.825    2.3697
   24.840    2.2328
   24.855    2.4487
   24.870    2.2591
   24.885    2.1748
   24.900    2.4118
   24.915    2.2012
   24.930    2.2538
   24.945    2.4171
   24.960    2.3381
   24.975    2.1959
   24.990    2.2170
   25.005    2.4171
   25.020    2.1959
   25.035    2.1380
   25.050    2.3697
   25.065    2.2591
   25.080    2.2012
   25.095    2.2854
   25.110    2.3697
   25.125    2.2854
   25.140    2.3065
   25.155    2.1801
   25.170    2.2222
   25.185    2.3170
   25.200    2.3960
   25.215    2.3223
   25.230    2.2591
   25.245    2.3065
   25.260    2.2696
   25.275    2.3275
   25.290    2.4013
   25.305    2.2064
   25.320    2.3644
   25.335    2.2643
   25.350    2.2380
   25.365    2.3644
   25.380    2.3697
   25.395    2.2801
   25.410    2.1748
   25.425    2.2959
   25.440    2.3697
   25.455    2.2380
   25.470    2.1380
   25.485    2.2486
   25.500    2.3275
   25.515    2.2380
   25.530    2.2749
   25.545    2.2907
   25.560    2.1538
   25.575    2.2486
   25.590    2.1538
   25.605    2.2959
   25.620    2.1274
   25.635    2.2012
   25.650    2.2117
   25.665    2.2222
   25.680    2.1854
   25.695    2.2222
   25.710    2.1854
   25.725    2.1906
   25.740    2.1906
   25.755    2.0379
   25.770    2.2275
   25.785    2.2170
   25.800    2.1169
   25.815    2.1854
   25.830    2.1485
   25.845    2.1643
   25.860    2.0748
   25.875    2.2117
   25.890    2.1854
   25.905    2.1854
   25.920    2.1380
   25.935    2.0537
   25.950    2.1274
   25.965    2.1906
   25.980    2.1274
   25.995    2.1169
   26.010    2.2275
   26.025    2.2170
   26.040    2.1801
   26.055    2.2749
   26.070    2.2012
   26.085    2.2064
   26.100    2.0011
   26.115    2.2801
   26.130    2.1696
   26.145    2.1696
   26.160    2.1432
   26.175    2.0853
   26.190    2.0221
   26.205    2.1906
   26.220    2.0432
   26.235    2.1169
   26.250    2.2433
   26.265    2.1959
   26.280    2.0484
   26.295    2.0642
   26.310    2.0379
   26.325    2.1854
   26.340    2.1169
   26.355    2.1590
   26.370    2.1906
   26.385    2.0379
   26.400    2.0958
   26.415    2.1538
   26.430    2.2380
   26.445    2.2380
   26.460    2.0642
   26.475    2.2854
   26.490    2.1011
   26.505    2.0958
   26.520    2.1169
   26.535    2.0326
   26.550    2.0958
   26.565    2.0853
   26.580    2.0800
   26.595    2.0906
   26.610    2.0326
   26.625    2.1538
   26.640    2.0011
   26.655    2.1327
   26.670    1.9326
   26.685    2.0116
   26.700    2.0274
   26.715    2.1854
   26.730    2.1696
   26.745    2.1169
   26.760    2.0748
   26.775    2.1011
   26.790    2.2064
   26.805    2.0906
   26.820    2.1485
   26.835    2.0274
   26.850    1.9905
   26.865    2.0906
   26.880    2.2170
   26.895    1.9800
   26.910    2.0695
   26.925    2.0800
   26.940    1.9326
   26.955    2.0274
   26.970    2.1064
   26.985    1.9747
   27.000    2.0326
   27.015    2.0642
   27.030    2.0063
   27.045    2.0695
   27.060    2.0116
   27.075    1.8799
   27.090    1.9905
   27.105    2.1011
   27.120    2.2064
   27.135    1.9484
   27.150    1.9063
   27.165    1.9168
   27.180    2.0537
   27.195    1.9905
   27.210    2.0958
   27.225    2.1011
   27.240    2.0432
   27.255    1.9695
   27.270    1.8694
   27.285    1.9115
   27.300    1.9853
   27.315    2.0116
   27.330    2.0800
   27.345    2.0011
   27.360    2.1064
   27.375    2.0063
   27.390    1.9168
   27.405    1.7904
   27.420    1.8431
   27.435    2.0116
   27.450    2.1222
   27.465    1.9221
   27.480    1.8852
   27.495    1.9537
   27.510    1.9958
   27.525    2.0116
   27.540    2.0432
   27.555    2.0484
   27.570    2.0537
   27.585    2.0169
   27.600    1.9115
   27.615    1.8378
   27.630    1.8747
   27.645    1.9379
   27.660    2.0011
   27.675    1.9695
   27.690    1.9537
   27.705    1.8694
   27.720    1.9273
   27.735    1.9695
   27.750    2.0906
   27.765    1.8062
   27.780    1.7957
   27.795    1.8694
   27.810    1.9431
   27.825    1.9379
   27.840    2.0484
   27.855    1.8536
   27.870    1.8852
   27.885    1.8641
   27.900    2.0906
   27.915    2.1380
   27.930    1.9063
   27.945    1.9853
   27.960    1.9273
   27.975    1.9537
   27.990    2.0274
   28.005    1.8799
   28.020    1.7694
   28.035    1.8062
   28.050    1.9484
   28.065    2.0326
   28.080    1.9273
   28.095    1.9010
   28.110    1.9273
   28.125    1.9115
   28.140    1.9221
   28.155    1.9484
   28.170    1.9431
   28.185    1.8905
   28.200    1.8325
   28.215    1.8167
   28.230    1.7272
   28.245    1.8905
   28.260    1.8852
   28.275    1.8325
   28.290    1.9747
   28.305    1.8694
   28.320    1.6166
   28.335    1.7957
   28.350    1.8852
   28.365    1.9273
   28.380    1.7957
   28.395    1.8799
   28.410    1.9958
   28.425    1.7641
   28.440    1.7483
   28.455    2.0274
   28.470    1.8905
   28.485    2.0221
   28.500    1.8220
   28.515    1.9010
   28.530    1.9379
   28.545    1.9273
   28.560    1.8905
   28.575    1.7957
   28.590    1.8641
   28.605    1.8009
   28.620    1.8009
   28.635    1.9537
   28.650    2.0169
   28.665    2.0326
   28.680    1.9115
   28.695    1.8378
   28.710    1.9115
   28.725    2.0537
   28.740    1.8536
   28.755    1.8167
   28.770    1.8799
   28.785    1.8431
   28.800    1.9695
   28.815    1.8799
   28.830    1.8694
   28.845    1.8852
   28.860    2.0116
   28.875    1.9800
   28.890    1.9168
   28.905    1.9695
   28.920    1.9168
   28.935    1.9221
   28.950    1.9642
   28.965    1.8747
   28.980    1.8273
   28.995    1.8747
   29.010    1.9642
   29.025    1.8167
   29.040    1.8009
   29.055    1.9273
   29.070    1.8536
   29.085    1.8694
   29.100    1.8589
   29.115    1.9063
   29.130    2.0958
   29.145    2.0537
   29.160    1.6640
   29.175    1.7904
   29.190    1.8957
   29.205    1.9010
   29.220    1.8957
   29.235    1.8852
   29.250    1.9115
   29.265    1.8799
   29.280    1.8799
   29.295    1.8325
   29.310    1.7430
   29.325    1.8325
   29.340    1.9168
   29.355    1.7694
   29.370    1.8799
   29.385    1.8273
   29.400    1.8062
   29.415    1.6693
   29.430    1.6798
   29.445    1.6798
   29.460    1.6272
   29.475    1.7536
   29.490    1.7483
   29.505    1.6430
   29.520    1.6430
   29.535    1.6219
   29.550    1.7325
   29.565    1.8273
   29.580    1.6272
   29.595    1.6061
   29.610    1.6114
   29.625    1.7062
   29.640    1.6377
   29.655    1.5956
   29.670    1.5166
   29.685    1.6482
   29.700    1.6114
   29.715    1.6166
   29.730    1.6061
   29.745    1.6851
   29.760    1.6640
   29.775    1.6272
   29.790    1.6482
   29.805    1.5745
   29.820    1.5534
   29.835    1.6430
   29.850    1.6166
   29.865    1.7167
   29.880    1.5903
   29.895    1.5692
   29.910    1.5587
   29.925    1.5745
   29.940    1.5850
   29.955    1.5798
   29.970    1.5692
   29.985    1.4534
   30.000    1.6219
   30.015    1.6166
   30.030    1.7062
   30.045    1.6008
   30.060    1.7220
   30.075    1.6588
   30.090    1.7325
   30.105    1.5061
   30.120    1.7430
   30.135    1.5640
   30.150    1.5061
   30.165    1.5271
   30.180    1.4587
   30.195    1.5219
   30.210    1.6061
   30.225    1.4323
   30.240    1.5640
   30.255    1.5956
   30.270    1.5061
   30.285    1.5745
   30.300    1.5798
   30.315    1.5798
   30.330    1.5271
   30.345    1.5692
   30.360    1.5798
   30.375    1.6430
   30.390    1.5482
   30.405    1.5745
   30.420    1.6166
   30.435    1.6430
   30.450    1.5166
   30.465    1.4481
   30.480    1.6377
   30.495    1.5482
   30.510    1.4797
   30.525    1.5061
   30.540    1.5956
   30.555    1.4850
   30.570    1.4481
   30.585    1.6324
   30.600    1.5271
   30.615    1.5692
   30.630    1.5482
   30.645    1.6272
   30.660    1.5587
   30.675    1.5008
   30.690    1.5166
   30.705    1.3902
   30.720    1.6061
   30.735    1.4113
   30.750    1.5166
   30.765    1.5482
   30.780    1.5324
   30.795    1.5534
   30.810    1.4376
   30.825    1.4481
   30.840    1.6166
   30.855    1.6114
   30.870    1.5429
   30.885    1.4534
   30.900    1.6008
   30.915    1.5956
   30.930    1.5377
   30.945    1.5061
   30.960    1.5324
   30.975    1.4429
   30.990    1.5482
   31.005    1.4429
   31.020    1.5008
   31.035    1.5482
   31.050    1.5061
   31.065    1.4113
   31.080    1.4429
   31.095    1.5008
   31.110    1.4797
   31.125    1.4007
   31.140    1.2796
   31.155    1.4955
   31.170    1.5219
   31.185    1.4060
   31.200    1.2533
   31.215    1.3586
   31.230    1.3428
   31.245    1.4165
   31.260    1.6219
   31.275    1.4745
   31.290    1.4113
   31.305    1.4850
   31.320    1.4745
   31.335    1.3533
   31.350    1.3744
   31.365    1.4376
   31.380    1.4429
   31.395    1.3586
   31.410    1.4113
   31.425    1.4165
   31.440    1.4376
   31.455    1.3375
   31.470    1.4007
   31.485    1.5113
   31.500    1.4218
   31.515    1.3533
   31.530    1.4113
   31.545    1.3428
   31.560    1.4534
   31.575    1.4429
   31.590    1.3639
   31.605    1.5219
   31.620    1.4113
   31.635    1.3481
   31.650    1.4376
   31.665    1.5324
   31.680    1.4850
   31.695    1.3902
   31.710    1.3797
   31.725    1.4376
   31.740    1.3375
   31.755    1.3691
   31.770    1.3955
   31.785    1.4692
   31.800    1.5166
   31.815    1.4429
   31.830    1.3797
   31.845    1.4007
   31.860    1.3270
   31.875    1.3691
   31.890    1.2638
   31.905    1.4271
   31.920    1.4587
   31.935    1.3744
   31.950    1.4165
   31.965    1.3586
   31.980    1.4060
   31.995    1.4639
   32.010    1.3586
   32.025    1.2375
   32.040    1.3586
   32.055    1.4218
   32.070    1.4113
   32.085    1.3691
   32.100    1.2902
   32.115    1.3323
   32.130    1.3639
   32.145    1.4903
   32.160    1.2691
   32.175    1.4534
   32.190    1.4323
   32.205    1.4376
   32.220    1.3797
   32.235    1.4007
   32.250    1.3533
   32.265    1.3217
   32.280    1.2954
   32.295    1.3217
   32.310    1.4113
   32.325    1.3955
   32.340    1.4060
   32.355    1.3639
   32.370    1.2322
   32.385    1.3270
   32.400    1.3060
   32.415    1.3744
   32.430    1.4692
   32.445    1.3849
   32.460    1.3112
   32.475    1.2744
   32.490    1.2533
   32.505    1.3902
   32.520    1.3217
   32.535    1.3428
   32.550    1.4376
   32.565    1.2902
   32.580    1.2059
   32.595    1.3691
   32.610    1.2954
   32.625    1.3060
   32.640    1.3217
   32.655    1.3533
   32.670    1.3428
   32.685    1.3112
   32.700    1.3007
   32.715    1.4113
   32.730    1.2217
   32.745    1.1796
   32.760    1.3323
   32.775    1.2375
   32.790    1.3481
   32.805    1.4007
   32.820    1.4218
   32.835    1.3375
   32.850    1.2112
   32.865    1.3060
   32.880    1.3481
   32.895    1.3007
   32.910    1.3112
   32.925    1.2270
   32.940    1.1848
   32.955    1.2164
   32.970    1.2744
   32.985    1.3533
   33.000    1.2638
   33.015    1.2322
   33.030    1.3217
   33.045    1.1638
   33.060    1.2533
   33.075    1.1638
   33.090    1.0479
   33.105    1.2902
   33.120    1.2744
   33.135    1.3428
   33.150    1.2428
   33.165    1.3481
   33.180    1.3007
   33.195    1.2375
   33.210    1.2586
   33.225    1.2902
   33.240    1.2428
   33.255    1.2480
   33.270    1.3112
   33.285    1.2112
   33.300    1.2428
   33.315    1.2638
   33.330    1.3375
   33.345    1.2428
   33.360    1.2270
   33.375    1.2586
   33.390    1.3165
   33.405    1.2849
   33.420    1.3744
   33.435    1.2954
   33.450    1.1532
   33.465    1.1690
   33.480    1.1848
   33.495    1.3639
   33.510    1.2796
   33.525    1.2006
   33.540    1.1848
   33.555    1.3165
   33.570    1.2744
   33.585    1.3533
   33.600    1.3217
   33.615    1.2480
   33.630    1.1058
   33.645    1.1743
   33.660    1.2902
   33.675    1.3217
   33.690    1.1796
   33.705    1.2480
   33.720    1.2586
   33.735    1.3533
   33.750    1.1058
   33.765    1.1427
   33.780    1.2164
   33.795    1.2849
   33.810    1.3060
   33.825    1.2164
   33.840    1.2217
   33.855    1.1374
   33.870    1.0690
   33.885    1.3060
   33.900    1.2217
   33.915    1.2533
   33.930    1.2059
   33.945    1.2059
   33.960    1.2796
   33.975    1.1848
   33.990    1.2112
   34.005    1.2480
   34.020    1.1954
   34.035    1.2586
   34.050    1.2480
   34.065    1.3165
   34.080    1.1427
   34.095    1.2586
   34.110    1.1901
   34.125    1.1585
   34.140    1.1532
   34.155    1.1585
   34.170    1.2691
   34.185    1.2796
   34.200    1.1796
   34.215    1.2638
   34.230    1.1374
   34.245    1.1743
   34.260    1.3007
   34.275    1.1690
   34.290    1.2428
   34.305    1.2006
   34.320    1.1322
   34.335    1.2480
   34.350    1.1585
   34.365    1.1216
   34.380    1.2428
   34.395    1.1954
   34.410    1.1585
   34.425    1.2744
   34.440    1.2428
   34.455    1.3849
   34.470    1.2480
   34.485    1.2322
   34.500    1.2849
   34.515    1.1954
   34.530    1.1111
   34.545    1.1427
   34.560    1.2164
   34.575    1.1848
   34.590    1.1690
   34.605    1.2217
   34.620    1.2059
   34.635    1.0953
   34.650    1.1901
   34.665    1.1743
   34.680    1.1901
   34.695    1.2217
   34.710    1.1796
   34.725    1.2796
   34.740    1.1585
   34.755    1.1743
   34.770    1.2322
   34.785    1.2322
   34.800    1.2217
   34.815    1.2586
   34.830    1.2849
   34.845    1.2954
   34.860    1.1796
   34.875    1.2586
   34.890    1.2059
   34.905    1.2217
   34.920    1.2586
   34.935    1.2796
   34.950    1.2375
   34.965    1.2164
   34.980    1.1743
   34.995    1.1006
   35.010    1.1585
   35.025    1.1216
   35.040    1.0216
   35.055    1.2744
   35.070    1.2270
   35.085    1.0742
   35.100    1.1480
   35.115    1.1374
   35.130    1.2428
   35.145    1.1690
   35.160    1.2428
   35.175    1.2217
   35.190    1.1480
   35.205    1.1848
   35.220    1.1269
   35.235    0.9847
   35.250    1.0742
   35.265    1.1848
   35.280    1.2164
   35.295    1.1532
   35.310    1.3060
   35.325    1.2586
   35.340    1.2059
   35.355    1.2059
   35.370    1.1269
   35.385    1.1690
   35.400    1.2059
   35.415    1.1848
   35.430    1.1216
   35.445    1.1901
   35.460    1.1954
   35.475    1.2270
   35.490    1.1954
   35.505    1.2691
   35.520    1.1690
   35.535    1.2059
   35.550    1.1690
   35.565    1.1058
   35.580    1.1690
   35.595    1.2744
   35.610    1.1374
   35.625    1.0953
   35.640    1.1532
   35.655    1.0953
   35.670    1.1164
   35.685    1.1374
   35.700    1.2112
   35.715    1.0795
   35.730    1.1322
   35.745    1.0269
   35.760    1.0742
   35.775    1.1796
   35.790    1.1322
   35.805    1.1901
   35.820    1.0795
   35.835    1.0900
   35.850    1.0742
   35.865    1.1006
   35.880    1.2270
   35.895    1.1269
   35.910    1.1638
   35.925    1.1848
   35.940    1.1585
   35.955    1.1006
   35.970    1.2059
   35.985    1.2270
   36.000    1.2533
   36.015    1.2270
   36.030    1.1111
   36.045    1.0848
   36.060    1.2112
   36.075    1.2270
   36.090    1.1216
   36.105    1.1006
   36.120    1.1006
   36.135    1.2059
   36.150    1.1690
   36.165    1.0532
   36.180    1.2480
   36.195    1.1954
   36.210    1.2217
   36.225    1.1690
   36.240    1.1638
   36.255    1.2796
   36.270    1.1848
   36.285    1.1480
   36.300    1.0532
   36.315    1.1585
   36.330    1.2059
   36.345    1.1532
   36.360    1.1480
   36.375    1.1848
   36.390    1.1322
   36.405    1.2428
   36.420    1.2006
   36.435    1.1585
   36.450    1.1427
   36.465    1.1638
   36.480    1.1638
   36.495    1.2796
   36.510    1.1954
   36.525    1.1954
   36.540    1.2164
   36.555    1.1585
   36.570    1.1743
   36.585    1.1690
   36.600    1.1585
   36.615    1.2744
   36.630    1.2164
   36.645    1.1006
   36.660    1.2217
   36.675    1.1901
   36.690    1.0848
   36.705    1.0637
   36.720    1.0269
   36.735    1.1058
   36.750    1.0795
   36.765    1.2217
   36.780    1.1374
   36.795    1.0953
   36.810    1.2954
   36.825    1.1743
   36.840    1.0848
   36.855    1.0795
   36.870    1.1058
   36.885    1.0742
   36.900    1.1796
   36.915    1.1322
   36.930    1.0058
   36.945    1.0321
   36.960    1.0269
   36.975    1.1427
   36.990    1.1374
   37.005    1.0795
   37.020    1.1480
   37.035    1.2164
   37.050    1.2480
   37.065    1.1796
   37.080    1.0637
   37.095    1.1006
   37.110    1.0848
   37.125    1.1216
   37.140    1.0795
   37.155    1.1427
   37.170    1.1269
   37.185    1.0795
   37.200    1.1006
   37.215    1.1216
   37.230    1.1374
   37.245    1.1796
   37.260    1.0532
   37.275    1.1743
   37.290    1.0269
   37.305    1.0005
   37.320    1.1269
   37.335    1.0532
   37.350    1.0637
   37.365    1.0374
   37.380    1.2744
   37.395    1.2322
   37.410    1.0848
   37.425    1.0269
   37.440    1.0005
   37.455    1.0953
   37.470    1.1480
   37.485    1.1743
   37.500    1.1269
   37.515    1.1796
   37.530    1.1322
   37.545    1.1164
   37.560    1.1480
   37.575    1.2059
   37.590    1.0900
   37.605    1.1585
   37.620    1.1006
   37.635    1.1848
   37.650    1.1322
   37.665    1.0585
   37.680    1.1585
   37.695    0.9531
   37.710    1.0795
   37.725    1.0058
   37.740    1.0795
   37.755    1.1216
   37.770    1.1532
   37.785    1.0163
   37.800    1.2322
   37.815    1.1164
   37.830    1.1322
   37.845    1.0637
   37.860    1.1480
   37.875    1.1796
   37.890    1.0637
   37.905    0.9426
   37.920    1.0374
   37.935    1.1585
   37.950    1.0795
   37.965    1.0479
   37.980    1.0795
   37.995    1.0848
   38.010    1.2217
   38.025    1.2059
   38.040    1.1374
   38.055    1.1848
   38.070    1.0532
   38.085    1.0058
   38.100    1.1216
   38.115    1.2006
   38.130    1.1585
   38.145    1.0532
   38.160    1.1322
   38.175    0.9900
   38.190    1.0163
   38.205    1.0690
   38.220    1.0216
   38.235    1.1111
   38.250    1.1269
   38.265    0.9900
   38.280    1.1111
   38.295    1.2112
   38.310    1.1164
   38.325    1.1322
   38.340    1.1796
   38.355    1.0269
   38.370    1.0058
   38.385    1.0479
   38.400    1.0848
   38.415    1.1058
   38.430    0.9637
   38.445    1.0953
   38.460    1.1006
   38.475    1.0532
   38.490    1.0690
   38.505    1.1532
   38.520    1.2006
   38.535    1.1269
   38.550    1.0585
   38.565    1.2006
   38.580    1.1743
   38.595    0.9637
   38.610    1.0690
   38.625    1.0269
   38.640    1.1269
   38.655    1.1216
   38.670    1.0216
   38.685    1.0637
   38.700    1.0427
   38.715    1.1058
   38.730    1.0900
   38.745    1.1532
   38.760    1.0374
   38.775    1.0374
   38.790    1.1269
   38.805    1.0795
   38.820    1.1532
   38.835    1.2112
   38.850    1.1269
   38.865    1.1111
   38.880    1.0690
   38.895    0.9953
   38.910    1.1743
   38.925    1.1480
   38.940    0.9795
   38.955    1.1111
   38.970    1.0427
   38.985    0.9689
   39.000    0.9584
   39.015    1.0216
   39.030    1.1322
   39.045    1.1164
   39.060    0.9847
   39.075    0.9847
   39.090    1.0953
   39.105    1.0953
   39.120    1.1374
   39.135    1.0111
   39.150    1.0321
   39.165    1.0005
   39.180    0.9426
   39.195    1.0637
   39.210    1.0216
   39.225    1.1164
   39.240    1.0374
   39.255    0.9953
   39.270    1.0953
   39.285    1.0795
   39.300    0.9847
   39.315    0.9689
   39.330    0.9689
   39.345    1.0058
   39.360    1.0163
   39.375    1.0532
   39.390    1.1269
   39.405    1.1058
   39.420    1.0111
   39.435    1.0585
   39.450    1.0163
   39.465    1.0427
   39.480    1.0321
   39.495    1.0795
   39.510    1.0111
   39.525    1.0111
   39.540    1.0900
   39.555    1.2059
   39.570    1.0163
   39.585    1.0321
   39.600    1.0742
   39.615    1.0005
   39.630    1.0269
   39.645    1.0269
   39.660    1.0953
   39.675    1.0374
   39.690    1.0216
   39.705    1.0479
   39.720    1.0374
   39.735    1.0900
   39.750    1.1006
   39.765    1.0111
   39.780    0.9900
   39.795    0.9742
   39.810    1.0479
   39.825    1.0900
   39.840    0.8952
   39.855    0.9163
   39.870    0.9953
   39.885    0.9795
   39.900    0.9900
   39.915    0.9373
   39.930    0.9584
   39.945    1.0532
   39.960    1.0427
   39.975    1.0427
   39.990    1.1058
