    1.500   17.3600
    1.515   16.9212
    1.530   17.7988
    1.545   17.2020
    1.560   17.0090
    1.575   16.0260
    1.590   16.3068
    1.605   16.8685
    1.620   15.9031
    1.635   16.5701
    1.650   16.9914
    1.665   16.0435
    1.680   15.5345
    1.695   16.2717
    1.710   14.6393
    1.725   14.7446
    1.740   14.6919
    1.755   14.7446
    1.770   15.4994
    1.785   14.1127
    1.800   13.3228
    1.815   14.0600
    1.830   13.6739
    1.845   13.7441
    1.860   13.6388
    1.875   12.9542
    1.890   12.9191
    1.905   14.1127
    1.920   13.4106
    1.935   13.1648
    1.950   12.9542
    1.965   13.0946
    1.980   12.6909
    1.995   13.5861
    2.010   13.2877
    2.025   12.4978
    2.040   12.4276
    2.055   12.4803
    2.070   12.2696
    2.085   12.1116
    2.100   13.1824
    2.115   12.4627
    2.130   12.7962
    2.145   12.2521
    2.160   12.1467
    2.175   11.6728
    2.190   12.0239
    2.205   11.9186
    2.220   12.3398
    2.235   12.2170
    2.250   11.7430
    2.265   11.8834
    2.280   12.1643
    2.295   12.2170
    2.310   12.6382
    2.325   12.2345
    2.340   12.4978
    2.355   12.3047
    2.370   12.0941
    2.385   12.1467
    2.400   11.4797
    2.415   11.7255
    2.430   11.9361
    2.445   12.5329
    2.460   12.3749
    2.475   11.7606
    2.490   12.6031
    2.505   12.0239
    2.520   12.3047
    2.535   12.0063
    2.550   12.0414
    2.565   12.3574
    2.580   12.2696
    2.595   12.2872
    2.610   13.0946
    2.625   12.7787
    2.640   12.7611
    2.655   12.6382
    2.670   12.6207
    2.685   12.7962
    2.700   13.0946
    2.715   13.3228
    2.730   13.3228
    2.745   13.7265
    2.760   13.0420
    2.775   13.5861
    2.790   14.0951
    2.805   13.6914
    2.820   14.5515
    2.835   13.6739
    2.850   13.7616
    2.865   14.2531
    2.880   15.1659
    2.895   14.2356
    2.910   14.4989
    2.925   15.2010
    2.940   16.0962
    2.955   16.1313
    2.970   15.6574
    2.985   15.4116
    3.000   16.2015
    3.015   16.4473
    3.030   17.6058
    3.045   17.2722
    3.060   17.7111
    3.075   18.1148
    3.090   17.9042
    3.105   18.3430
    3.120   19.0451
    3.135   19.2733
    3.150   19.2031
    3.165   20.0105
    3.180   21.8185
    3.195   21.5377
    3.210   21.0286
    3.225   22.0467
    3.240   23.8371
    3.255   23.4158
    3.270   23.0999
    3.285   25.0132
    3.300   25.5749
    3.315   25.9786
    3.330   26.3296
    3.345   27.0142
    3.360   27.4706
    3.375   29.0328
    3.390   30.7179
    3.405   30.1211
    3.420   32.0520
    3.435   32.9121
    3.450   34.6498
    3.465   35.9312
    3.480   36.7211
    3.495   38.3184
    3.510   40.9338
    3.525   41.8466
    3.540   42.3381
    3.555   44.3216
    3.570   46.2875
    3.585   49.7455
    3.600   53.7300
    3.615   55.2572
    3.630   57.7672
    3.645   59.5752
    3.660   63.8055
    3.675   67.2986
    3.690   72.1959
    3.705   77.4618
    3.720   83.6405
    3.735   92.4697
    3.750   97.6830
    3.765  107.4074
    3.780  121.0111
    3.795  136.5631
    3.810  158.6449
    3.825  184.7464
    3.840  199.8245
    3.855  184.7113
    3.870  155.9242
    3.885  119.7121
    3.900   79.5857
    3.915   45.1641
    3.930   25.3642
    3.945   16.9036
    3.960   12.4100
    3.975   10.1632
    3.990    9.8648
    4.005    9.2505
    4.020    9.3031
    4.035    8.7239
    4.050    8.2675
    4.065    7.8813
    4.080    7.6180
    4.095    7.8813
    4.110    7.6005
    4.125    7.2143
    4.140    6.8984
    4.155    7.0915
    4.170    6.7930
    4.185    7.1441
    4.200    7.1968
    4.215    6.7404
    4.230    7.4952
    4.245    7.0563
    4.260    7.1792
    4.275    6.9510
    4.290    6.5473
    4.305    7.0915
    4.320    6.6000
    4.335    6.6175
    4.350    6.9686
    4.365    6.9159
    4.380    7.0037
    4.395    7.7058
    4.410    7.3723
    4.425    7.1968
    4.440    6.9159
    4.455    7.7760
    4.470    7.3899
    4.485    6.8984
    4.500    7.0388
    4.515    7.0388
    4.530    7.3547
    4.545    7.4776
    4.560    7.6532
    4.575    7.3372
    4.590    7.3021
    4.605    7.2845
    4.620    7.4776
    4.635    7.5829
    4.650    7.2143
    4.665    7.5478
    4.680    7.5303
    4.695    7.6532
    4.710    7.6883
    4.725    8.0042
    4.740    8.1973
    4.755    7.5654
    4.770    8.4255
    4.785    8.1095
    4.800    7.7760
    4.815    8.2324
    4.830    8.4079
    4.845    8.6010
    4.860    9.0574
    4.875    8.8468
    4.890    9.0398
    4.905    9.3382
    4.920    9.8297
    4.935   10.3914
    4.950   10.3914
    4.965   10.5319
    4.980   10.3914
    4.995   10.7776
    5.010   10.9531
    5.025   10.9356
    5.040   11.6553
    5.055   11.6026
    5.070   12.0414
    5.085   12.7435
    5.100   13.1999
    5.115   13.4983
    5.130   12.4978
    5.145   14.0425
    5.160   14.6568
    5.175   15.4818
    5.190   15.7100
    5.205   16.4824
    5.220   17.7988
    5.235   18.4834
    5.250   18.8345
    5.265   19.5893
    5.280   20.3089
    5.295   21.6781
    5.310   24.3286
    5.325   26.2068
    5.340   27.2951
    5.355   29.4541
    5.370   31.4376
    5.385   35.4573
    5.400   38.1253
    5.415   46.1120
    5.430   52.6066
    5.445   60.7162
    5.460   64.9640
    5.475   62.5592
    5.490   56.6790
    5.505   45.0764
    5.520   32.8418
    5.535   21.4674
    5.550   14.1478
    5.565    9.8648
    5.580    8.1622
    5.595    7.1617
    5.610    6.8633
    5.625    6.7404
    5.640    6.9861
    5.655    6.2665
    5.670    6.2489
    5.685    6.1787
    5.700    5.9329
    5.715    5.7399
    5.730    5.8276
    5.745    6.2840
    5.760    6.2489
    5.775    6.0032
    5.790    5.8803
    5.805    5.2659
    5.820    6.1260
    5.835    5.7750
    5.850    6.1260
    5.865    6.2313
    5.880    5.6872
    5.895    5.6345
    5.910    6.0383
    5.925    5.7048
    5.940    5.5117
    5.955    5.6872
    5.970    5.9154
    5.985    5.6872
    6.000    5.8978
    6.015    6.0207
    6.030    5.9681
    6.045    5.6872
    6.060    5.5819
    6.075    6.3542
    6.090    6.0032
    6.105    5.8627
    6.120    5.7399
    6.135    6.0734
    6.150    6.3893
    6.165    6.8457
    6.180    6.5122
    6.195    6.2665
    6.210    6.4595
    6.225    6.6877
    6.240    6.8633
    6.255    6.3367
    6.270    6.4946
    6.285    6.7228
    6.300    6.4595
    6.315    6.3893
    6.330    6.8633
    6.345    6.6702
    6.360    7.1617
    6.375    7.5303
    6.390    7.5478
    6.405    7.7409
    6.420    8.1622
    6.435    7.9691
    6.450    7.8638
    6.465    7.7409
    6.480    8.0920
    6.495    8.7239
    6.510    8.5133
    6.525    8.8468
    6.540    9.3734
    6.555   10.5494
    6.570   10.4090
    6.585   10.8303
    6.600   10.6723
    6.615   11.8659
    6.630   13.0595
    6.645   13.9196
    6.660   15.6398
    6.675   17.8164
    6.690   21.1690
    6.705   21.9765
    6.720   20.3616
    6.735   19.3786
    6.750   15.9909
    6.765   12.9542
    6.780   10.4265
    6.795    7.9340
    6.810    6.3542
    6.825    6.2313
    6.840    5.9856
    6.855    5.8627
    6.870    5.5292
    6.885    5.0377
    6.900    4.9851
    6.915    5.8452
    6.930    5.2133
    6.945    5.4590
    6.960    5.1957
    6.975    5.1782
    6.990    5.4941
    7.005    6.2138
    7.020    6.2665
    7.035    5.4590
    7.050    5.5292
    7.065    5.5292
    7.080    5.2659
    7.095    5.7399
    7.110    5.8978
    7.125    5.3712
    7.140    5.3537
    7.155    5.2133
    7.170    5.5468
    7.185    5.5643
    7.200    5.2484
    7.215    5.2133
    7.230    5.5994
    7.245    5.9329
    7.260    5.4766
    7.275    6.0383
    7.290    5.9154
    7.305    5.8803
    7.320    6.3367
    7.335    6.0207
    7.350    6.0734
    7.365    6.1436
    7.380    6.1611
    7.395    6.2665
    7.410    5.8627
    7.425    6.2840
    7.440    6.1436
    7.455    6.6877
    7.470    6.5122
    7.485    6.8808
    7.500    7.0563
    7.515    6.4771
    7.530    6.9159
    7.545    6.9861
    7.560    8.0042
    7.575    7.7760
    7.590    8.4079
    7.605    7.9691
    7.620    8.8292
    7.635    8.5133
    7.650    9.3734
    7.665   10.1281
    7.680   10.9180
    7.695   11.6553
    7.710   11.9186
    7.725   13.4281
    7.740   14.6393
    7.755   15.8153
    7.770   15.8856
    7.785   15.8329
    7.800   13.9196
    7.815   11.0760
    7.830    9.5313
    7.845    7.3723
    7.860    6.5298
    7.875    5.5292
    7.890    5.5994
    7.905    5.2659
    7.920    5.4766
    7.935    5.2308
    7.950    5.2133
    7.965    5.4239
    7.980    5.1606
    7.995    5.3361
    8.010    5.3712
    8.025    5.1431
    8.040    5.4064
    8.055    5.1606
    8.070    4.9149
    8.085    5.2659
    8.100    5.0202
    8.115    4.9149
    8.130    5.0026
    8.145    5.0202
    8.160    4.8622
    8.175    5.2308
    8.190    5.5292
    8.205    4.9500
    8.220    4.8973
    8.235    5.6521
    8.250    5.1782
    8.265    5.1606
    8.280    5.0026
    8.295    5.1957
    8.310    5.2659
    8.325    5.3186
    8.340    5.3712
    8.355    5.3537
    8.370    5.6521
    8.385    4.9851
    8.400    5.3010
    8.415    5.7574
    8.430    5.5468
    8.445    5.6697
    8.460    5.2835
    8.475    5.4941
    8.490    5.8627
    8.505    5.6345
    8.520    5.3186
    8.535    5.4415
    8.550    5.1431
    8.565    5.3888
    8.580    5.8803
    8.595    6.0558
    8.610    5.5819
    8.625    6.4069
    8.640    6.2313
    8.655    6.2489
    8.670    6.5824
    8.685    6.8984
    8.700    7.1090
    8.715    6.7579
    8.730    6.1962
    8.745    6.0032
    8.760    5.7574
    8.775    5.6345
    8.790    5.2484
    8.805    5.4064
    8.820    5.1080
    8.835    4.8271
    8.850    5.2308
    8.865    4.7393
    8.880    5.5819
    8.895    5.1606
    8.910    5.1782
    8.925    5.0553
    8.940    5.4415
    8.955    5.8101
    8.970    5.0904
    8.985    4.9675
    9.000    5.6170
    9.015    5.2308
    9.030    5.6697
    9.045    5.5819
    9.060    5.4590
    9.075    5.9856
    9.090    5.5292
    9.105    5.7925
    9.120    5.8276
    9.135    6.1436
    9.150    6.0734
    9.165    6.2313
    9.180    6.6702
    9.195    6.6000
    9.210    6.1085
    9.225    6.7404
    9.240    6.8633
    9.255    7.0388
    9.270    7.1968
    9.285    7.1617
    9.300    7.4601
    9.315    8.5659
    9.330    8.3377
    9.345    8.7590
    9.360    9.5664
    9.375   10.3914
    9.390   10.8654
    9.405   12.0941
    9.420   13.3052
    9.435   13.8318
    9.450   15.2185
    9.465   17.7813
    9.480   18.5887
    9.495   22.1345
    9.510   25.2238
    9.525   26.6632
    9.540   26.5052
    9.555   24.8025
    9.570   21.4323
    9.585   16.4473
    9.600   12.5329
    9.615    8.6010
    9.630    6.7053
    9.645    5.4064
    9.660    6.1787
    9.675    5.5117
    9.690    5.1080
    9.705    5.3537
    9.720    5.2484
    9.735    5.2308
    9.750    5.3186
    9.765    5.2659
    9.780    4.8095
    9.795    5.3888
    9.810    5.5292
    9.825    5.3537
    9.840    4.9675
    9.855    5.1782
    9.870    5.5292
    9.885    5.4590
    9.900    5.1782
    9.915    5.7574
    9.930    5.6697
    9.945    5.4766
    9.960    5.2659
    9.975    5.1782
    9.990    5.7223
   10.005    5.6872
   10.020    5.6697
   10.035    5.4766
   10.050    5.2659
   10.065    5.6345
   10.080    6.3542
   10.095    6.4595
   10.110    6.5298
   10.125    6.7930
   10.140    6.5473
   10.155    6.8457
   10.170    7.1617
   10.185    7.3021
   10.200    8.3728
   10.215    8.5308
   10.230    8.7590
   10.245    9.6015
   10.260   10.6898
   10.275   12.0414
   10.290   13.6739
   10.305   13.7441
   10.320   13.5159
   10.335   11.9010
   10.350    9.5138
   10.365    8.1446
   10.380    7.1090
   10.395    5.9681
   10.410    5.4415
   10.425    5.5468
   10.440    5.1606
   10.455    5.7048
   10.470    4.9851
   10.485    4.6165
   10.500    4.9851
   10.515    4.9675
   10.530    4.8271
   10.545    5.0202
   10.560    4.8095
   10.575    5.0553
   10.590    4.8798
   10.605    4.9500
   10.620    4.9324
   10.635    5.3537
   10.650    5.5117
   10.665    5.3537
   10.680    4.8271
   10.695    4.9851
   10.710    5.1782
   10.725    4.7920
   10.740    5.4941
   10.755    5.7925
   10.770    5.3186
   10.785    5.3888
   10.800    6.2313
   10.815    5.5643
   10.830    5.5994
   10.845    6.1787
   10.860    6.1436
   10.875    6.2665
   10.890    6.4069
   10.905    6.6702
   10.920    7.0212
   10.935    6.9686
   10.950    7.8287
   10.965    8.3553
   10.980    8.8468
   10.995    9.6367
   11.010   10.6547
   11.025   10.9531
   11.040    9.8999
   11.055    8.8643
   11.070    8.7414
   11.085    7.1968
   11.100    5.9505
   11.115    5.2835
   11.130    5.1957
   11.145    5.1255
   11.160    4.3356
   11.175    4.5287
   11.190    4.7393
   11.205    5.3888
   11.220    4.7920
   11.235    4.4760
   11.250    4.7920
   11.265    5.0377
   11.280    5.0377
   11.295    5.2308
   11.310    5.2133
   11.325    5.1080
   11.340    5.2659
   11.355    5.1255
   11.370    4.9851
   11.385    4.9675
   11.400    5.0202
   11.415    4.9500
   11.430    4.7393
   11.445    5.3010
   11.460    5.8627
   11.475    5.5643
   11.490    5.7925
   11.505    5.8627
   11.520    5.7048
   11.535    5.6345
   11.550    5.8101
   11.565    6.1787
   11.580    6.8984
   11.595    6.5824
   11.610    7.2143
   11.625    7.7760
   11.640    8.7941
   11.655    9.3207
   11.670   11.0585
   11.685   11.3217
   11.700   11.4797
   11.715   10.3037
   11.730   10.1106
   11.745    8.5835
   11.760    7.3547
   11.775    6.3191
   11.790    5.2659
   11.805    4.8447
   11.820    4.4234
   11.835    4.7218
   11.850    4.1776
   11.865    5.1431
   11.880    4.5111
   11.895    4.4234
   11.910    4.6867
   11.925    4.5989
   11.940    4.5111
   11.955    4.4760
   11.970    4.5111
   11.985    4.3356
   12.000    5.0377
   12.015    4.7744
   12.030    4.1776
   12.045    4.2478
   12.060    4.9324
   12.075    4.4058
   12.090    4.3883
   12.105    4.6691
   12.120    4.5463
   12.135    5.0553
   12.150    4.7744
   12.165    4.6165
   12.180    4.1601
   12.195    5.0904
   12.210    5.2133
   12.225    4.7218
   12.240    5.0728
   12.255    5.3712
   12.270    5.4590
   12.285    6.0734
   12.300    5.1606
   12.315    5.6345
   12.330    5.5117
   12.345    5.3712
   12.360    5.4064
   12.375    5.2308
   12.390    5.4766
   12.405    5.2659
   12.420    4.5638
   12.435    4.4585
   12.450    4.9149
   12.465    4.8271
   12.480    4.8095
   12.495    4.6340
   12.510    4.8095
   12.525    4.3532
   12.540    4.4760
   12.555    4.7920
   12.570    4.5463
   12.585    4.2654
   12.600    4.8622
   12.615    5.4415
   12.630    4.7920
   12.645    4.9149
   12.660    4.6691
   12.675    4.7569
   12.690    4.8798
   12.705    4.7218
   12.720    4.8271
   12.735    4.7569
   12.750    4.4058
   12.765    4.7920
   12.780    5.5117
   12.795    5.3186
   12.810    5.7750
   12.825    5.8452
   12.840    6.0383
   12.855    6.0383
   12.870    6.2489
   12.885    6.9686
   12.900    7.8638
   12.915    8.8117
   12.930    9.2329
   12.945    9.4787
   12.960    8.9345
   12.975    8.4781
   12.990    7.6532
   13.005    6.8106
   13.020    5.8101
   13.035    5.0728
   13.050    4.8622
   13.065    4.7393
   13.080    4.3883
   13.095    4.4585
   13.110    4.4585
   13.125    4.5638
   13.140    4.0197
   13.155    4.9675
   13.170    4.8622
   13.185    4.6691
   13.200    4.4760
   13.215    4.7569
   13.230    4.5463
   13.245    4.7042
   13.260    4.3883
   13.275    4.7393
   13.290    5.4415
   13.305    4.4760
   13.320    4.7218
   13.335    4.8622
   13.350    4.9500
   13.365    5.0553
   13.380    5.2308
   13.395    5.5994
   13.410    5.3361
   13.425    5.0377
   13.440    5.4415
   13.455    5.5819
   13.470    5.7925
   13.485    6.1260
   13.500    6.3542
   13.515    6.1962
   13.530    6.1962
   13.545    6.3893
   13.560    6.0734
   13.575    6.1260
   13.590    5.4941
   13.605    5.0202
   13.620    4.7042
   13.635    4.8095
   13.650    4.6867
   13.665    4.9500
   13.680    4.1952
   13.695    4.2654
   13.710    4.7569
   13.725    5.0202
   13.740    4.6340
   13.755    4.7042
   13.770    4.4936
   13.785    4.5989
   13.800    4.6340
   13.815    4.7569
   13.830    4.5814
   13.845    4.6516
   13.860    5.0377
   13.875    4.7569
   13.890    4.8095
   13.905    5.2659
   13.920    5.3010
   13.935    5.1606
   13.950    5.4590
   13.965    6.0558
   13.980    6.1085
   13.995    5.9856
   14.010    6.1436
   14.025    6.9159
   14.040    7.4952
   14.055    7.9516
   14.070    8.7590
   14.085    9.0047
   14.100    8.6888
   14.115    8.3553
   14.130    7.5654
   14.145    6.7404
   14.160    6.0032
   14.175    5.1255
   14.190    4.6867
   14.205    4.8095
   14.220    4.0723
   14.235    4.5463
   14.250    4.7218
   14.265    4.1952
   14.280    4.8095
   14.295    4.8798
   14.310    4.4936
   14.325    4.4585
   14.340    4.7744
   14.355    4.4409
   14.370    4.0021
   14.385    4.3532
   14.400    4.5638
   14.415    4.5814
   14.430    4.6516
   14.445    4.2478
   14.460    4.3005
   14.475    4.3707
   14.490    4.3532
   14.505    4.5463
   14.520    4.3005
   14.535    4.1425
   14.550    4.3532
   14.565    5.1255
   14.580    4.6165
   14.595    4.5638
   14.610    4.5111
   14.625    4.6165
   14.640    4.4936
   14.655    4.7920
   14.670    4.4234
   14.685    4.4760
   14.700    4.8973
   14.715    4.4058
   14.730    4.5463
   14.745    4.3883
   14.760    4.3005
   14.775    4.2478
   14.790    4.2830
   14.805    4.4760
   14.820    4.5989
   14.835    3.8441
   14.850    3.9319
   14.865    4.1601
   14.880    4.3005
   14.895    4.5287
   14.910    4.6867
   14.925    4.3883
   14.940    4.3707
   14.955    4.6165
   14.970    4.7218
   14.985    4.4760
   15.000    4.7393
   15.015    5.1782
   15.030    4.7218
   15.045    4.5814
   15.060    4.9149
   15.075    4.6516
   15.090    5.3186
   15.105    4.7393
   15.120    4.8973
   15.135    5.4239
   15.150    4.9500
   15.165    4.8271
   15.180    4.8447
   15.195    4.6165
   15.210    4.5111
   15.225    4.6691
   15.240    4.4409
   15.255    4.5638
   15.270    4.7393
   15.285    4.9500
   15.300    4.7569
   15.315    4.2654
   15.330    4.1425
   15.345    4.1425
   15.360    4.2478
   15.375    4.1952
   15.390    4.3532
   15.405    4.5111
   15.420    4.7744
   15.435    4.9324
   15.450    4.7042
   15.465    4.7569
   15.480    4.5989
   15.495    4.4936
   15.510    4.0372
   15.525    4.0548
   15.540    4.0899
   15.555    4.5814
   15.570    4.4409
   15.585    3.9846
   15.600    3.7564
   15.615    4.5111
   15.630    4.4409
   15.645    4.5989
   15.660    4.3181
   15.675    4.2654
   15.690    4.6691
   15.705    4.7218
   15.720    4.4585
   15.735    4.2478
   15.750    4.1601
   15.765    4.2654
   15.780    4.3356
   15.795    4.7920
   15.810    4.5638
   15.825    4.7920
   15.840    4.7569
   15.855    4.7218
   15.870    4.6516
   15.885    4.2478
   15.900    4.6516
   15.915    4.5111
   15.930    4.5463
   15.945    4.2127
   15.960    4.1952
   15.975    4.2127
   15.990    4.3707
   16.005    4.8622
   16.020    4.6691
   16.035    4.4058
   16.050    4.8798
   16.065    4.7218
   16.080    5.0202
   16.095    5.0026
   16.110    5.3537
   16.125    5.5994
   16.140    5.3361
   16.155    5.0026
   16.170    5.2659
   16.185    5.0728
   16.200    4.8622
   16.215    4.5989
   16.230    4.5814
   16.245    4.4760
   16.260    4.4585
   16.275    4.3883
   16.290    4.3532
   16.305    4.5111
   16.320    4.5463
   16.335    4.6516
   16.350    4.2127
   16.365    4.6340
   16.380    4.4409
   16.395    4.5111
   16.410    4.8622
   16.425    4.6867
   16.440    4.7042
   16.455    4.5287
   16.470    4.8095
   16.485    4.9149
   16.500    4.8095
   16.515    4.7218
   16.530    5.2659
   16.545    5.0553
   16.560    5.2133
   16.575    5.3186
   16.590    5.4415
   16.605    5.3712
   16.620    5.3361
   16.635    5.2308
   16.650    5.3712
   16.665    5.1606
   16.680    4.8622
   16.695    4.5287
   16.710    4.6165
   16.725    4.4760
   16.740    4.4409
   16.755    4.1425
   16.770    4.8447
   16.785    4.9324
   16.800    4.4760
   16.815    4.4409
   16.830    4.4234
   16.845    4.6867
   16.860    4.6165
   16.875    5.0553
   16.890    5.2133
   16.905    4.7744
   16.920    4.9675
   16.935    4.9324
   16.950    5.0026
   16.965    5.7399
   16.980    6.3016
   16.995    6.5473
   17.010    6.6702
   17.025    6.6877
   17.040    7.4601
   17.055    7.6883
   17.070    7.5303
   17.085    7.6356
   17.100    7.0915
   17.115    6.7053
   17.130    5.9681
   17.145    5.0553
   17.160    4.8271
   17.175    4.8447
   17.190    4.4058
   17.205    4.4760
   17.220    4.3532
   17.235    4.7920
   17.250    4.7393
   17.265    4.2127
   17.280    4.6165
   17.295    4.6340
   17.310    4.3883
   17.325    4.7393
   17.340    4.6691
   17.355    4.2654
   17.370    4.5463
   17.385    4.6165
   17.400    4.8973
   17.415    4.6867
   17.430    5.0202
   17.445    5.0553
   17.460    4.8798
   17.475    5.1782
   17.490    5.4415
   17.505    5.3361
   17.520    5.2659
   17.535    5.2133
   17.550    4.7393
   17.565    4.7569
   17.580    4.5638
   17.595    4.9149
   17.610    4.8622
   17.625    4.3356
   17.640    4.3532
   17.655    4.4234
   17.670    4.7744
   17.685    4.5638
   17.700    4.4058
   17.715    4.4409
   17.730    4.5638
   17.745    4.7393
   17.760    4.7744
   17.775    4.8271
   17.790    4.6867
   17.805    5.3010
   17.820    4.8447
   17.835    4.5989
   17.850    4.4058
   17.865    4.5814
   17.880    4.8622
   17.895    4.8622
   17.910    5.3537
   17.925    5.1080
   17.940    5.0202
   17.955    5.6697
   17.970    5.3712
   17.985    4.8271
   18.000    5.1255
   18.015    4.8798
   18.030    4.5287
   18.045    4.6340
   18.060    4.2478
   18.075    4.2830
   18.090    4.4936
   18.105    4.6691
   18.120    4.6340
   18.135    4.3181
   18.150    4.6340
   18.165    4.6516
   18.180    4.6516
   18.195    4.7218
   18.210    4.4936
   18.225    4.5638
   18.240    4.4234
   18.255    4.6165
   18.270    4.8798
   18.285    5.1080
   18.300    4.5463
   18.315    5.0026
   18.330    5.1431
   18.345    4.9324
   18.360    5.5819
   18.375    5.3186
   18.390    4.8798
   18.405    5.1957
   18.420    4.8095
   18.435    5.0026
   18.450    4.4760
   18.465    4.7920
   18.480    4.6516
   18.495    4.1425
   18.510    4.5111
   18.525    4.5287
   18.540    4.4585
   18.555    4.3883
   18.570    4.5638
   18.585    4.4936
   18.600    4.1601
   18.615    4.3005
   18.630    4.4760
   18.645    4.6340
   18.660    4.5287
   18.675    4.4234
   18.690    4.4585
   18.705    4.8095
   18.720    4.7042
   18.735    4.3532
   18.750    4.4409
   18.765    4.7744
   18.780    4.7042
   18.795    4.9500
   18.810    4.7744
   18.825    4.7569
   18.840    4.8798
   18.855    4.2654
   18.870    4.6867
   18.885    4.1601
   18.900    4.4234
   18.915    4.1074
   18.930    4.5287
   18.945    4.8973
   18.960    4.4936
   18.975    4.3883
   18.990    4.4936
   19.005    4.5814
   19.020    4.2654
   19.035    5.0026
   19.050    4.4234
   19.065    4.4234
   19.080    4.5638
   19.095    4.6516
   19.110    4.6165
   19.125    4.4058
   19.140    4.6340
   19.155    4.2478
   19.170    4.3707
   19.185    4.2303
   19.200    4.2478
   19.215    4.5814
   19.230    4.3532
   19.245    4.7744
   19.260    4.5463
   19.275    4.2830
   19.290    4.6691
   19.305    4.9500
   19.320    4.1776
   19.335    4.5287
   19.350    4.6867
   19.365    4.4058
   19.380    4.0723
   19.395    5.0026
   19.410    4.4409
   19.425    4.2478
   19.440    4.5111
   19.455    5.0202
   19.470    4.9149
   19.485    4.7042
   19.500    4.7744
   19.515    4.3532
   19.530    4.2830
   19.545    5.0553
   19.560    5.2484
   19.575    5.1957
   19.590    5.5117
   19.605    5.3712
   19.620    5.7925
   19.635    5.3712
   19.650    5.0553
   19.665    4.9675
   19.680    4.7744
   19.695    4.9675
   19.710    4.2830
   19.725    4.5814
   19.740    4.7569
   19.755    4.3532
   19.770    4.2478
   19.785    4.6165
   19.800    4.5463
   19.815    4.7042
   19.830    4.3181
   19.845    4.1601
   19.860    4.5463
   19.875    4.4409
   19.890    4.4409
   19.905    4.6867
   19.920    4.7042
   19.935    4.5989
   19.950    4.7042
   19.965    4.1601
   19.980    4.5638
   19.995    5.1080
   20.010    4.9149
   20.025    4.7569
   20.040    4.5111
   20.055    4.8973
   20.070    4.5814
   20.085    4.7042
   20.100    4.5111
   20.115    4.2478
   20.130    4.4409
   20.145    4.5638
   20.160    4.5463
   20.175    5.0553
   20.190    5.0728
   20.205    4.5814
   20.220    4.7920
   20.235    5.0202
   20.250    4.7920
   20.265    5.2308
   20.280    5.0202
   20.295    5.3888
   20.310    5.7048
   20.325    5.2659
   20.340    6.0032
   20.355    6.7404
   20.370    6.7579
   20.385    7.3196
   20.400    7.1792
   20.415    6.6526
   20.430    6.3367
   20.445    6.0558
   20.460    5.6872
   20.475    4.8973
   20.490    4.7744
   20.505    4.8271
   20.520    4.5463
   20.535    4.5111
   20.550    4.5638
   20.565    4.3707
   20.580    4.4409
   20.595    4.3532
   20.610    4.3707
   20.625    4.7569
   20.640    4.5989
   20.655    4.5638
   20.670    4.5287
   20.685    4.4585
   20.700    4.6165
   20.715    4.4058
   20.730    4.2127
   20.745    4.5989
   20.760    4.3883
   20.775    4.2303
   20.790    4.4760
   20.805    4.8271
   20.820    4.4234
   20.835    4.5287
   20.850    4.4760
   20.865    4.0548
   20.880    4.9149
   20.895    4.5463
   20.910    4.4234
   20.925    4.3883
   20.940    4.6867
   20.955    4.6691
   20.970    4.6340
   20.985    4.3181
   21.000    4.2654
   21.015    4.0197
   21.030    4.3883
   21.045    4.8622
   21.060    4.4936
   21.075    4.8095
   21.090    4.9149
   21.105    4.4936
   21.120    4.2303
   21.135    4.5814
   21.150    4.7569
   21.165    4.4936
   21.180    4.4409
   21.195    4.4936
   21.210    4.3883
   21.225    4.4234
   21.240    4.4234
   21.255    4.2654
   21.270    4.8798
   21.285    4.7920
   21.300    4.5287
   21.315    4.3532
   21.330    4.6340
   21.345    4.3532
   21.360    4.6867
   21.375    4.5111
   21.390    4.6691
   21.405    4.5814
   21.420    4.2478
   21.435    5.0026
   21.450    4.7920
   21.465    4.4058
   21.480    4.7042
   21.495    4.4585
   21.510    4.5989
   21.525    4.7042
   21.540    4.0899
   21.555    4.2303
   21.570    4.4234
   21.585    4.1601
   21.600    4.5638
   21.615    4.6516
   21.630    4.8798
   21.645    4.3883
   21.660    4.5814
   21.675    5.0553
   21.690    4.5814
   21.705    4.4234
   21.720    4.7218
   21.735    4.6867
   21.750    5.0904
   21.765    4.9324
   21.780    4.9149
   21.795    5.0026
   21.810    5.3537
   21.825    5.4415
   21.840    5.3888
   21.855    5.5643
   21.870    5.7574
   21.885    5.2133
   21.900    5.6521
   21.915    5.4239
   21.930    5.2659
   21.945    5.0553
   21.960    4.6867
   21.975    4.4585
   21.990    4.5989
   22.005    4.3181
   22.020    4.4234
   22.035    4.8095
   22.050    4.6165
   22.065    4.5111
   22.080    4.9149
   22.095    4.5989
   22.110    4.7042
   22.125    5.1957
   22.140    5.4766
   22.155    5.3537
   22.170    5.3712
   22.185    5.0904
   22.200    5.1431
   22.215    5.5117
   22.230    5.4239
   22.245    5.4239
   22.260    4.9324
   22.275    4.7920
   22.290    4.7393
   22.305    4.6340
   22.320    4.6867
   22.335    4.7744
   22.350    4.3532
   22.365    5.1080
   22.380    4.4585
   22.395    4.6867
   22.410    5.2835
   22.425    5.5117
   22.440    5.4590
   22.455    5.2659
   22.470    5.2133
   22.485    5.6345
   22.500    5.7223
   22.515    6.4595
   22.530    7.0037
   22.545    7.1090
   22.560    7.5478
   22.575    6.7053
   22.590    7.3899
   22.605    7.3723
   22.620    6.8457
   22.635    6.2313
   22.650    6.0383
   22.665    5.4239
   22.680    4.8622
   22.695    4.5638
   22.710    4.5287
   22.725    4.8622
   22.740    5.0026
   22.755    4.5638
   22.770    4.3883
   22.785    4.8798
   22.800    5.1255
   22.815    5.4064
   22.830    5.6872
   22.845    6.2665
   22.860    6.2313
   22.875    6.6351
   22.890    7.1441
   22.905    6.9335
   22.920    7.0563
   22.935    7.4601
   22.950    7.0212
   22.965    7.1617
   22.980    6.0909
   22.995    5.7750
   23.010    5.7399
   23.025    5.2835
   23.040    5.1080
   23.055    4.9324
   23.070    5.0026
   23.085    4.9851
   23.100    4.6340
   23.115    4.6165
   23.130    4.7920
   23.145    4.4234
   23.160    4.5814
   23.175    4.6691
   23.190    5.0728
   23.205    4.9675
   23.220    5.7223
   23.235    5.4064
   23.250    5.6170
   23.265    5.6872
   23.280    6.3191
   23.295    5.0904
   23.310    5.0202
   23.325    5.4239
   23.340    4.7042
   23.355    5.1255
   23.370    4.8973
   23.385    4.5638
   23.400    4.3883
   23.415    4.7744
   23.430    4.6340
   23.445    4.7042
   23.460    4.7920
   23.475    4.9149
   23.490    4.5287
   23.505    4.6691
   23.520    4.8095
   23.535    4.3883
   23.550    4.7569
   23.565    4.8973
   23.580    4.4936
   23.595    4.7744
   23.610    4.7218
   23.625    4.8798
   23.640    4.4760
   23.655    4.6340
   23.670    4.8973
   23.685    4.3532
   23.700    4.4058
   23.715    4.8798
   23.730    4.8622
   23.745    4.4760
   23.760    4.3883
   23.775    4.6691
   23.790    4.8447
   23.805    4.8095
   23.820    4.7042
   23.835    4.6691
   23.850    4.7218
   23.865    5.1957
   23.880    5.3712
   23.895    5.2484
   23.910    5.2133
   23.925    5.2308
   23.940    5.0904
   23.955    4.8271
   23.970    5.2835
   23.985    5.4590
   24.000    5.1080
   24.015    4.8622
   24.030    4.6340
   24.045    4.4234
   24.060    4.3356
   24.075    4.6340
   24.090    4.4409
   24.105    4.6340
   24.120    4.1776
   24.135    4.5111
   24.150    4.1074
   24.165    4.5638
   24.180    4.5287
   24.195    4.6165
   24.210    4.6516
   24.225    4.2478
   24.240    4.4760
   24.255    4.6516
   24.270    4.5814
   24.285    4.3181
   24.300    4.7042
   24.315    4.4058
   24.330    4.5463
   24.345    4.3883
   24.360    4.5287
   24.375    4.6691
   24.390    4.6516
   24.405    4.8095
   24.420    4.5814
   24.435    4.7744
   24.450    4.5463
   24.465    4.5638
   24.480    4.5638
   24.495    4.7920
   24.510    4.7042
   24.525    4.5111
   24.540    4.3005
   24.555    4.4058
   24.570    4.7393
   24.585    4.4409
   24.600    4.3883
   24.615    4.4936
   24.630    4.6691
   24.645    4.4585
   24.660    4.5989
   24.675    4.6165
   24.690    4.3707
   24.705    4.7393
   24.720    4.6165
   24.735    4.6867
   24.750    4.4585
   24.765    4.4409
   24.780    4.4585
   24.795    4.2478
   24.810    3.8266
   24.825    4.7218
   24.840    4.7393
   24.855    4.6340
   24.870    4.7569
   24.885    4.7218
   24.900    4.4936
   24.915    4.4585
   24.930    4.1074
   24.945    4.0899
   24.960    4.4585
   24.975    5.0026
   24.990    4.7393
   25.005    4.5638
   25.020    4.4760
   25.035    4.2478
   25.050    4.6691
   25.065    4.4409
   25.080    4.0372
   25.095    4.3707
   25.110    4.4936
   25.125    4.1074
   25.140    4.7744
   25.155    4.6340
   25.170    4.8973
   25.185    5.0026
   25.200    5.3361
   25.215    4.9324
   25.230    5.0553
   25.245    4.7393
   25.260    4.4760
   25.275    4.4234
   25.290    4.5814
   25.305    4.6165
   25.320    4.5638
   25.335    4.4936
   25.350    4.1952
   25.365    4.3005
   25.380    4.1776
   25.395    5.0026
   25.410    4.3883
   25.425    4.6516
   25.440    4.7218
   25.455    4.7744
   25.470    4.1601
   25.485    4.4409
   25.500    4.9675
   25.515    5.2484
   25.530    4.8798
   25.545    4.9675
   25.560    4.8095
   25.575    4.6340
   25.590    4.6691
   25.605    4.3883
   25.620    4.5287
   25.635    4.6516
   25.650    4.1425
   25.665    4.4058
   25.680    4.8622
   25.695    4.7042
   25.710    4.6340
   25.725    4.8973
   25.740    5.1957
   25.755    5.2484
   25.770    5.7750
   25.785    5.6872
   25.800    6.4244
   25.815    6.5649
   25.830    6.7053
   25.845    6.3718
   25.860    6.3367
   25.875    6.1260
   25.890    6.1611
   25.905    5.5643
   25.920    5.5643
   25.935    4.8798
   25.950    4.4409
   25.965    4.7218
   25.980    4.1250
   25.995    4.3005
   26.010    4.5463
   26.025    4.5111
   26.040    4.5638
   26.055    4.4936
   26.070    4.5463
   26.085    4.1776
   26.100    4.3005
   26.115    4.1776
   26.130    4.6691
   26.145    4.4936
   26.160    4.6691
   26.175    4.4058
   26.190    4.4936
   26.205    3.9143
   26.220    4.2654
   26.235    4.1425
   26.250    4.0372
   26.265    4.0548
   26.280    4.3005
   26.295    4.7218
   26.310    4.4234
   26.325    4.6340
   26.340    4.5287
   26.355    4.3356
   26.370    4.5814
   26.385    4.5989
   26.400    4.8622
   26.415    5.1431
   26.430    5.3186
   26.445    4.8622
   26.460    5.0377
   26.475    5.0904
   26.490    5.0728
   26.505    4.9149
   26.520    4.4234
   26.535    4.4760
   26.550    4.4058
   26.565    4.3883
   26.580    4.2654
   26.595    4.6516
   26.610    4.3707
   26.625    3.9319
   26.640    4.5989
   26.655    4.2127
   26.670    3.9670
   26.685    4.3707
   26.700    4.6516
   26.715    4.8271
   26.730    4.5463
   26.745    4.2654
   26.760    4.4409
   26.775    3.8968
   26.790    4.2303
   26.805    4.5463
   26.820    4.5287
   26.835    4.3356
   26.850    4.6867
   26.865    4.0372
   26.880    4.2478
   26.895    4.4585
   26.910    4.2478
   26.925    4.5989
   26.940    4.4409
   26.955    4.1952
   26.970    4.4409
   26.985    4.8271
   27.000    4.8271
   27.015    5.0202
   27.030    4.7744
   27.045    4.8095
   27.060    4.7744
   27.075    4.8271
   27.090    4.9675
   27.105    5.0202
   27.120    4.3883
   27.135    4.4760
   27.150    4.4234
   27.165    4.3707
   27.180    4.2127
   27.195    4.3005
   27.210    4.4058
   27.225    4.6691
   27.240    4.3356
   27.255    4.0899
   27.270    4.1776
   27.285    4.4058
   27.300    4.4234
   27.315    4.3005
   27.330    4.3883
   27.345    4.0372
   27.360    3.9494
   27.375    4.0197
   27.390    4.5814
   27.405    4.2127
   27.420    4.3883
   27.435    4.2127
   27.450    4.2127
   27.465    4.1776
   27.480    4.2830
   27.495    4.5111
   27.510    4.5989
   27.525    4.4058
   27.540    4.4409
   27.555    4.6340
   27.570    4.5989
   27.585    4.7393
   27.600    4.7218
   27.615    4.4585
   27.630    4.5814
   27.645    4.5463
   27.660    4.6340
   27.675    4.7042
   27.690    4.4409
   27.705    4.0197
   27.720    4.1952
   27.735    4.0723
   27.750    4.3707
   27.765    4.5111
   27.780    4.3707
   27.795    4.1250
   27.810    4.0899
   27.825    4.2478
   27.840    4.6867
   27.855    4.4585
   27.870    4.5638
   27.885    4.2303
   27.900    4.6165
   27.915    4.7218
   27.930    4.5287
   27.945    4.2303
   27.960    4.3181
   27.975    3.8792
   27.990    3.8968
   28.005    4.4936
   28.020    4.3707
   28.035    4.5111
   28.050    4.3707
   28.065    3.9846
   28.080    4.4234
   28.095    4.6516
   28.110    4.5463
   28.125    4.6867
   28.140    4.5111
   28.155    4.7042
   28.170    5.0026
   28.185    5.2659
   28.200    5.3186
   28.215    5.4590
   28.230    5.1606
   28.245    4.7393
   28.260    4.4760
   28.275    4.3883
   28.290    4.2127
   28.305    4.2478
   28.320    4.0372
   28.335    4.2127
   28.350    4.2654
   28.365    4.1776
   28.380    4.6165
   28.395    4.8095
   28.410    5.1606
   28.425    4.4234
   28.440    4.7218
   28.455    5.1606
   28.470    4.9675
   28.485    5.2659
   28.500    5.3010
   28.515    4.6340
   28.530    4.9675
   28.545    4.2303
   28.560    4.4234
   28.575    4.3707
   28.590    3.9143
   28.605    4.3707
   28.620    4.0548
   28.635    4.2654
   28.650    4.1074
   28.665    4.3356
   28.680    4.1776
   28.695    4.0548
   28.710    4.0548
   28.725    4.2303
   28.740    4.1776
   28.755    4.3356
   28.770    4.5989
   28.785    4.2303
   28.800    3.8968
   28.815    3.9670
   28.830    4.0197
   28.845    3.9670
   28.860    4.0548
   28.875    4.1074
   28.890    3.9846
   28.905    3.8441
   28.920    3.9846
   28.935    3.9670
   28.950    4.2830
   28.965    4.0723
   28.980    4.3707
   28.995    4.3005
   29.010    4.3883
   29.025    4.1425
   29.040    3.9494
   29.055    3.8090
   29.070    4.3005
   29.085    4.3883
   29.100    4.3005
   29.115    4.0899
   29.130    3.9143
   29.145    4.2303
   29.160    4.3883
   29.175    3.9670
   29.190    4.5463
   29.205    4.4585
   29.220    4.3356
   29.235    4.0723
   29.250    4.2830
   29.265    4.5463
   29.280    4.7042
   29.295    4.8622
   29.310    4.2303
   29.325    4.5111
   29.340    4.5287
   29.355    4.6691
   29.370    4.3181
   29.385    4.2654
   29.400    4.2478
   29.415    3.8090
   29.430    3.9494
   29.445    3.7915
   29.460    4.0021
   29.475    4.0021
   29.490    3.9670
   29.505    4.1074
   29.520    3.8090
   29.535    4.2478
   29.550    4.0372
   29.565    4.1776
   29.580    3.9319
   29.595    4.3005
   29.610    4.0899
   29.625    3.9494
   29.640    3.8441
   29.655    3.7915
   29.670    4.2127
   29.685    3.8968
   29.700    3.9319
   29.715    3.9670
   29.730    4.0021
   29.745    3.8968
   29.760    4.0372
   29.775    4.1601
   29.790    4.1952
   29.805    4.2303
   29.820    4.2478
   29.835    4.0372
   29.850    4.0723
   29.865    3.9494
   29.880    4.0548
   29.895    4.4760
   29.910    4.1952
   29.925    4.0197
   29.940    3.7564
   29.955    3.9319
   29.970    4.0021
   29.985    4.0723
   30.000    4.1074
   30.015    4.0197
   30.030    4.1425
   30.045    3.6159
   30.060    4.2303
   30.075    4.2654
   30.090    3.9846
   30.105    3.8617
   30.120    3.8266
   30.135    4.1952
   30.150    4.0548
   30.165    4.0899
   30.180    4.1952
   30.195    3.8090
   30.210    3.7037
   30.225    4.3356
   30.240    3.8441
   30.255    3.9846
   30.270    3.7388
   30.285    3.7388
   30.300    4.3532
   30.315    3.7564
   30.330    4.2830
   30.345    4.1952
   30.360    4.3707
   30.375    3.7564
   30.390    3.6686
   30.405    3.7213
   30.420    3.9319
   30.435    3.8441
   30.450    4.0197
   30.465    4.3356
   30.480    3.8441
   30.495    3.7213
   30.510    3.7388
   30.525    3.7915
   30.540    3.9846
   30.555    4.1074
   30.570    4.1250
   30.585    4.3005
   30.600    4.3707
   30.615    4.2303
   30.630    4.0723
   30.645    4.0197
   30.660    4.1952
   30.675    4.3181
   30.690    3.5808
   30.705    4.1250
   30.720    4.4234
   30.735    4.1952
   30.750    3.9670
   30.765    3.9494
   30.780    4.1074
   30.795    4.0899
   30.810    4.0723
   30.825    4.1952
   30.840    3.9143
   30.855    4.2830
   30.870    3.7213
   30.885    3.8968
   30.900    4.2654
   30.915    3.9670
   30.930    4.0372
   30.945    3.8617
   30.960    3.9319
   30.975    3.7213
   30.990    3.4755
   31.005    3.7037
   31.020    3.9143
   31.035    3.7037
   31.050    3.8090
   31.065    3.9846
   31.080    3.8792
   31.095    3.8266
   31.110    4.2127
   31.125    4.1074
   31.140    4.0723
   31.155    3.5457
   31.170    3.7388
   31.185    3.4053
   31.200    3.7564
   31.215    3.7739
   31.230    3.5808
   31.245    3.5633
   31.260    3.8090
   31.275    3.7915
   31.290    3.4229
   31.305    3.6862
   31.320    3.8266
   31.335    3.5808
   31.350    4.1952
   31.365    3.7915
   31.380    4.4058
   31.395    4.2478
   31.410    4.6516
   31.425    4.5463
   31.440    4.2303
   31.455    4.0723
   31.470    3.7739
   31.485    3.8617
   31.500    3.9143
   31.515    3.7564
   31.530    3.5984
   31.545    3.7564
   31.560    3.5633
   31.575    3.4580
   31.590    3.8266
   31.605    3.4931
   31.620    3.5984
   31.635    3.8090
   31.650    4.2830
   31.665    4.4234
   31.680    3.9494
   31.695    4.0723
   31.710    4.3532
   31.725    4.3707
   31.740    4.4936
   31.755    4.1074
   31.770    4.5463
   31.785    4.3707
   31.800    4.6867
   31.815    4.6165
   31.830    4.2830
   31.845    4.2303
   31.860    4.5287
   31.875    4.0197
   31.890    4.1952
   31.905    4.3883
   31.920    4.0197
   31.935    4.3005
   31.950    4.2478
   31.965    3.7388
   31.980    4.0197
   31.995    4.1250
   32.010    4.0723
   32.025    3.9846
   32.040    3.8441
   32.055    4.1250
   32.070    3.7037
   32.085    4.2127
   32.100    3.9494
   32.115    3.7564
   32.130    3.7739
   32.145    3.7037
   32.160    3.4404
   32.175    3.8266
   32.190    4.0372
   32.205    4.3356
   32.220    4.1952
   32.235    4.0723
   32.250    3.6159
   32.265    3.7915
   32.280    3.8090
   32.295    3.8266
   32.310    3.4404
   32.325    3.8968
   32.340    3.8090
   32.355    3.8792
   32.370    3.7388
   32.385    3.5282
   32.400    3.4053
   32.415    3.7213
   32.430    3.8617
   32.445    3.4755
   32.460    3.2649
   32.475    3.7915
   32.490    3.8441
   32.505    3.7564
   32.520    3.3000
   32.535    3.5633
   32.550    3.4931
   32.565    3.6686
   32.580    3.6159
   32.595    3.6335
   32.610    3.5633
   32.625    3.5808
   32.640    3.5808
   32.655    3.6686
   32.670    3.5808
   32.685    3.4404
   32.700    3.2824
   32.715    3.5984
   32.730    3.6686
   32.745    3.7388
   32.760    3.6510
   32.775    3.4931
   32.790    3.5282
   32.805    3.7739
   32.820    3.9846
   32.835    4.0021
   32.850    3.9670
   32.865    3.9319
   32.880    3.7037
   32.895    3.8441
   32.910    3.9846
   32.925    3.7915
   32.940    3.6686
   32.955    3.5633
   32.970    4.0548
   32.985    3.6686
   33.000    3.5984
   33.015    3.7564
   33.030    3.7037
   33.045    3.7739
   33.060    3.5808
   33.075    3.7915
   33.090    3.6335
   33.105    3.5633
   33.120    3.8441
   33.135    3.5282
   33.150    3.4931
   33.165    3.5808
   33.180    3.6862
   33.195    3.7915
   33.210    3.4053
   33.225    3.3351
   33.240    3.5282
   33.255    3.4404
   33.270    3.7213
   33.285    3.6686
   33.300    3.6159
   33.315    3.6510
   33.330    3.5808
   33.345    3.7915
   33.360    3.5457
   33.375    3.5984
   33.390    3.4053
   33.405    3.5106
   33.420    3.5106
   33.435    3.3702
   33.450    3.4931
   33.465    3.1420
   33.480    3.6159
   33.495    3.6335
   33.510    3.6159
   33.525    3.7564
   33.540    3.5457
   33.555    3.4755
   33.570    3.6335
   33.585    3.3351
   33.600    3.5282
   33.615    3.4404
   33.630    3.5808
   33.645    3.5457
   33.660    3.6159
   33.675    3.4580
   33.690    3.7915
   33.705    3.5106
   33.720    3.3000
   33.735    3.6862
   33.750    3.7037
   33.765    3.3877
   33.780    3.4755
   33.795    3.7564
   33.810    3.9846
   33.825    3.9319
   33.840    3.9494
   33.855    3.9319
   33.870    4.2303
   33.885    4.3532
   33.900    4.3707
   33.915    4.0899
   33.930    4.0548
   33.945    4.3005
   33.960    4.3181
   33.975    3.9846
   33.990    4.0899
   34.005    3.7564
   34.020    3.6510
   34.035    3.3877
   34.050    3.3351
   34.065    3.5808
   34.080    3.9143
   34.095    3.8090
   34.110    3.4229
   34.125    3.6510
   34.140    3.4404
   34.155    3.4229
   34.170    4.0197
   34.185    3.6335
   34.200    3.6159
   34.215    3.1596
   34.230    3.2824
   34.245    3.4053
   34.260    3.1771
   34.275    3.5282
   34.290    3.6686
   34.305    3.6862
   34.320    3.6686
   34.335    3.2298
   34.350    3.2649
   34.365    3.4229
   34.380    3.7037
   34.395    3.3702
   34.410    3.2122
   34.425    3.2122
   34.440    3.4053
   34.455    3.4404
   34.470    3.5984
   34.485    3.5282
   34.500    3.5457
   34.515    3.2824
   34.530    3.2122
   34.545    3.3526
   34.560    3.3175
   34.575    3.6510
   34.590    3.1245
   34.605    3.0191
   34.620    3.3175
   34.635    3.1596
   34.650    3.2122
   34.665    3.3877
   34.680    3.6862
   34.695    3.6862
   34.710    3.5457
   34.725    3.4755
   34.740    3.3877
   34.755    3.4229
   34.770    3.6335
   34.785    3.6862
   34.800    3.5106
   34.815    3.6335
   34.830    3.5633
   34.845    3.2824
   34.860    3.6510
   34.875    3.7037
   34.890    3.6686
   34.905    3.7213
   34.920    3.7037
   34.935    3.5808
   34.950    2.9489
   34.965    3.3526
   34.980    3.7388
   34.995    3.3702
   35.010    3.1420
   35.025    3.2473
   35.040    3.4580
   35.055    3.1771
   35.070    3.4931
   35.085    3.5106
   35.100    2.9665
   35.115    3.1771
   35.130    3.0718
   35.145    3.3000
   35.160    3.2473
   35.175    3.2122
   35.190    3.6686
   35.205    3.1596
   35.220    3.5808
   35.235    3.5457
   35.250    3.2649
   35.265    3.3000
   35.280    3.2122
   35.295    3.3702
   35.310    3.3351
   35.325    3.5633
   35.340    3.0893
   35.355    3.3526
   35.370    3.0718
   35.385    3.1596
   35.400    3.2122
   35.415    3.5106
   35.430    3.2122
   35.445    3.1245
   35.460    3.1947
   35.475    3.3526
   35.490    3.0542
   35.505    3.3877
   35.520    3.7739
   35.535    3.4580
   35.550    3.2298
   35.565    3.1947
   35.580    3.0718
   35.595    3.0893
   35.610    3.2298
   35.625    3.6510
   35.640    3.1420
   35.655    3.4931
   35.670    3.3526
   35.685    3.4053
   35.700    3.1596
   35.715    3.3526
   35.730    2.9840
   35.745    3.2649
   35.760    3.2649
   35.775    3.5457
   35.790    3.2473
   35.805    2.9138
   35.820    3.1245
   35.835    3.4580
   35.850    3.4404
   35.865    3.4931
   35.880    3.3351
   35.895    3.1420
   35.910    3.2649
   35.925    3.0367
   35.940    3.4053
   35.955    3.4931
   35.970    3.0367
   35.985    2.8787
   36.000    3.2649
   36.015    3.5808
   36.030    3.2649
   36.045    3.4053
   36.060    3.4931
   36.075    3.3000
   36.090    3.2298
   36.105    3.3702
   36.120    3.1771
   36.135    3.3526
   36.150    3.2824
   36.165    3.1771
   36.180    3.5282
   36.195    3.2122
   36.210    3.0191
   36.225    3.4053
   36.240    3.5984
   36.255    3.7564
   36.270    3.5984
   36.285    3.0367
   36.300    2.9489
   36.315    3.3526
   36.330    3.4053
   36.345    3.4053
   36.360    2.9840
   36.375    3.1596
   36.390    3.3175
   36.405    3.3526
   36.420    3.0893
   36.435    3.2122
   36.450    3.1596
   36.465    3.3175
   36.480    3.1069
   36.495    3.2473
   36.510    2.8787
   36.525    2.7207
   36.540    3.1245
   36.555    3.4053
   36.570    3.4053
   36.585    3.2473
   36.600    3.5282
   36.615    3.4931
   36.630    3.1947
   36.645    3.3526
   36.660    3.4755
   36.675    3.0367
   36.690    3.1771
   36.705    3.4404
   36.720    3.3702
   36.735    3.4580
   36.750    3.2122
   36.765    3.1420
   36.780    3.3351
   36.795    3.0016
   36.810    3.0542
   36.825    3.1947
   36.840    2.8612
   36.855    3.0367
   36.870    2.7909
   36.885    3.1596
   36.900    3.4229
   36.915    3.1596
   36.930    3.0367
   36.945    3.2122
   36.960    2.9665
   36.975    2.9665
   36.990    3.2824
   37.005    3.3351
   37.020    3.1596
   37.035    2.6856
   37.050    3.3877
   37.065    3.3877
   37.080    3.2473
   37.095    3.3000
   37.110    3.2473
   37.125    3.2649
   37.140    3.4755
   37.155    3.4755
   37.170    3.4229
   37.185    2.8612
   37.200    3.2122
   37.215    3.1069
   37.230    2.8787
   37.245    2.7032
   37.260    3.0893
   37.275    2.9665
   37.290    3.0893
   37.305    2.8260
   37.320    3.0191
   37.335    3.0367
   37.350    2.9665
   37.365    3.0718
   37.380    2.9840
   37.395    2.8612
   37.410    3.0367
   37.425    2.9314
   37.440    2.8085
   37.455    2.8436
   37.470    2.8787
   37.485    3.0016
   37.500    3.6159
   37.515    2.9665
   37.530    3.0016
   37.545    3.2649
   37.560    2.9314
   37.575    2.9489
   37.590    3.6159
   37.605    3.2122
   37.620    3.0718
   37.635    3.3000
   37.650    3.0016
   37.665    3.0367
   37.680    3.2824
   37.695    3.3000
   37.710    3.1771
   37.725    3.0191
   37.740    3.5106
   37.755    3.5457
   37.770    3.5457
   37.785    2.9138
   37.800    3.0191
   37.815    3.1596
   37.830    3.0367
   37.845    2.9314
   37.860    3.2122
   37.875    3.3702
   37.890    3.2824
   37.905    3.1420
   37.920    2.9665
   37.935    3.1771
   37.950    2.8787
   37.965    2.8787
   37.980    3.2122
   37.995    3.3877
   38.010    3.0893
   38.025    3.2298
   38.040    3.4404
   38.055    3.3702
   38.070    3.2824
   38.085    2.7383
   38.100    2.9489
   38.115    2.9489
   38.130    3.0718
   38.145    2.7558
   38.160    2.6505
   38.175    3.0016
   38.190    2.7734
   38.205    2.9314
   38.220    3.1420
   38.235    2.7207
   38.250    3.0016
   38.265    3.0191
   38.280    2.8436
   38.295    3.2298
   38.310    2.7558
   38.325    2.6505
   38.340    3.0016
   38.355    2.8260
   38.370    3.0016
   38.385    2.9138
   38.400    3.1771
   38.415    3.1771
   38.430    2.8963
   38.445    2.9138
   38.460    3.2298
   38.475    3.0367
   38.490    3.0893
   38.505    3.2122
   38.520    3.1596
   38.535    3.1596
   38.550    2.8963
   38.565    3.0718
   38.580    3.1420
   38.595    3.1245
   38.610    3.1420
   38.625    2.7909
   38.640    2.7734
   38.655    3.3526
   38.670    3.1596
   38.685    2.9665
   38.700    3.1420
   38.715    3.1069
   38.730    3.0016
   38.745    3.0016
   38.760    2.5628
   38.775    2.8612
   38.790    3.3000
   38.805    3.1245
   38.820    3.5633
   38.835    3.4580
   38.850    2.9665
   38.865    3.0542
   38.880    3.3175
   38.895    3.0893
   38.910    3.1069
   38.925    2.8963
   38.940    3.1069
   38.955    3.0367
   38.970    2.8612
   38.985    2.8260
   39.000    3.0367
   39.015    3.0542
   39.030    3.0893
   39.045    3.2473
   39.060    3.3000
   39.075    2.8787
   39.090    2.7734
   39.105    3.1069
   39.120    3.3351
   39.135    2.9314
   39.150    2.8787
   39.165    3.1596
   39.180    3.1596
   39.195    2.8260
   39.210    3.0191
   39.225    3.0718
   39.240    3.3351
   39.255    3.4053
   39.270    3.1420
   39.285    2.9489
   39.300    3.1771
   39.315    2.8787
   39.330    2.7032
   39.345    3.0367
   39.360    3.1947
   39.375    3.1771
   39.390    2.7558
   39.405    2.6505
   39.420    2.7558
   39.435    3.1947
   39.450    3.1245
   39.465    2.8436
   39.480    2.9138
   39.495    3.0191
   39.510    3.1947
   39.525    3.1245
   39.540    2.9840
   39.555    2.9138
   39.570    3.0367
   39.585    3.1069
   39.600    3.0367
   39.615    2.8787
   39.630    2.8787
   39.645    3.3526
   39.660    3.1947
   39.675    3.2473
   39.690    3.2824
   39.705    3.0542
   39.720    3.0718
   39.735    3.5282
   39.750    3.0718
   39.765    2.9314
   39.780    3.0367
   39.795    3.3000
   39.810    3.3351
   39.825    3.5633
   39.840    3.3877
   39.855    2.8085
   39.870    3.0893
   39.885    2.8963
   39.900    2.5803
   39.915    2.8963
   39.930    2.7032
   39.945    2.8260
   39.960    2.7909
   39.975    2.9840
   39.990    2.5979
