    1.500   28.1517
    1.515   28.1727
    1.530   28.1306
    1.545   28.3518
    1.560   26.4244
    1.575   26.7931
    1.590   26.0453
    1.605   25.8347
    1.620   25.3397
    1.635   24.5603
    1.650   24.6130
    1.665   23.5598
    1.680   23.4439
    1.695   23.9389
    1.710   23.8968
    1.725   23.2017
    1.740   23.8020
    1.755   23.2438
    1.770   22.6330
    1.785   22.2328
    1.800   22.2433
    1.815   21.8536
    1.830   21.6640
    1.845   21.9484
    1.860   21.6640
    1.875   21.2744
    1.890   21.3586
    1.905   21.6114
    1.920   21.0743
    1.935   20.5266
    1.950   20.1053
    1.965   20.6740
    1.980   21.1269
    1.995   20.6319
    2.010   20.5055
    2.025   19.7894
    2.040   19.6735
    2.055   19.4313
    2.070   19.8526
    2.085   20.0105
    2.100   19.8526
    2.115   20.1790
    2.130   20.0632
    2.145   19.8947
    2.160   19.7578
    2.175   19.6419
    2.190   20.1159
    2.205   19.8315
    2.220   20.1053
    2.235   19.5155
    2.250   18.6519
    2.265   20.1580
    2.280   20.3686
    2.295   20.1685
    2.310   19.8104
    2.325   20.0000
    2.340   20.5266
    2.355   19.4945
    2.370   19.5366
    2.385   20.3476
    2.400   20.4318
    2.415   20.4950
    2.430   20.6740
    2.445   20.6530
    2.460   20.7583
    2.475   20.4318
    2.490   20.2949
    2.505   19.9157
    2.520   20.9163
    2.535   20.7267
    2.550   22.0221
    2.565   22.0537
    2.580   21.2428
    2.595   21.3691
    2.610   22.0116
    2.625   22.5171
    2.640   22.2433
    2.655   22.3275
    2.670   23.6756
    2.685   23.2333
    2.700   23.2333
    2.715   23.5703
    2.730   23.5387
    2.745   24.6761
    2.760   24.8131
    2.775   24.3181
    2.790   25.6030
    2.805   26.0242
    2.820   26.4244
    2.835   26.0874
    2.850   26.2033
    2.865   27.0248
    2.880   27.2459
    2.895   27.5619
    2.910   28.5835
    2.925   29.6051
    2.940   30.1843
    2.955   30.5213
    2.970   30.6477
    2.985   31.6377
    3.000   33.3860
    3.015   32.8067
    3.030   33.4281
    3.045   33.7651
    3.060   35.2396
    3.075   35.5029
    3.090   36.7457
    3.105   36.6930
    3.120   37.9989
    3.135   38.9363
    3.150   39.0943
    3.165   39.7788
    3.180   42.3065
    3.195   43.4334
    3.210   44.5287
    3.225   45.8031
    3.240   46.2349
    3.255   47.1722
    3.270   48.7520
    3.285   50.6056
    3.300   52.3749
    3.315   53.8283
    3.330   56.3033
    3.345   56.8615
    3.360   58.9468
    3.375   60.7794
    3.390   63.7599
    3.405   64.7709
    3.420   67.2986
    3.435   70.1211
    3.450   72.3855
    3.465   75.7451
    3.480   78.5150
    3.495   82.2644
    3.510   83.6546
    3.525   87.3618
    3.540   92.0800
    3.555   96.0084
    3.570  101.3376
    3.585  105.4660
    3.600  109.9631
    3.615  115.8505
    3.630  121.0216
    3.645  129.6683
    3.660  136.1664
    3.675  142.0958
    3.690  150.6477
    3.705  160.3160
    3.720  168.3728
    3.735  179.7894
    3.750  194.5761
    3.765  209.5735
    3.780  227.5303
    3.795  251.0479
    3.810  277.2723
    3.825  307.2249
    3.840  358.9995
    3.855  432.0379
    3.870  492.7857
    3.885  530.5424
    3.900  515.8294
    3.915  452.3960
    3.930  342.3065
    3.945  189.1417
    3.960   73.1122
    3.975   28.7098
    3.990   18.1148
    4.005   14.4076
    4.020   13.2385
    4.035   13.0595
    4.050   12.0274
    4.065   11.2480
    4.080   11.0269
    4.095   10.5635
    4.110   10.6898
    4.125   10.1527
    4.140   10.0790
    4.155    9.8894
    4.170   10.0053
    4.185   10.0053
    4.200   10.0158
    4.215   10.1843
    4.230    9.6261
    4.245    9.4997
    4.260    9.8684
    4.275    9.5735
    4.290    9.3102
    4.305    9.5945
    4.320    9.1522
    4.335    9.2154
    4.350    9.0785
    4.365    9.9210
    4.380    9.2891
    4.395    9.7946
    4.410    9.8578
    4.425    9.6998
    4.440   10.0895
    4.455    9.6261
    4.470    9.3944
    4.485    9.7314
    4.500    9.4997
    4.515    9.4260
    4.530    9.7841
    4.545    9.4365
    4.560    9.7314
    4.575    9.6261
    4.590    9.7525
    4.605    9.9421
    4.620    9.9210
    4.635    9.7314
    4.650   10.0053
    4.665   10.3423
    4.680    9.9105
    4.695   10.1316
    4.710   10.6056
    4.725   10.6477
    4.740   10.6372
    4.755   10.3002
    4.770   10.8899
    4.785   10.4687
    4.800   10.8583
    4.815   11.4797
    4.830   11.0269
    4.845   11.2902
    4.860   11.1322
    4.875   11.4903
    4.890   11.7852
    4.905   11.8694
    4.920   12.1959
    4.935   12.3644
    4.950   12.1116
    4.965   12.6804
    4.980   12.9753
    4.995   13.2807
    5.010   12.9542
    5.025   13.1332
    5.040   13.5966
    5.055   14.5234
    5.070   14.8078
    5.085   14.9868
    5.100   14.9763
    5.115   15.4818
    5.130   16.1348
    5.145   16.7562
    5.160   17.1985
    5.175   17.5250
    5.190   18.9047
    5.205   18.2517
    5.220   19.0205
    5.235   20.5582
    5.250   21.0005
    5.265   22.0432
    5.280   23.3702
    5.295   23.5492
    5.310   24.8973
    5.325   26.6035
    5.340   28.1095
    5.355   29.3734
    5.370   32.2064
    5.385   33.9547
    5.400   36.4824
    5.415   39.8736
    5.430   43.4860
    5.445   48.3834
    5.460   54.9131
    5.475   65.7609
    5.490   77.0616
    5.505   83.5387
    5.520   83.2228
    5.535   75.8926
    5.550   60.7794
    5.565   41.5587
    5.580   21.8852
    5.595   12.5961
    5.610    9.3839
    5.625    8.8994
    5.640    8.9415
    5.655    8.2780
    5.670    8.1622
    5.685    8.1622
    5.700    8.1727
    5.715    8.2359
    5.730    8.3939
    5.745    7.7725
    5.760    8.1727
    5.775    8.2886
    5.790    7.9726
    5.805    8.0779
    5.820    8.2780
    5.835    8.4571
    5.850    7.7725
    5.865    7.7409
    5.880    7.9726
    5.895    8.0463
    5.910    8.2570
    5.925    7.8146
    5.940    7.9831
    5.955    8.0253
    5.970    8.5203
    5.985    7.9516
    6.000    7.8146
    6.015    7.9937
    6.030    7.9937
    6.045    7.8673
    6.060    7.7830
    6.075    7.8462
    6.090    8.0253
    6.105    7.9410
    6.120    8.0358
    6.135    7.8357
    6.150    8.1622
    6.165    8.0147
    6.180    8.1833
    6.195    8.6572
    6.210    8.0147
    6.225    8.2675
    6.240    7.9516
    6.255    8.5835
    6.270    8.3307
    6.285    7.8568
    6.300    7.9516
    6.315    7.6251
    6.330    8.1411
    6.345    8.3834
    6.360    8.3096
    6.375    8.2886
    6.390    7.9831
    6.405    8.0990
    6.420    7.9831
    6.435    8.2991
    6.450    8.1622
    6.465    8.1306
    6.480    8.3518
    6.495    7.9305
    6.510    8.4150
    6.525    8.8784
    6.540    8.8678
    6.555    8.6888
    6.570    8.5729
    6.585    9.0363
    6.600    8.8152
    6.615    8.9731
    6.630    9.1311
    6.645   10.0895
    6.660    9.4155
    6.675   10.0790
    6.690   10.3949
    6.705   10.6477
    6.720   11.6588
    6.735   11.7957
    6.750   12.4276
    6.765   12.3855
    6.780   11.3849
    6.795   11.1954
    6.810    9.5945
    6.825    8.7625
    6.840    7.6567
    6.855    7.5724
    6.870    7.5724
    6.885    7.8778
    6.900    7.6040
    6.915    7.4882
    6.930    7.7409
    6.945    7.5619
    6.960    7.8989
    6.975    7.9726
    6.990    7.7936
    7.005    8.1306
    7.020    7.9200
    7.035    7.9410
    7.050    7.8778
    7.065    7.7409
    7.080    7.5197
    7.095    7.6145
    7.110    7.7620
    7.125    7.7514
    7.140    7.7093
    7.155    8.2464
    7.170    8.7098
    7.185    8.2254
    7.200    7.8462
    7.215    7.5724
    7.230    7.7199
    7.245    8.2991
    7.260    8.2464
    7.275    7.7620
    7.290    8.3412
    7.305    8.3202
    7.320    8.6361
    7.335    8.7730
    7.350    8.6993
    7.365    8.7204
    7.380    8.8362
    7.395    8.3412
    7.410    9.1838
    7.425    9.2996
    7.440    9.7420
    7.455    9.6472
    7.470    9.7630
    7.485    9.6472
    7.500    9.9105
    7.515    9.6998
    7.530   10.5529
    7.545   11.4797
    7.560   11.3955
    7.575   11.5219
    7.590   12.0379
    7.605   12.4803
    7.620   13.0595
    7.635   13.3228
    7.650   14.1969
    7.665   14.8605
    7.680   15.7241
    7.695   16.3770
    7.710   17.5987
    7.725   19.1469
    7.740   21.1796
    7.755   24.0653
    7.770   26.9510
    7.785   30.7636
    7.800   34.1548
    7.815   35.6819
    7.830   33.7757
    7.845   28.8362
    7.860   21.4113
    7.875   14.6603
    7.890   10.1843
    7.905    8.1411
    7.920    7.7620
    7.935    7.4250
    7.950    7.8778
    7.965    7.7304
    7.980    7.8462
    7.995    7.3618
    8.010    7.2775
    8.025    7.2459
    8.040    6.9826
    8.055    7.2565
    8.070    7.6145
    8.085    7.3723
    8.100    7.4776
    8.115    7.2775
    8.130    7.4250
    8.145    7.6461
    8.160    7.4250
    8.175    7.4671
    8.190    7.3934
    8.205    7.4776
    8.220    7.6251
    8.235    7.2986
    8.250    7.2143
    8.265    7.2459
    8.280    7.3723
    8.295    7.4250
    8.310    7.4250
    8.325    7.3723
    8.340    7.7514
    8.355    7.8989
    8.370    7.9726
    8.385    8.1727
    8.400    7.4039
    8.415    7.5829
    8.430    7.6988
    8.445    7.7199
    8.460    7.8989
    8.475    8.0147
    8.490    7.7514
    8.505    7.7409
    8.520    7.8252
    8.535    7.9937
    8.550    8.3623
    8.565    8.0463
    8.580    8.5308
    8.595    8.3202
    8.610    8.4466
    8.625    8.4150
    8.640    9.0258
    8.655    9.0363
    8.670    9.3207
    8.685   10.2896
    8.700   10.8689
    8.715   12.1748
    8.730   12.1116
    8.745   11.8799
    8.760   11.7536
    8.775   10.7320
    8.790    9.3418
    8.805    8.0990
    8.820    8.0147
    8.835    7.4460
    8.850    7.1617
    8.865    7.5197
    8.880    7.4566
    8.895    7.6251
    8.910    7.0774
    8.925    7.2354
    8.940    7.4039
    8.955    7.5092
    8.970    7.4987
    8.985    7.4776
    9.000    7.4987
    9.015    7.5619
    9.030    8.0042
    9.045    8.2991
    9.060    8.0569
    9.075    7.6672
    9.090    7.6777
    9.105    7.9516
    9.120    7.7409
    9.135    7.8041
    9.150    8.7836
    9.165    8.6151
    9.180    8.5519
    9.195    8.3096
    9.210    7.9410
    9.225    8.8152
    9.240    9.1732
    9.255    9.6367
    9.270    9.0258
    9.285    9.9210
    9.300    9.8473
    9.315   10.0895
    9.330   10.1843
    9.345   10.8583
    9.360   11.0585
    9.375   11.4376
    9.390   12.6277
    9.405   13.1438
    9.420   13.5229
    9.435   14.1759
    9.450   15.4608
    9.465   16.9774
    9.480   18.1464
    9.495   19.5471
    9.510   21.9905
    9.525   25.9294
    9.540   29.4787
    9.555   33.9231
    9.570   37.6725
    9.585   37.1880
    9.600   34.5024
    9.615   28.8784
    9.630   21.2954
    9.645   13.9021
    9.660    9.7209
    9.675    8.1517
    9.690    7.5303
    9.705    7.4039
    9.720    7.5408
    9.735    7.5724
    9.750    7.5092
    9.765    7.2880
    9.780    6.7615
    9.795    6.8457
    9.810    7.2565
    9.825    6.9089
    9.840    7.1722
    9.855    7.0774
    9.870    7.5092
    9.885    7.5092
    9.900    7.3407
    9.915    7.4671
    9.930    7.2880
    9.945    7.0774
    9.960    7.5092
    9.975    7.5197
    9.990    7.5619
   10.005    7.6883
   10.020    7.5724
   10.035    7.7304
   10.050    7.3828
   10.065    7.6672
   10.080    8.1727
   10.095    8.3939
   10.110    8.0253
   10.125    8.3518
   10.140    8.8573
   10.155    8.8784
   10.170    8.7730
   10.185    8.9837
   10.200    9.4892
   10.215    9.9631
   10.230   10.7636
   10.245   10.1843
   10.260   11.5745
   10.275   12.2907
   10.290   13.4597
   10.305   15.1132
   10.320   16.9352
   10.335   18.2938
   10.350   18.7151
   10.365   18.4623
   10.380   16.7773
   10.395   13.5966
   10.410   10.7846
   10.425    8.7414
   10.440    7.7093
   10.455    7.2459
   10.470    7.5092
   10.485    7.4566
   10.500    7.1827
   10.515    7.3934
   10.530    7.4671
   10.545    7.3091
   10.560    7.2038
   10.575    7.2143
   10.590    7.0669
   10.605    7.1722
   10.620    6.7088
   10.635    6.6877
   10.650    7.1195
   10.665    6.8562
   10.680    7.2459
   10.695    7.5619
   10.710    7.0142
   10.725    7.1722
   10.740    7.6251
   10.755    7.4039
   10.770    7.7304
   10.785    7.6040
   10.800    7.9726
   10.815    7.9305
   10.830    8.0569
   10.845    8.0779
   10.860    8.3202
   10.875    8.4466
   10.890    9.2786
   10.905    9.1627
   10.920    9.3628
   10.935    9.9421
   10.950   10.7109
   10.965   11.0585
   10.980   11.9747
   10.995   12.9753
   11.010   14.0495
   11.025   16.0295
   11.040   18.1253
   11.055   19.8736
   11.070   20.2422
   11.085   19.7578
   11.100   17.6093
   11.115   14.9974
   11.130   11.6588
   11.145    8.8257
   11.160    7.1406
   11.175    7.1406
   11.190    7.3091
   11.205    7.1827
   11.220    6.9405
   11.235    6.7825
   11.250    7.0774
   11.265    7.0563
   11.280    6.8562
   11.295    7.0037
   11.310    6.8141
   11.325    7.0353
   11.340    6.7720
   11.355    6.9300
   11.370    7.2354
   11.385    7.1933
   11.400    7.1195
   11.415    7.3196
   11.430    7.6672
   11.445    7.3828
   11.460    7.1617
   11.475    7.6040
   11.490    7.6145
   11.505    7.9410
   11.520    8.0463
   11.535    8.4676
   11.550    8.5203
   11.565    8.7204
   11.580    9.6893
   11.595    9.5419
   11.610   10.1738
   11.625   10.2686
   11.640   10.9321
   11.655   11.9537
   11.670   12.2275
   11.685   13.9337
   11.700   16.2928
   11.715   17.6514
   11.730   19.8315
   11.745   20.0737
   11.760   19.2522
   11.775   17.7462
   11.790   14.4813
   11.805   11.3744
   11.820    9.1732
   11.835    7.3302
   11.850    6.8878
   11.865    6.6456
   11.880    6.9194
   11.895    6.7088
   11.910    7.0353
   11.925    6.8141
   11.940    6.6772
   11.955    6.7825
   11.970    6.2243
   11.985    6.4876
   12.000    6.8141
   12.015    6.9616
   12.030    6.7720
   12.045    6.4244
   12.060    6.7615
   12.075    7.2986
   12.090    6.9405
   12.105    6.8352
   12.120    6.9510
   12.135    6.7615
   12.150    6.9194
   12.165    7.1301
   12.180    6.9089
   12.195    6.6035
   12.210    6.6561
   12.225    7.0669
   12.240    7.1090
   12.255    7.4987
   12.270    7.1617
   12.285    7.5092
   12.300    7.1090
   12.315    7.6145
   12.330    7.9937
   12.345    9.1206
   12.360    9.6156
   12.375    9.9947
   12.390    9.3102
   12.405    9.2154
   12.420    8.6783
   12.435    8.2886
   12.450    7.6040
   12.465    7.4355
   12.480    6.6456
   12.495    6.6561
   12.510    6.7193
   12.525    6.3928
   12.540    6.5613
   12.555    6.4982
   12.570    6.7720
   12.585    6.3191
   12.600    6.6877
   12.615    7.0248
   12.630    6.9932
   12.645    7.1195
   12.660    6.8036
   12.675    6.7404
   12.690    6.7930
   12.705    6.9510
   12.720    6.8352
   12.735    7.3723
   12.750    7.4460
   12.765    7.8041
   12.780    7.0037
   12.795    7.2986
   12.810    8.0147
   12.825    8.4044
   12.840    8.2886
   12.855    7.8673
   12.870    8.4781
   12.885    8.8784
   12.900    9.5208
   12.915   10.7004
   12.930   11.3639
   12.945   12.1116
   12.960   13.1648
   12.975   14.2496
   12.990   15.1237
   13.005   15.1553
   13.020   13.4913
   13.035   12.1116
   13.050    9.9842
   13.065    8.1411
   13.080    7.1511
   13.095    7.0563
   13.110    6.7930
   13.125    6.5508
   13.140    6.6772
   13.155    6.8141
   13.170    6.6140
   13.185    6.5824
   13.200    6.3507
   13.215    6.6667
   13.230    6.6456
   13.245    6.6983
   13.260    6.5824
   13.275    6.6561
   13.290    6.4876
   13.305    6.2981
   13.320    6.7088
   13.335    6.3823
   13.350    6.8562
   13.365    6.4560
   13.380    6.9826
   13.395    6.7088
   13.410    7.0142
   13.425    6.9616
   13.440    7.4144
   13.455    7.8462
   13.470    8.1411
   13.485    8.1306
   13.500    9.0153
   13.515    9.6472
   13.530    9.7841
   13.545   10.3949
   13.560   10.6898
   13.575   11.3217
   13.590   11.1006
   13.605   10.4581
   13.620    9.5103
   13.635    8.4887
   13.650    7.4987
   13.665    6.8668
   13.680    6.3823
   13.695    6.8457
   13.710    6.7930
   13.725    6.3402
   13.740    6.3823
   13.755    6.6877
   13.770    6.4560
   13.785    6.4034
   13.800    6.5824
   13.815    6.5403
   13.830    6.5613
   13.845    6.7720
   13.860    6.4244
   13.875    7.0037
   13.890    7.2775
   13.905    6.9510
   13.920    6.7615
   13.935    7.3196
   13.950    7.6040
   13.965    7.6883
   13.980    7.7725
   13.995    7.8252
   14.010    7.8357
   14.025    8.5624
   14.040    9.2891
   14.055    9.6788
   14.070   10.2791
   14.085   12.1327
   14.100   13.0174
   14.115   13.9547
   14.130   14.1969
   14.145   13.7967
   14.160   12.9858
   14.175   10.9215
   14.190    9.3628
   14.205    7.8357
   14.220    6.6877
   14.235    6.3612
   14.250    6.3823
   14.265    6.2770
   14.280    6.2454
   14.295    6.4244
   14.310    6.2875
   14.325    6.4350
   14.340    6.3086
   14.355    6.3718
   14.370    5.8873
   14.385    6.0769
   14.400    6.2454
   14.415    6.4034
   14.430    6.0769
   14.445    6.2454
   14.460    6.3086
   14.475    6.3928
   14.490    6.6877
   14.505    6.8562
   14.520    6.3612
   14.535    6.2243
   14.550    6.1822
   14.565    6.4455
   14.580    6.1611
   14.595    6.3507
   14.610    6.3928
   14.625    6.6245
   14.640    6.3612
   14.655    6.0769
   14.670    6.6561
   14.685    6.6772
   14.700    6.5508
   14.715    6.8773
   14.730    6.5929
   14.745    6.4350
   14.760    6.4876
   14.775    6.7088
   14.790    6.3402
   14.805    5.9821
   14.820    6.1190
   14.835    6.5508
   14.850    6.3296
   14.865    6.4560
   14.880    6.1927
   14.895    6.0769
   14.910    6.3823
   14.925    6.3086
   14.940    6.4350
   14.955    7.0142
   14.970    6.9405
   14.985    6.6140
   15.000    6.8562
   15.015    7.1406
   15.030    6.6877
   15.045    7.1301
   15.060    7.4250
   15.075    7.3407
   15.090    7.0142
   15.105    7.2249
   15.120    7.9937
   15.135    8.2991
   15.150    8.5203
   15.165    9.3628
   15.180    9.8262
   15.195    9.7209
   15.210    9.8473
   15.225    9.0258
   15.240    8.6361
   15.255    7.8146
   15.270    6.9405
   15.285    6.8036
   15.300    6.1822
   15.315    6.4455
   15.330    6.4034
   15.345    6.6877
   15.360    6.5508
   15.375    5.9716
   15.390    6.5613
   15.405    6.3718
   15.420    5.9400
   15.435    5.9926
   15.450    6.2981
   15.465    6.6983
   15.480    7.0142
   15.495    6.6035
   15.510    6.4350
   15.525    6.4350
   15.540    6.3402
   15.555    6.4876
   15.570    6.8668
   15.585    6.2665
   15.600    6.3823
   15.615    6.1927
   15.630    6.2875
   15.645    6.4771
   15.660    6.3296
   15.675    6.0769
   15.690    6.4350
   15.705    6.3928
   15.720    6.3718
   15.735    6.4350
   15.750    6.2981
   15.765    6.0348
   15.780    6.3928
   15.795    6.6245
   15.810    6.2559
   15.825    6.2770
   15.840    6.4876
   15.855    6.3718
   15.870    6.0664
   15.885    6.4771
   15.900    6.5613
   15.915    6.6772
   15.930    6.5298
   15.945    6.5613
   15.960    6.3402
   15.975    6.8562
   15.990    6.6667
   16.005    6.4666
   16.020    6.6351
   16.035    7.1827
   16.050    7.0037
   16.065    7.2565
   16.080    7.8357
   16.095    7.5724
   16.110    7.5408
   16.125    8.0674
   16.140    8.8678
   16.155    9.0047
   16.170    9.3418
   16.185    9.0469
   16.200    9.1311
   16.215    8.8257
   16.230    7.6356
   16.245    7.0985
   16.260    6.5403
   16.275    6.7615
   16.290    6.3823
   16.305    6.2243
   16.320    6.4666
   16.335    6.6772
   16.350    6.4455
   16.365    6.6140
   16.380    6.3402
   16.395    6.1611
   16.410    6.7930
   16.425    6.6877
   16.440    6.4876
   16.455    6.6561
   16.470    6.4876
   16.485    6.7825
   16.500    6.6035
   16.515    7.2565
   16.530    7.6672
   16.545    7.3091
   16.560    7.2354
   16.575    7.3407
   16.590    8.0253
   16.605    8.8257
   16.620    9.6682
   16.635    9.8052
   16.650    9.8368
   16.665    9.5208
   16.680    8.6677
   16.695    8.3202
   16.710    7.8673
   16.725    7.6251
   16.740    7.1195
   16.755    6.6456
   16.770    6.5298
   16.785    6.5298
   16.800    6.4982
   16.815    6.4455
   16.830    6.5298
   16.845    6.7193
   16.860    7.0563
   16.875    6.7088
   16.890    6.8457
   16.905    6.6456
   16.920    6.8668
   16.935    6.9721
   16.950    7.5513
   16.965    7.6251
   16.980    7.7304
   16.995    8.0358
   17.010    8.5624
   17.025    8.5203
   17.040    9.2575
   17.055   10.7004
   17.070   11.6798
   17.085   12.8910
   17.100   12.3960
   17.115   12.9121
   17.130   12.5013
   17.145   11.5534
   17.160    9.9947
   17.175    8.5940
   17.190    7.4355
   17.205    7.2249
   17.220    6.8352
   17.235    6.6772
   17.250    6.5824
   17.265    6.5824
   17.280    6.4876
   17.295    6.2559
   17.310    6.3507
   17.325    6.5192
   17.340    6.6456
   17.355    6.8773
   17.370    6.6351
   17.385    6.3507
   17.400    6.7930
   17.415    6.5403
   17.430    6.5403
   17.445    6.8773
   17.460    6.8878
   17.475    6.7615
   17.490    6.9616
   17.505    6.7720
   17.520    7.3196
   17.535    7.5619
   17.550    7.5408
   17.565    7.6461
   17.580    7.5092
   17.595    7.4460
   17.610    7.0985
   17.625    6.8984
   17.640    6.4560
   17.655    6.4350
   17.670    6.7615
   17.685    6.4350
   17.700    6.8457
   17.715    6.1927
   17.730    6.0874
   17.745    6.5192
   17.760    6.8668
   17.775    6.5298
   17.790    6.4244
   17.805    5.9821
   17.820    6.1401
   17.835    6.8246
   17.850    7.3196
   17.865    6.7088
   17.880    6.6245
   17.895    6.6245
   17.910    7.1301
   17.925    7.1406
   17.940    7.3407
   17.955    7.2354
   17.970    7.7936
   17.985    7.6461
   18.000    7.5619
   18.015    7.8884
   18.030    7.9305
   18.045    7.0879
   18.060    7.2880
   18.075    6.8562
   18.090    6.2770
   18.105    6.9194
   18.120    6.9616
   18.135    6.7088
   18.150    6.5929
   18.165    5.8768
   18.180    6.3296
   18.195    6.4666
   18.210    6.0453
   18.225    6.8457
   18.240    6.4455
   18.255    6.4771
   18.270    6.9089
   18.285    6.8352
   18.300    6.8773
   18.315    6.7299
   18.330    7.1827
   18.345    7.1933
   18.360    7.4039
   18.375    7.4882
   18.390    8.5413
   18.405    8.2780
   18.420    8.4044
   18.435    7.8252
   18.450    8.0674
   18.465    7.8989
   18.480    7.4776
   18.495    7.2880
   18.510    6.8878
   18.525    6.6140
   18.540    6.4244
   18.555    6.9826
   18.570    6.7509
   18.585    6.4455
   18.600    6.0874
   18.615    6.5719
   18.630    6.5929
   18.645    6.8246
   18.660    6.5087
   18.675    6.8457
   18.690    6.9405
   18.705    6.7930
   18.720    6.6772
   18.735    7.0037
   18.750    6.8773
   18.765    6.8773
   18.780    7.4039
   18.795    7.4671
   18.810    7.5619
   18.825    7.9410
   18.840    7.9516
   18.855    7.7304
   18.870    8.0990
   18.885    7.3618
   18.900    7.1406
   18.915    7.0142
   18.930    6.7404
   18.945    6.4982
   18.960    6.3296
   18.975    6.5719
   18.990    6.2243
   19.005    6.3296
   19.020    6.6035
   19.035    6.5719
   19.050    6.6351
   19.065    6.7509
   19.080    6.1190
   19.095    6.4560
   19.110    6.8773
   19.125    6.2349
   19.140    6.3612
   19.155    6.7088
   19.170    6.6245
   19.185    6.6351
   19.200    7.0037
   19.215    6.8246
   19.230    6.7615
   19.245    6.6140
   19.260    6.4350
   19.275    7.0037
   19.290    6.4455
   19.305    6.8141
   19.320    6.7088
   19.335    6.2665
   19.350    6.1401
   19.365    7.0669
   19.380    6.4034
   19.395    6.3402
   19.410    6.9405
   19.425    6.9089
   19.440    6.3296
   19.455    6.7615
   19.470    7.0037
   19.485    7.3618
   19.500    6.7825
   19.515    6.8773
   19.530    7.1406
   19.545    7.0037
   19.560    7.6251
   19.575    8.0463
   19.590    8.6045
   19.605    9.0047
   19.620    9.3839
   19.635    9.3944
   19.650    9.6367
   19.665    9.7209
   19.680   10.2159
   19.695    9.2786
   19.710    8.0253
   19.725    7.4671
   19.740    7.0458
   19.755    6.7193
   19.770    6.5613
   19.785    6.4455
   19.800    6.3612
   19.815    6.4139
   19.830    6.4034
   19.845    6.3507
   19.860    6.4666
   19.875    6.7404
   19.890    6.3296
   19.905    6.4666
   19.920    6.4876
   19.935    6.4244
   19.950    6.7930
   19.965    6.6456
   19.980    6.8246
   19.995    6.6351
   20.010    6.5613
   20.025    6.5192
   20.040    6.5929
   20.055    6.9194
   20.070    6.8984
   20.085    7.0774
   20.100    6.8036
   20.115    6.3928
   20.130    6.9089
   20.145    6.5719
   20.160    6.5087
   20.175    6.6245
   20.190    6.6456
   20.205    6.6351
   20.220    6.6667
   20.235    6.8668
   20.250    6.8984
   20.265    6.9510
   20.280    7.2880
   20.295    7.2880
   20.310    7.7514
   20.325    7.8778
   20.340    8.3728
   20.355    9.1732
   20.370   10.0685
   20.385   10.8373
   20.400   11.1532
   20.415   12.0906
   20.430   12.5750
   20.445   13.2491
   20.460   11.9642
   20.475   10.6477
   20.490    9.8473
   20.505    8.5940
   20.520    7.9094
   20.535    7.1722
   20.550    6.5929
   20.565    6.8352
   20.580    6.7299
   20.595    6.5403
   20.610    6.6983
   20.625    6.7193
   20.640    6.7299
   20.655    6.4982
   20.670    6.6351
   20.685    6.5613
   20.700    6.3086
   20.715    6.6877
   20.730    6.6245
   20.745    6.5403
   20.760    6.8984
   20.775    6.7509
   20.790    6.5192
   20.805    6.8457
   20.820    7.0248
   20.835    6.4771
   20.850    6.6667
   20.865    7.1090
   20.880    6.7193
   20.895    6.7930
   20.910    6.8141
   20.925    6.8036
   20.940    6.3823
   20.955    6.3507
   20.970    6.6772
   20.985    7.1195
   21.000    6.4771
   21.015    6.2138
   21.030    6.4139
   21.045    6.4982
   21.060    6.2559
   21.075    6.7299
   21.090    6.6667
   21.105    6.5087
   21.120    6.2665
   21.135    6.5613
   21.150    6.5508
   21.165    6.6140
   21.180    7.0353
   21.195    6.7193
   21.210    6.5824
   21.225    6.8773
   21.240    6.7615
   21.255    6.5087
   21.270    6.3296
   21.285    6.8352
   21.300    6.8036
   21.315    6.6245
   21.330    6.7509
   21.345    6.7088
   21.360    6.5719
   21.375    6.5719
   21.390    6.6877
   21.405    6.6561
   21.420    6.4455
   21.435    6.6877
   21.450    6.6877
   21.465    6.7088
   21.480    6.8246
   21.495    6.5613
   21.510    6.7615
   21.525    6.3402
   21.540    6.4034
   21.555    6.7088
   21.570    6.8141
   21.585    6.7930
   21.600    7.0669
   21.615    6.4139
   21.630    6.2349
   21.645    6.5613
   21.660    6.5824
   21.675    6.6561
   21.690    6.7825
   21.705    6.3718
   21.720    6.2559
   21.735    6.5508
   21.750    6.8562
   21.765    6.9405
   21.780    6.8562
   21.795    6.8878
   21.810    7.4460
   21.825    7.4460
   21.840    7.8778
   21.855    8.1938
   21.870    8.4360
   21.885    8.7098
   21.900    8.9837
   21.915    9.4576
   21.930    8.9205
   21.945    9.0258
   21.960    8.2464
   21.975    7.9305
   21.990    7.5197
   22.005    7.1301
   22.020    6.9089
   22.035    6.4771
   22.050    6.5192
   22.065    6.8773
   22.080    6.7930
   22.095    7.0879
   22.110    6.7509
   22.125    6.6245
   22.140    6.4982
   22.155    6.7615
   22.170    6.9616
   22.185    7.1617
   22.200    7.2038
   22.215    7.3407
   22.230    7.6672
   22.245    7.5829
   22.260    7.8884
   22.275    8.5097
   22.290    8.0779
   22.305    8.0463
   22.320    7.5619
   22.335    7.7409
   22.350    7.4776
   22.365    7.1195
   22.380    6.8141
   22.395    6.9194
   22.410    6.8457
   22.425    6.9089
   22.440    7.0985
   22.455    7.1406
   22.470    7.2670
   22.485    7.7304
   22.500    8.3307
   22.515    8.1201
   22.530    8.5624
   22.545    9.5103
   22.560   10.1738
   22.575   10.9637
   22.590   11.6061
   22.605   12.2801
   22.620   12.9331
   22.635   12.3749
   22.650   11.6482
   22.665   11.0058
   22.680    9.9631
   22.695    9.1838
   22.710    8.6256
   22.725    7.5619
   22.740    7.1722
   22.755    7.3091
   22.770    6.8036
   22.785    6.8457
   22.800    7.4882
   22.815    8.2886
   22.830    8.0253
   22.845    8.1306
   22.860    8.3096
   22.875    9.1838
   22.890    9.7314
   22.905   11.5850
   22.920   12.0274
   22.935   13.4808
   22.950   14.3760
   22.965   15.2396
   22.980   14.4076
   22.995   13.4281
   23.010   12.4908
   23.025   11.0585
   23.040   10.0790
   23.055    8.5835
   23.070    7.6988
   23.085    7.2775
   23.100    6.8773
   23.115    6.7509
   23.130    7.1511
   23.145    6.9510
   23.160    6.5824
   23.175    7.1827
   23.190    7.5303
   23.205    6.9405
   23.220    6.9194
   23.235    7.7093
   23.250    7.8357
   23.265    8.2780
   23.280    8.7941
   23.295    8.8573
   23.310    8.6888
   23.325    8.8362
   23.340    8.1938
   23.355    8.5835
   23.370    7.6251
   23.385    7.6672
   23.400    7.2775
   23.415    6.8036
   23.430    6.6351
   23.445    6.5508
   23.460    6.3296
   23.475    6.7299
   23.490    6.7404
   23.505    6.6140
   23.520    6.6035
   23.535    6.6140
   23.550    6.8878
   23.565    7.0248
   23.580    6.9510
   23.595    6.8352
   23.610    6.9300
   23.625    6.9405
   23.640    7.2459
   23.655    7.3512
   23.670    7.1511
   23.685    7.1406
   23.700    6.9510
   23.715    6.6140
   23.730    6.5613
   23.745    6.8773
   23.760    6.6035
   23.775    6.9616
   23.790    6.5929
   23.805    6.8457
   23.820    7.0353
   23.835    7.2986
   23.850    7.2565
   23.865    7.4776
   23.880    7.5619
   23.895    7.6883
   23.910    7.9516
   23.925    8.2570
   23.940    9.1206
   23.955    8.8152
   23.970    9.1732
   23.985    9.0890
   24.000    9.0785
   24.015    9.0890
   24.030    8.2675
   24.045    7.9831
   24.060    7.1933
   24.075    6.8352
   24.090    6.4350
   24.105    6.4876
   24.120    6.3402
   24.135    6.1611
   24.150    6.5192
   24.165    6.5087
   24.180    6.4139
   24.195    6.6561
   24.210    6.4139
   24.225    6.8246
   24.240    6.4666
   24.255    6.6245
   24.270    7.0879
   24.285    6.6351
   24.300    6.8352
   24.315    6.8352
   24.330    6.5719
   24.345    6.6877
   24.360    6.6140
   24.375    6.9300
   24.390    7.1406
   24.405    6.3296
   24.420    6.4244
   24.435    6.5192
   24.450    6.4139
   24.465    6.0348
   24.480    6.5824
   24.495    6.8878
   24.510    6.3296
   24.525    6.4666
   24.540    6.9510
   24.555    6.9826
   24.570    6.5824
   24.585    7.0248
   24.600    7.0879
   24.615    7.2775
   24.630    7.1301
   24.645    7.2880
   24.660    7.3723
   24.675    6.8668
   24.690    6.6772
   24.705    7.0563
   24.720    6.7930
   24.735    6.7615
   24.750    6.8036
   24.765    6.6772
   24.780    6.2770
   24.795    6.4139
   24.810    6.2770
   24.825    6.7404
   24.840    6.7404
   24.855    6.7615
   24.870    6.8246
   24.885    7.1617
   24.900    6.6983
   24.915    6.4982
   24.930    6.8141
   24.945    6.9405
   24.960    7.1090
   24.975    6.7615
   24.990    6.7930
   25.005    6.4350
   25.020    6.3612
   25.035    6.6140
   25.050    6.8036
   25.065    6.9300
   25.080    6.8457
   25.095    6.4876
   25.110    6.2033
   25.125    6.8457
   25.140    6.5824
   25.155    6.7509
   25.170    6.9089
   25.185    6.9194
   25.200    7.1090
   25.215    7.4776
   25.230    7.2880
   25.245    7.3934
   25.260    7.4987
   25.275    7.6567
   25.290    7.3302
   25.305    7.4355
   25.320    6.7825
   25.335    6.8141
   25.350    6.8984
   25.365    6.8141
   25.380    6.1927
   25.395    6.4350
   25.410    6.4771
   25.425    6.4771
   25.440    7.0774
   25.455    6.4876
   25.470    6.6877
   25.485    6.6140
   25.500    6.6456
   25.515    7.0669
   25.530    7.0563
   25.545    7.2775
   25.560    7.6777
   25.575    7.2565
   25.590    7.0142
   25.605    7.3512
   25.620    7.3723
   25.635    7.1406
   25.650    6.8878
   25.665    6.1927
   25.680    6.4139
   25.695    7.0353
   25.710    6.8668
   25.725    6.6772
   25.740    7.1301
   25.755    7.1511
   25.770    7.1301
   25.785    7.6356
   25.800    8.2464
   25.815    8.8784
   25.830    9.3523
   25.845    9.9210
   25.860   10.7846
   25.875   11.0163
   25.890   10.5003
   25.905   10.3318
   25.920    9.9210
   25.935    8.8257
   25.950    8.5097
   25.965    7.9200
   25.980    7.3828
   25.995    7.0037
   26.010    6.5824
   26.025    6.0453
   26.040    6.4666
   26.055    6.0348
   26.070    6.0558
   26.085    6.3928
   26.100    6.4771
   26.115    6.6351
   26.130    6.7193
   26.145    6.6035
   26.160    6.9194
   26.175    6.9721
   26.190    6.6351
   26.205    6.7720
   26.220    6.9300
   26.235    6.5403
   26.250    7.0037
   26.265    6.2138
   26.280    6.2138
   26.295    6.1927
   26.310    6.3612
   26.325    6.5508
   26.340    6.2243
   26.355    6.4034
   26.370    6.4139
   26.385    6.9932
   26.400    6.9721
   26.415    7.0563
   26.430    7.3091
   26.445    8.0147
   26.460    7.8146
   26.475    8.1938
   26.490    7.5724
   26.505    7.6672
   26.520    7.8462
   26.535    7.6883
   26.550    7.1933
   26.565    7.1827
   26.580    6.3507
   26.595    6.3823
   26.610    6.5824
   26.625    6.4560
   26.640    6.5508
   26.655    6.2138
   26.670    6.0348
   26.685    6.4455
   26.700    6.4771
   26.715    6.3507
   26.730    6.3823
   26.745    6.3402
   26.760    6.2138
   26.775    6.2770
   26.790    6.0664
   26.805    6.3296
   26.820    6.2665
   26.835    6.4034
   26.850    6.4982
   26.865    6.1401
   26.880    6.4876
   26.895    6.3296
   26.910    6.2981
   26.925    6.2770
   26.940    6.2875
   26.955    6.5719
   26.970    6.3402
   26.985    6.5719
   27.000    7.1722
   27.015    7.3828
   27.030    8.0358
   27.045    8.0885
   27.060    8.6256
   27.075    8.2570
   27.090    8.6572
   27.105    8.7836
   27.120    8.1622
   27.135    7.9305
   27.150    7.6356
   27.165    7.1933
   27.180    6.8141
   27.195    6.8352
   27.210    6.2665
   27.225    6.1190
   27.240    6.0453
   27.255    6.0032
   27.270    6.1822
   27.285    6.1822
   27.300    6.1506
   27.315    6.3823
   27.330    6.3507
   27.345    6.4244
   27.360    6.3612
   27.375    6.2559
   27.390    6.5403
   27.405    6.2138
   27.420    6.5719
   27.435    6.4455
   27.450    6.4560
   27.465    6.1611
   27.480    6.0664
   27.495    5.9926
   27.510    6.0348
   27.525    6.2454
   27.540    6.6772
   27.555    6.4666
   27.570    6.3718
   27.585    6.6983
   27.600    7.5513
   27.615    7.2459
   27.630    7.1406
   27.645    7.4250
   27.660    7.8568
   27.675    7.6145
   27.690    7.9094
   27.705    7.2038
   27.720    7.1933
   27.735    6.7825
   27.750    6.5508
   27.765    6.6667
   27.780    6.2981
   27.795    6.3086
   27.810    6.1927
   27.825    6.3718
   27.840    6.4876
   27.855    6.8246
   27.870    6.4034
   27.885    6.6456
   27.900    6.9089
   27.915    6.9826
   27.930    7.0879
   27.945    6.9721
   27.960    7.0985
   27.975    6.6456
   27.990    7.1933
   28.005    7.0353
   28.020    6.4350
   28.035    6.5192
   28.050    6.7825
   28.065    6.6140
   28.080    6.4244
   28.095    6.4244
   28.110    6.2875
   28.125    6.7404
   28.140    6.9826
   28.155    7.2354
   28.170    7.3196
   28.185    7.8884
   28.200    7.9516
   28.215    8.2886
   28.230    7.7725
   28.245    8.1517
   28.260    8.1517
   28.275    8.1201
   28.290    7.7514
   28.305    7.4039
   28.320    7.0458
   28.335    6.9721
   28.350    6.6035
   28.365    6.8878
   28.380    6.5298
   28.395    6.6035
   28.410    6.5298
   28.425    6.4244
   28.440    7.2038
   28.455    7.3934
   28.470    7.7514
   28.485    7.7514
   28.500    7.8357
   28.515    7.9094
   28.530    7.9200
   28.545    8.1411
   28.560    7.9726
   28.575    7.2880
   28.590    7.1406
   28.605    7.1195
   28.620    6.6140
   28.635    6.1822
   28.650    6.0664
   28.665    6.1506
   28.680    6.3718
   28.695    6.3718
   28.710    5.9821
   28.725    6.1717
   28.740    6.1506
   28.755    5.9926
   28.770    6.1927
   28.785    6.3823
   28.800    6.5192
   28.815    6.2349
   28.830    6.0769
   28.845    6.1611
   28.860    6.3402
   28.875    6.2770
   28.890    6.2981
   28.905    6.1717
   28.920    6.2981
   28.935    6.2981
   28.950    6.0242
   28.965    5.8557
   28.980    6.0032
   28.995    6.0242
   29.010    6.7299
   29.025    6.4876
   29.040    6.9510
   29.055    6.6245
   29.070    6.7404
   29.085    7.0037
   29.100    6.7825
   29.115    6.8562
   29.130    6.4034
   29.145    6.3507
   29.160    6.4139
   29.175    6.0242
   29.190    6.4034
   29.205    6.2454
   29.220    6.2770
   29.235    6.4139
   29.250    6.9616
   29.265    7.0879
   29.280    6.3507
   29.295    7.0037
   29.310    7.2249
   29.325    7.2143
   29.340    7.4882
   29.355    7.4355
   29.370    7.4987
   29.385    7.4566
   29.400    7.0248
   29.415    7.1301
   29.430    7.0985
   29.445    6.7720
   29.460    6.2559
   29.475    6.2770
   29.490    6.5719
   29.505    6.4982
   29.520    5.8662
   29.535    6.1190
   29.550    5.8452
   29.565    6.1085
   29.580    6.1927
   29.595    6.0137
   29.610    5.8978
   29.625    6.2349
   29.640    5.9926
   29.655    5.7820
   29.670    5.8136
   29.685    6.3191
   29.700    6.4244
   29.715    6.0348
   29.730    5.7609
   29.745    6.2138
   29.760    6.2138
   29.775    6.2770
   29.790    6.3191
   29.805    6.2454
   29.820    6.5508
   29.835    6.8773
   29.850    6.7509
   29.865    6.7299
   29.880    6.9194
   29.895    6.8141
   29.910    6.8036
   29.925    6.7509
   29.940    6.6667
   29.955    6.4455
   29.970    6.5192
   29.985    6.4666
   30.000    6.4244
   30.015    5.9926
   30.030    5.6977
   30.045    5.9716
   30.060    6.0664
   30.075    6.0664
   30.090    6.3823
   30.105    6.5719
   30.120    6.2349
   30.135    6.2138
   30.150    6.4982
   30.165    6.2559
   30.180    6.0769
   30.195    6.0769
   30.210    6.1717
   30.225    6.4876
   30.240    6.0664
   30.255    5.7293
   30.270    5.9084
   30.285    6.3086
   30.300    6.3612
   30.315    6.2349
   30.330    6.1190
   30.345    5.8662
   30.360    5.9610
   30.375    6.4876
   30.390    6.0558
   30.405    6.7088
   30.420    6.4350
   30.435    6.2243
   30.450    6.7615
   30.465    6.2454
   30.480    6.3191
   30.495    5.9716
   30.510    6.1295
   30.525    5.8241
   30.540    6.2454
   30.555    6.2875
   30.570    6.3928
   30.585    6.4350
   30.600    5.9821
   30.615    6.4244
   30.630    6.4034
   30.645    6.8141
   30.660    6.6140
   30.675    6.9300
   30.690    6.8457
   30.705    6.9826
   30.720    6.7193
   30.735    6.4982
   30.750    6.3402
   30.765    6.4560
   30.780    6.5508
   30.795    6.2243
   30.810    6.2033
   30.825    5.7293
   30.840    5.7188
   30.855    5.9610
   30.870    5.9505
   30.885    6.0769
   30.900    6.4666
   30.915    6.2875
   30.930    5.9821
   30.945    6.0453
   30.960    6.0769
   30.975    6.4350
   30.990    6.0769
   31.005    5.8136
   31.020    5.9716
   31.035    6.0769
   31.050    5.8768
   31.065    5.9610
   31.080    5.9189
   31.095    5.5924
   31.110    5.8978
   31.125    6.0769
   31.140    5.5714
   31.155    5.5292
   31.170    5.9189
   31.185    6.0348
   31.200    5.7820
   31.215    6.2454
   31.230    5.7504
   31.245    5.7925
   31.260    5.7609
   31.275    5.9505
   31.290    6.3823
   31.305    6.2875
   31.320    6.0979
   31.335    6.3296
   31.350    6.3823
   31.365    6.2875
   31.380    5.9716
   31.395    6.2033
   31.410    6.8036
   31.425    6.8562
   31.440    6.6245
   31.455    6.7720
   31.470    6.6667
   31.485    6.3718
   31.500    6.3928
   31.515    6.6351
   31.530    6.1927
   31.545    6.0874
   31.560    6.0242
   31.575    6.1190
   31.590    6.0032
   31.605    5.5924
   31.620    5.5924
   31.635    5.9084
   31.650    5.9084
   31.665    6.0769
   31.680    5.9294
   31.695    6.2981
   31.710    6.6140
   31.725    5.9926
   31.740    6.2138
   31.755    6.1717
   31.770    6.1611
   31.785    6.2770
   31.800    6.0348
   31.815    5.6767
   31.830    6.0874
   31.845    6.0769
   31.860    5.9505
   31.875    5.9610
   31.890    6.2243
   31.905    5.9294
   31.920    6.1401
   31.935    5.9400
   31.950    6.3191
   31.965    6.4455
   31.980    6.4139
   31.995    6.0453
   32.010    6.0769
   32.025    5.7609
   32.040    5.7820
   32.055    6.0558
   32.070    5.8768
   32.085    5.7188
   32.100    6.0348
   32.115    5.8557
   32.130    5.5398
   32.145    5.5398
   32.160    5.8557
   32.175    5.8136
   32.190    5.8136
   32.205    5.7399
   32.220    6.0558
   32.235    6.3612
   32.250    6.0137
   32.265    5.8347
   32.280    5.5292
   32.295    5.9610
   32.310    5.9821
   32.325    5.5398
   32.340    5.5503
   32.355    5.8452
   32.370    6.0558
   32.385    5.9189
   32.400    5.9189
   32.415    5.8452
   32.430    5.9610
   32.445    6.2138
   32.460    6.1506
   32.475    5.7083
   32.490    5.8136
   32.505    6.0032
   32.520    5.5819
   32.535    5.3818
   32.550    5.7399
   32.565    5.8978
   32.580    5.7820
   32.595    5.5292
   32.610    5.3818
   32.625    5.4344
   32.640    5.6767
   32.655    5.8031
   32.670    5.6872
   32.685    5.8768
   32.700    6.0453
   32.715    5.6345
   32.730    5.9505
   32.745    5.6661
   32.760    5.8452
   32.775    5.9189
   32.790    5.7609
   32.805    5.8873
   32.820    5.3397
   32.835    6.0348
   32.850    5.9400
   32.865    5.6661
   32.880    5.7083
   32.895    6.0979
   32.910    5.7293
   32.925    6.0453
   32.940    6.4666
   32.955    6.4771
   32.970    6.2349
   32.985    6.2349
   33.000    6.1717
   33.015    6.1401
   33.030    6.1717
   33.045    5.9716
   33.060    5.8031
   33.075    5.7925
   33.090    5.7715
   33.105    5.3397
   33.120    5.2870
   33.135    5.5398
   33.150    5.4028
   33.165    5.3081
   33.180    5.7188
   33.195    5.7399
   33.210    5.7399
   33.225    5.6345
   33.240    5.8662
   33.255    5.5819
   33.270    5.4766
   33.285    5.3712
   33.300    5.6240
   33.315    5.7188
   33.330    5.6345
   33.345    5.5187
   33.360    5.7083
   33.375    5.9400
   33.390    5.6977
   33.405    5.7609
   33.420    5.7188
   33.435    5.6135
   33.450    5.4766
   33.465    5.6451
   33.480    5.7399
   33.495    5.6345
   33.510    5.9400
   33.525    5.5924
   33.540    5.5503
   33.555    5.4766
   33.570    5.6661
   33.585    5.7293
   33.600    5.8031
   33.615    5.6029
   33.630    5.7609
   33.645    6.2770
   33.660    6.1927
   33.675    6.1822
   33.690    6.1822
   33.705    6.1190
   33.720    6.2454
   33.735    6.3718
   33.750    6.1506
   33.765    5.7293
   33.780    6.0242
   33.795    5.8136
   33.810    5.7609
   33.825    5.7820
   33.840    6.1085
   33.855    6.2665
   33.870    6.1506
   33.885    6.5929
   33.900    6.2033
   33.915    6.3191
   33.930    6.1611
   33.945    6.3191
   33.960    6.5403
   33.975    6.4139
   33.990    6.1506
   34.005    6.5508
   34.020    6.2875
   34.035    6.3507
   34.050    6.0348
   34.065    5.7609
   34.080    5.8452
   34.095    5.8873
   34.110    5.5819
   34.125    5.6872
   34.140    6.0032
   34.155    5.9716
   34.170    6.1611
   34.185    6.0348
   34.200    6.1506
   34.215    5.5819
   34.230    5.8452
   34.245    5.7083
   34.260    5.8662
   34.275    5.7820
   34.290    6.0664
   34.305    5.7820
   34.320    5.9400
   34.335    5.7715
   34.350    5.8662
   34.365    5.8768
   34.380    5.3607
   34.395    5.6135
   34.410    5.2449
   34.425    6.0558
   34.440    6.0242
   34.455    6.1085
   34.470    5.8662
   34.485    5.4871
   34.500    5.4871
   34.515    5.6977
   34.530    5.3397
   34.545    5.2554
   34.560    5.6029
   34.575    5.4028
   34.590    5.7504
   34.605    5.5398
   34.620    5.5608
   34.635    5.6977
   34.650    5.2659
   34.665    5.5924
   34.680    5.3502
   34.695    5.2659
   34.710    5.2765
   34.725    5.7609
   34.740    5.9084
   34.755    5.6767
   34.770    5.9821
   34.785    6.0137
   34.800    6.0032
   34.815    5.9716
   34.830    5.7293
   34.845    5.4660
   34.860    5.9505
   34.875    6.2454
   34.890    5.8768
   34.905    5.9716
   34.920    6.0558
   34.935    5.7399
   34.950    5.7609
   34.965    5.7715
   34.980    5.9505
   34.995    5.8662
   35.010    5.9294
   35.025    5.4450
   35.040    5.3502
   35.055    5.3186
   35.070    5.8873
   35.085    5.6135
   35.100    5.4134
   35.115    5.3397
   35.130    5.3607
   35.145    5.5924
   35.160    5.3923
   35.175    5.8031
   35.190    5.3186
   35.205    5.3291
   35.220    5.3502
   35.235    5.4660
   35.250    5.2238
   35.265    5.3923
   35.280    5.5714
   35.295    5.4450
   35.310    5.4134
   35.325    5.4660
   35.340    5.1817
   35.355    5.4660
   35.370    5.7715
   35.385    5.4766
   35.400    5.4871
   35.415    5.6661
   35.430    5.4239
   35.445    5.2659
   35.460    5.3502
   35.475    5.1711
   35.490    5.1080
   35.505    5.4028
   35.520    5.1080
   35.535    5.2870
   35.550    5.3502
   35.565    5.1711
   35.580    5.4766
   35.595    5.4871
   35.610    5.2870
   35.625    5.6661
   35.640    5.7399
   35.655    5.1711
   35.670    5.6029
   35.685    5.7504
   35.700    5.9400
   35.715    5.4239
   35.730    5.5292
   35.745    5.3923
   35.760    5.7715
   35.775    6.0137
   35.790    5.8136
   35.805    6.2138
   35.820    5.7293
   35.835    5.2554
   35.850    6.1190
   35.865    5.6872
   35.880    5.6240
   35.895    5.8978
   35.910    5.4766
   35.925    5.6661
   35.940    5.4134
   35.955    5.7293
   35.970    5.5608
   35.985    5.9084
   36.000    6.1611
   36.015    5.8136
   36.030    5.7504
   36.045    5.9821
   36.060    6.1295
   36.075    5.9400
   36.090    5.5187
   36.105    6.0137
   36.120    5.3818
   36.135    5.2238
   36.150    5.5608
   36.165    5.5924
   36.180    5.6661
   36.195    5.1922
   36.210    5.4450
   36.225    5.4344
   36.240    5.7293
   36.255    5.8452
   36.270    5.8136
   36.285    5.9294
   36.300    5.5082
   36.315    5.2659
   36.330    5.2659
   36.345    5.3186
   36.360    5.6135
   36.375    5.5082
   36.390    5.6451
   36.405    5.4134
   36.420    5.3186
   36.435    5.3186
   36.450    5.5082
   36.465    5.3081
   36.480    5.2238
   36.495    5.5082
   36.510    5.4344
   36.525    5.2975
   36.540    5.2449
   36.555    5.5398
   36.570    5.6451
   36.585    5.6345
   36.600    5.4555
   36.615    5.7293
   36.630    5.6556
   36.645    5.9400
   36.660    5.7504
   36.675    5.8136
   36.690    6.1401
   36.705    6.0769
   36.720    5.8452
   36.735    6.0979
   36.750    5.6240
   36.765    5.5503
   36.780    5.7293
   36.795    5.7188
   36.810    5.7188
   36.825    4.8763
   36.840    5.3081
   36.855    5.6767
   36.870    5.4976
   36.885    5.3712
   36.900    5.2870
   36.915    5.4871
   36.930    5.4134
   36.945    5.2870
   36.960    5.5292
   36.975    5.5924
   36.990    5.3081
   37.005    5.3081
   37.020    5.1395
   37.035    5.4976
   37.050    5.4344
   37.065    5.8241
   37.080    5.9505
   37.095    5.6556
   37.110    5.8662
   37.125    6.1611
   37.140    6.3718
   37.155    6.2770
   37.170    6.1190
   37.185    6.3612
   37.200    6.1295
   37.215    5.6977
   37.230    5.9821
   37.245    5.9716
   37.260    5.8031
   37.275    5.9189
   37.290    5.5398
   37.305    5.6556
   37.320    5.2238
   37.335    5.3186
   37.350    5.3818
   37.365    5.2238
   37.380    5.3607
   37.395    5.1395
   37.410    4.9605
   37.425    5.1395
   37.440    5.5187
   37.455    5.3502
   37.470    5.0448
   37.485    5.0132
   37.500    5.4660
   37.515    5.6345
   37.530    5.4344
   37.545    5.4344
   37.560    5.3818
   37.575    5.3081
   37.590    5.5819
   37.605    5.7293
   37.620    5.4766
   37.635    5.3607
   37.650    5.6135
   37.665    5.3397
   37.680    5.8662
   37.695    5.5819
   37.710    5.5503
   37.725    5.3397
   37.740    5.4344
   37.755    5.4028
   37.770    5.3291
   37.785    5.2133
   37.800    5.4028
   37.815    5.5503
   37.830    5.3923
   37.845    5.1711
   37.860    5.6872
   37.875    5.3081
   37.890    5.7820
   37.905    5.7504
   37.920    5.6345
   37.935    5.4239
   37.950    5.6240
   37.965    5.9084
   37.980    5.2870
   37.995    5.4344
   38.010    5.8241
   38.025    5.3923
   38.040    5.8662
   38.055    5.5292
   38.070    5.4028
   38.085    5.3186
   38.100    5.2765
   38.115    5.9084
   38.130    5.4871
   38.145    5.3397
   38.160    4.9289
   38.175    5.3397
   38.190    5.1501
   38.205    5.4450
   38.220    5.1395
   38.235    5.4450
   38.250    5.4871
   38.265    5.2659
   38.280    5.2027
   38.295    5.3186
   38.310    5.4028
   38.325    5.5608
   38.340    5.1501
   38.355    5.2975
   38.370    5.6240
   38.385    5.2133
   38.400    5.4344
   38.415    5.4344
   38.430    5.0448
   38.445    4.7709
   38.460    5.2343
   38.475    5.9294
   38.490    5.5503
   38.505    5.7399
   38.520    5.4766
   38.535    5.4660
   38.550    5.4766
   38.565    5.2554
   38.580    5.1080
   38.595    4.9605
   38.610    5.2133
   38.625    4.9921
   38.640    4.9289
   38.655    5.2975
   38.670    5.3397
   38.685    5.0132
   38.700    5.0553
   38.715    4.8763
   38.730    5.1185
   38.745    5.1501
   38.760    5.0553
   38.775    5.2975
   38.790    5.2659
   38.805    5.3397
   38.820    5.1711
   38.835    5.4976
   38.850    5.3291
   38.865    5.3291
   38.880    5.4450
   38.895    5.1185
   38.910    5.0553
   38.925    5.1185
   38.940    5.2659
   38.955    5.3923
   38.970    5.2133
   38.985    5.4239
   39.000    5.6451
   39.015    5.2343
   39.030    5.5292
   39.045    5.0342
   39.060    5.2238
   39.075    5.3081
   39.090    5.2238
   39.105    4.8447
   39.120    4.8341
   39.135    5.0342
   39.150    5.4660
   39.165    5.5924
   39.180    5.0658
   39.195    5.2027
   39.210    5.2765
   39.225    5.1185
   39.240    5.3397
   39.255    5.3397
   39.270    5.5714
   39.285    5.6029
   39.300    5.5819
   39.315    5.5608
   39.330    5.7504
   39.345    5.6767
   39.360    5.6029
   39.375    5.4344
   39.390    5.5292
   39.405    5.6767
   39.420    5.5608
   39.435    5.0764
   39.450    5.3607
   39.465    5.4871
   39.480    5.0553
   39.495    5.4134
   39.510    5.3923
   39.525    5.0237
   39.540    5.4028
   39.555    5.6029
   39.570    5.6345
   39.585    5.3712
   39.600    4.9184
   39.615    5.1185
   39.630    5.4450
   39.645    5.2554
   39.660    5.4239
   39.675    5.5398
   39.690    5.6029
   39.705    5.5608
   39.720    5.5082
   39.735    5.5187
   39.750    5.5187
   39.765    5.3607
   39.780    5.5292
   39.795    5.2765
   39.810    5.8136
   39.825    5.7504
   39.840    5.2027
   39.855    5.5819
   39.870    5.4555
   39.885    5.2765
   39.900    5.3291
   39.915    5.6767
   39.930    5.7715
   39.945    5.6029
   39.960    5.3712
   39.975    5.5187
   39.990    5.2975
