    1.500    7.2775
    1.515    7.2565
    1.530    7.2986
    1.545    7.5303
    1.560    7.5935
    1.575    7.6988
    1.590    7.2670
    1.605    7.2038
    1.620    7.4776
    1.635    7.3091
    1.650    6.9405
    1.665    6.5613
    1.680    6.1506
    1.695    6.7509
    1.710    6.6140
    1.725    6.6140
    1.740    6.2770
    1.755    6.1717
    1.770    6.4771
    1.785    6.1506
    1.800    6.4244
    1.815    6.0558
    1.830    6.1085
    1.845    5.9926
    1.860    5.8452
    1.875    5.2659
    1.890    5.6240
    1.905    5.7399
    1.920    5.6240
    1.935    5.1606
    1.950    5.4660
    1.965    5.3291
    1.980    5.4871
    1.995    5.5714
    2.010    5.2765
    2.025    5.3291
    2.040    4.9500
    2.055    4.7077
    2.070    5.1711
    2.085    4.8657
    2.100    4.8973
    2.115    4.9605
    2.130    4.9605
    2.145    4.8552
    2.160    4.8868
    2.175    4.7183
    2.190    4.7709
    2.205    4.7393
    2.220    4.6235
    2.235    4.9184
    2.250    4.2654
    2.265    4.5603
    2.280    4.6235
    2.295    4.7815
    2.310    4.5708
    2.325    4.3286
    2.340    4.4550
    2.355    4.3391
    2.370    4.2654
    2.385    4.5287
    2.400    4.2654
    2.415    4.0969
    2.430    4.3497
    2.445    4.1496
    2.460    4.0021
    2.475    4.0864
    2.490    4.1706
    2.505    4.0758
    2.520    4.0337
    2.535    3.9600
    2.550    3.9810
    2.565    4.2549
    2.580    3.7388
    2.595    3.9494
    2.610    4.1706
    2.625    3.9705
    2.640    3.7493
    2.655    4.0021
    2.670    3.7915
    2.685    3.8652
    2.700    4.2759
    2.715    4.1180
    2.730    3.7704
    2.745    3.7388
    2.760    3.8757
    2.775    3.6019
    2.790    3.6440
    2.805    3.5387
    2.820    3.7704
    2.835    3.7809
    2.850    3.6019
    2.865    3.3913
    2.880    3.5914
    2.895    3.3175
    2.910    3.4439
    2.925    3.4439
    2.940    3.4860
    2.955    3.3386
    2.970    3.5176
    2.985    3.2543
    3.000    3.3913
    3.015    3.3281
    3.030    3.3070
    3.045    3.6230
    3.060    3.4123
    3.075    3.5387
    3.090    3.6440
    3.105    3.7177
    3.120    3.4860
    3.135    3.4966
    3.150    3.2543
    3.165    3.3070
    3.180    3.4755
    3.195    3.4755
    3.210    3.3491
    3.225    3.0964
    3.240    3.0648
    3.255    3.3175
    3.270    3.3175
    3.285    2.8857
    3.300    3.1280
    3.315    3.1912
    3.330    3.1385
    3.345    3.0753
    3.360    3.1174
    3.375    2.9279
    3.390    3.3070
    3.405    2.9489
    3.420    2.8963
    3.435    3.1490
    3.450    3.2649
    3.465    3.0016
    3.480    2.8120
    3.495    2.7067
    3.510    2.8647
    3.525    2.8647
    3.540    2.9595
    3.555    2.8331
    3.570    3.1280
    3.585    3.0542
    3.600    2.9805
    3.615    2.8647
    3.630    2.8857
    3.645    2.8647
    3.660    2.6962
    3.675    2.9910
    3.690    2.7909
    3.705    3.0858
    3.720    2.8541
    3.735    2.9595
    3.750    2.8752
    3.765    2.9068
    3.780    2.9910
    3.795    2.8752
    3.810    2.7172
    3.825    2.8015
    3.840    2.7909
    3.855    2.7488
    3.870    2.9595
    3.885    2.9068
    3.900    2.8752
    3.915    2.9068
    3.930    2.5803
    3.945    2.6540
    3.960    2.8331
    3.975    2.8436
    3.990    2.7488
    4.005    2.5487
    4.020    2.8225
    4.035    2.6962
    4.050    2.8331
    4.065    2.9700
    4.080    2.8647
    4.095    2.6856
    4.110    2.8436
    4.125    2.6330
    4.140    2.7804
    4.155    2.5487
    4.170    2.6856
    4.185    2.4645
    4.200    2.6119
    4.215    2.6224
    4.230    2.5803
    4.245    2.7804
    4.260    2.9805
    4.275    3.0332
    4.290    2.7488
    4.305    2.6435
    4.320    2.7804
    4.335    2.4118
    4.350    2.5487
    4.365    2.7172
    4.380    2.6119
    4.395    2.7909
    4.410    2.5382
    4.425    2.4645
    4.440    2.4961
    4.455    2.7699
    4.470    2.7383
    4.485    2.7383
    4.500    2.7172
    4.515    2.7593
    4.530    2.7278
    4.545    2.6435
    4.560    2.6856
    4.575    2.6435
    4.590    2.9068
    4.605    2.6962
    4.620    2.7804
    4.635    2.8963
    4.650    2.6962
    4.665    2.6119
    4.680    2.8752
    4.695    2.9700
    4.710    2.9910
    4.725    3.0121
    4.740    2.9068
    4.755    2.5382
    4.770    2.8331
    4.785    3.0121
    4.800    2.6962
    4.815    2.6646
    4.830    2.9068
    4.845    2.6962
    4.860    2.6435
    4.875    2.7278
    4.890    2.7383
    4.905    2.6224
    4.920    2.2959
    4.935    2.4855
    4.950    2.8120
    4.965    2.6646
    4.980    2.6540
    4.995    2.4961
    5.010    2.5698
    5.025    2.5276
    5.040    2.6014
    5.055    2.8647
    5.070    2.6962
    5.085    2.5487
    5.100    2.7172
    5.115    2.6330
    5.130    2.5171
    5.145    2.4961
    5.160    2.4013
    5.175    2.6330
    5.190    2.5066
    5.205    2.7172
    5.220    2.5276
    5.235    2.4750
    5.250    2.4434
    5.265    2.4750
    5.280    2.5066
    5.295    2.4539
    5.310    2.6119
    5.325    2.5276
    5.340    2.2959
    5.355    2.5908
    5.370    2.5276
    5.385    2.5171
    5.400    2.2643
    5.415    2.3907
    5.430    2.2433
    5.445    2.3170
    5.460    2.2643
    5.475    2.4329
    5.490    2.7593
    5.505    2.4855
    5.520    2.5171
    5.535    2.6224
    5.550    2.7488
    5.565    2.7172
    5.580    2.7383
    5.595    2.6014
    5.610    2.7909
    5.625    2.6962
    5.640    2.6856
    5.655    2.7699
    5.670    2.6646
    5.685    2.8015
    5.700    2.8120
    5.715    2.9384
    5.730    2.6962
    5.745    2.7383
    5.760    2.8436
    5.775    2.9279
    5.790    3.0121
    5.805    2.7383
    5.820    2.8120
    5.835    2.7593
    5.850    2.8857
    5.865    2.6119
    5.880    2.8331
    5.895    3.0016
    5.910    2.7909
    5.925    2.8331
    5.940    2.7278
    5.955    2.9700
    5.970    2.7804
    5.985    2.8436
    6.000    3.0332
    6.015    3.1912
    6.030    3.0332
    6.045    2.8436
    6.060    2.8331
    6.075    3.0542
    6.090    3.2649
    6.105    3.1596
    6.120    3.1912
    6.135    3.0858
    6.150    2.9489
    6.165    2.9173
    6.180    3.2754
    6.195    3.2859
    6.210    3.1385
    6.225    3.3491
    6.240    3.4439
    6.255    3.6230
    6.270    3.5808
    6.285    3.5387
    6.300    3.8968
    6.315    3.8968
    6.330    3.9284
    6.345    3.9389
    6.360    4.0126
    6.375    4.4866
    6.390    4.6867
    6.405    4.7709
    6.420    4.8341
    6.435    5.0132
    6.450    4.7077
    6.465    5.1395
    6.480    5.3291
    6.495    5.2449
    6.510    5.2449
    6.525    5.7925
    6.540    5.7399
    6.555    5.6767
    6.570    5.8241
    6.585    6.2875
    6.600    5.7820
    6.615    5.9821
    6.630    6.1822
    6.645    5.8347
    6.660    6.2770
    6.675    6.0664
    6.690    5.9821
    6.705    6.0664
    6.720    5.7925
    6.735    5.7925
    6.750    5.4660
    6.765    5.6556
    6.780    5.7820
    6.795    5.5292
    6.810    5.8241
    6.825    5.5398
    6.840    5.5398
    6.855    5.1290
    6.870    5.2554
    6.885    5.0132
    6.900    4.9078
    6.915    5.0026
    6.930    4.7709
    6.945    5.0448
    6.960    5.2027
    6.975    4.9816
    6.990    4.6445
    7.005    4.8447
    7.020    5.1606
    7.035    4.7920
    7.050    4.9289
    7.065    4.8131
    7.080    4.8131
    7.095    4.4971
    7.110    4.3918
    7.125    4.5814
    7.140    4.3602
    7.155    4.3286
    7.170    4.4550
    7.185    4.4023
    7.200    4.5287
    7.215    4.3286
    7.230    4.0548
    7.245    4.0337
    7.260    4.0864
    7.275    4.2233
    7.290    4.0337
    7.305    3.8547
    7.320    3.9284
    7.335    4.3813
    7.350    4.5182
    7.365    3.8757
    7.380    3.8757
    7.395    3.7915
    7.410    4.0337
    7.425    3.9600
    7.440    3.7493
    7.455    3.7704
    7.470    3.4334
    7.485    3.7704
    7.500    3.9073
    7.515    4.0126
    7.530    4.0442
    7.545    3.8652
    7.560    3.7599
    7.575    4.1601
    7.590    3.9810
    7.605    4.1180
    7.620    3.8441
    7.635    4.1074
    7.650    3.9916
    7.665    3.7809
    7.680    3.7915
    7.695    3.8125
    7.710    3.7388
    7.725    3.6124
    7.740    3.6546
    7.755    3.6862
    7.770    3.6019
    7.785    3.1596
    7.800    3.2859
    7.815    3.2543
    7.830    3.1806
    7.845    2.8857
    7.860    2.9805
    7.875    3.1174
    7.890    3.4018
    7.905    2.9595
    7.920    2.8963
    7.935    2.7804
    7.950    2.7804
    7.965    2.7172
    7.980    2.6014
    7.995    2.5698
    8.010    2.7909
    8.025    2.9700
    8.040    2.6856
    8.055    2.6962
    8.070    2.8752
    8.085    3.2017
    8.100    2.9805
    8.115    2.7488
    8.130    3.0016
    8.145    2.9910
    8.160    3.2543
    8.175    3.2649
    8.190    3.4860
    8.205    3.0858
    8.220    3.3913
    8.235    3.7599
    8.250    3.4123
    8.265    3.7599
    8.280    3.8652
    8.295    3.8757
    8.310    3.7493
    8.325    3.9073
    8.340    4.2970
    8.355    4.3391
    8.370    3.9916
    8.385    4.1601
    8.400    4.1390
    8.415    4.2233
    8.430    4.0969
    8.445    4.3813
    8.460    4.0126
    8.475    3.9179
    8.490    3.8863
    8.505    3.7493
    8.520    3.7493
    8.535    3.7388
    8.550    3.5387
    8.565    3.6651
    8.580    3.6756
    8.595    3.2227
    8.610    3.3491
    8.625    3.3175
    8.640    3.0858
    8.655    3.1069
    8.670    3.1806
    8.685    3.2017
    8.700    3.0964
    8.715    3.1174
    8.730    2.9489
    8.745    2.6224
    8.760    2.9489
    8.775    2.9489
    8.790    3.0648
    8.805    2.8331
    8.820    2.6751
    8.835    3.0648
    8.850    2.7699
    8.865    2.7278
    8.880    2.8647
    8.895    2.8015
    8.910    2.7593
    8.925    2.5066
    8.940    2.6751
    8.955    2.5276
    8.970    2.5698
    8.985    2.4961
    9.000    2.5698
    9.015    2.5803
    9.030    2.4223
    9.045    2.5276
    9.060    2.5698
    9.075    2.3802
    9.090    2.3907
    9.105    2.5803
    9.120    2.4750
    9.135    2.3907
    9.150    2.2854
    9.165    2.4329
    9.180    2.3275
    9.195    2.3170
    9.210    2.0642
    9.225    2.0432
    9.240    2.4223
    9.255    2.1380
    9.270    2.1064
    9.285    2.1696
    9.300    2.2538
    9.315    2.2012
    9.330    2.4750
    9.345    2.0537
    9.360    2.2222
    9.375    2.1906
    9.390    2.1380
    9.405    1.9273
    9.420    2.0116
    9.435    2.2433
    9.450    2.0221
    9.465    2.1064
    9.480    2.2328
    9.495    2.1906
    9.510    2.3697
    9.525    2.2538
    9.540    2.2328
    9.555    2.1169
    9.570    2.2854
    9.585    2.3802
    9.600    2.0748
    9.615    1.8641
    9.630    2.0642
    9.645    2.1485
    9.660    2.2012
    9.675    2.2012
    9.690    2.1169
    9.705    1.9063
    9.720    2.0958
    9.735    2.0853
    9.750    2.2012
    9.765    2.1380
    9.780    1.9589
    9.795    2.1380
    9.810    2.0116
    9.825    2.2643
    9.840    2.2538
    9.855    2.2749
    9.870    2.1064
    9.885    2.1801
    9.900    2.2222
    9.915    2.1590
    9.930    2.0958
    9.945    2.1590
    9.960    2.1485
    9.975    2.2749
    9.990    2.2012
   10.005    2.1590
   10.020    2.4013
   10.035    2.2854
   10.050    2.1485
   10.065    2.1906
   10.080    2.3170
   10.095    2.2854
   10.110    2.2012
   10.125    2.0748
   10.140    2.1590
   10.155    2.1696
   10.170    2.0221
   10.185    2.2012
   10.200    2.1485
   10.215    2.1485
   10.230    2.1274
   10.245    2.0958
   10.260    2.0432
   10.275    2.3697
   10.290    2.4329
   10.305    2.1801
   10.320    2.1696
   10.335    2.3907
   10.350    2.1906
   10.365    2.2749
   10.380    2.1906
   10.395    2.3802
   10.410    2.7172
   10.425    2.6751
   10.440    2.4961
   10.455    2.4961
   10.470    2.7172
   10.485    2.6330
   10.500    2.6646
   10.515    2.6646
   10.530    2.5908
   10.545    2.4645
   10.560    2.5066
   10.575    2.3065
   10.590    2.5382
   10.605    2.3802
   10.620    2.1696
   10.635    2.6014
   10.650    2.5592
   10.665    2.3907
   10.680    2.5908
   10.695    2.5171
   10.710    2.6330
   10.725    2.2854
   10.740    2.4855
   10.755    2.3907
   10.770    2.6224
   10.785    2.7488
   10.800    2.6856
   10.815    2.5171
   10.830    2.7067
   10.845    2.5803
   10.860    2.3486
   10.875    2.7172
   10.890    2.7488
   10.905    2.4855
   10.920    2.3591
   10.935    2.4645
   10.950    2.6330
   10.965    2.5592
   10.980    2.4223
   10.995    2.4013
   11.010    2.1906
   11.025    2.1380
   11.040    2.2433
   11.055    2.2959
   11.070    2.4118
   11.085    2.2012
   11.100    2.2749
   11.115    2.2222
   11.130    2.0853
   11.145    2.0537
   11.160    1.9695
   11.175    1.9168
   11.190    2.1801
   11.205    2.1590
   11.220    1.8641
   11.235    2.1801
   11.250    2.3065
   11.265    1.9589
   11.280    2.0537
   11.295    2.2222
   11.310    1.9695
   11.325    2.0537
   11.340    2.0537
   11.355    2.0432
   11.370    2.1801
   11.385    2.3065
   11.400    2.2854
   11.415    2.1274
   11.430    2.0642
   11.445    2.1801
   11.460    2.2749
   11.475    2.2538
   11.490    2.2643
   11.505    2.1169
   11.520    2.3170
   11.535    2.1169
   11.550    2.5276
   11.565    2.1801
   11.580    2.1590
   11.595    1.9273
   11.610    2.1696
   11.625    2.2538
   11.640    2.0326
   11.655    2.0432
   11.670    2.0011
   11.685    2.1590
   11.700    2.2538
   11.715    2.2328
   11.730    2.1485
   11.745    2.0116
   11.760    2.1485
   11.775    2.1801
   11.790    2.1485
   11.805    2.3697
   11.820    2.3591
   11.835    2.2959
   11.850    2.1380
   11.865    2.0958
   11.880    2.0326
   11.895    2.0537
   11.910    2.1064
   11.925    2.0221
   11.940    2.0537
   11.955    2.0642
   11.970    2.0011
   11.985    1.9063
   12.000    2.0326
   12.015    2.0011
   12.030    2.1590
   12.045    2.0853
   12.060    2.2538
   12.075    2.2854
   12.090    2.0432
   12.105    2.1906
   12.120    2.2959
   12.135    1.9589
   12.150    2.2117
   12.165    2.0326
   12.180    1.7483
   12.195    2.1801
   12.210    2.1485
   12.225    1.9800
   12.240    2.1801
   12.255    2.0537
   12.270    2.1380
   12.285    2.0853
   12.300    2.0221
   12.315    1.9905
   12.330    2.1485
   12.345    2.3170
   12.360    2.1380
   12.375    2.1274
   12.390    2.0958
   12.405    2.1906
   12.420    2.1696
   12.435    1.8852
   12.450    2.0011
   12.465    2.1590
   12.480    2.2538
   12.495    1.9589
   12.510    1.9273
   12.525    1.9905
   12.540    2.0642
   12.555    2.2433
   12.570    2.3486
   12.585    2.0116
   12.600    2.1485
   12.615    2.0537
   12.630    2.1380
   12.645    2.0748
   12.660    2.3170
   12.675    2.2433
   12.690    2.3697
   12.705    2.2012
   12.720    2.0432
   12.735    1.9379
   12.750    1.8641
   12.765    1.9800
   12.780    2.0958
   12.795    2.2117
   12.810    2.0642
   12.825    2.0748
   12.840    2.0958
   12.855    1.9484
   12.870    1.9905
   12.885    2.2012
   12.900    2.1485
   12.915    2.0432
   12.930    2.0642
   12.945    1.9379
   12.960    1.9905
   12.975    1.9379
   12.990    2.2538
   13.005    2.1696
   13.020    2.1696
   13.035    1.9905
   13.050    1.9168
   13.065    1.9379
   13.080    1.9063
   13.095    2.2643
   13.110    2.1801
   13.125    2.1064
   13.140    2.1169
   13.155    2.1696
   13.170    2.1485
   13.185    2.2643
   13.200    2.1274
   13.215    2.1274
   13.230    1.9063
   13.245    1.9063
   13.260    1.7799
   13.275    2.0642
   13.290    2.2538
   13.305    1.9589
   13.320    1.9273
   13.335    2.0537
   13.350    2.1590
   13.365    1.8325
   13.380    1.9695
   13.395    1.8747
   13.410    1.8852
   13.425    2.0642
   13.440    1.9168
   13.455    1.8009
   13.470    2.1485
   13.485    1.9695
   13.500    1.8641
   13.515    1.9273
   13.530    2.0537
   13.545    2.0011
   13.560    2.0537
   13.575    2.1590
   13.590    1.9695
   13.605    2.0432
   13.620    2.0432
   13.635    1.8957
   13.650    2.1064
   13.665    2.1696
   13.680    2.1064
   13.695    2.0642
   13.710    1.7904
   13.725    2.1380
   13.740    2.0221
   13.755    2.0853
   13.770    2.0432
   13.785    1.9484
   13.800    1.9905
   13.815    1.6851
   13.830    1.7799
   13.845    1.9800
   13.860    1.9589
   13.875    2.0642
   13.890    1.9379
   13.905    1.7272
   13.920    1.8009
   13.935    1.9695
   13.950    1.9168
   13.965    1.9695
   13.980    2.1801
   13.995    2.1485
   14.010    2.0326
   14.025    1.9379
   14.040    2.0011
   14.055    1.8641
   14.070    1.9063
   14.085    1.9695
   14.100    1.8431
   14.115    2.0221
   14.130    2.1274
   14.145    2.1274
   14.160    1.9695
   14.175    1.9379
   14.190    2.1169
   14.205    2.1801
   14.220    2.0432
   14.235    1.9800
   14.250    2.1485
   14.265    1.9905
   14.280    2.0642
   14.295    2.1274
   14.310    2.2012
   14.325    2.1380
   14.340    2.1590
   14.355    2.1906
   14.370    2.1169
   14.385    2.1801
   14.400    2.2328
   14.415    2.2433
   14.430    2.0116
   14.445    2.2538
   14.460    2.3381
   14.475    2.4645
   14.490    2.3907
   14.505    2.1906
   14.520    2.0642
   14.535    2.3170
   14.550    2.3697
   14.565    2.2012
   14.580    2.4118
   14.595    2.5698
   14.610    2.2749
   14.625    2.0958
   14.640    2.1801
   14.655    2.4223
   14.670    2.2433
   14.685    2.4750
   14.700    2.6014
   14.715    2.4750
   14.730    2.5803
   14.745    2.5382
   14.760    2.3275
   14.775    2.4223
   14.790    2.3486
   14.805    2.5066
   14.820    2.5908
   14.835    2.1590
   14.850    2.4118
   14.865    2.5382
   14.880    2.2959
   14.895    2.5487
   14.910    2.2959
   14.925    2.4434
   14.940    2.4223
   14.955    2.2854
   14.970    2.5803
   14.985    2.2749
   15.000    2.2854
   15.015    2.3170
   15.030    2.4013
   15.045    2.5487
   15.060    2.1169
   15.075    2.1590
   15.090    2.2222
   15.105    2.5276
   15.120    2.3802
   15.135    2.6540
   15.150    2.6962
   15.165    2.3907
   15.180    2.4329
   15.195    2.5171
   15.210    2.3907
   15.225    2.5382
   15.240    2.3381
   15.255    2.6540
   15.270    2.5592
   15.285    2.5066
   15.300    2.5592
   15.315    2.4855
   15.330    2.0853
   15.345    2.4223
   15.360    2.2854
   15.375    2.4645
   15.390    2.6962
   15.405    2.4855
   15.420    2.4223
   15.435    2.5382
   15.450    2.4645
   15.465    2.2117
   15.480    2.1064
   15.495    2.2328
   15.510    2.3802
   15.525    2.3907
   15.540    2.4539
   15.555    2.1801
   15.570    2.2117
   15.585    2.0642
   15.600    2.1169
   15.615    2.0221
   15.630    2.3697
   15.645    2.1590
   15.660    2.2854
   15.675    2.0748
   15.690    2.2222
   15.705    2.1485
   15.720    2.3381
   15.735    2.2854
   15.750    2.0958
   15.765    2.0642
   15.780    2.1169
   15.795    2.1064
   15.810    2.2328
   15.825    2.0432
   15.840    2.2117
   15.855    2.0642
   15.870    2.1485
   15.885    2.2222
   15.900    2.0958
   15.915    1.9379
   15.930    2.1274
   15.945    2.1064
   15.960    1.9800
   15.975    2.2433
   15.990    2.2328
   16.005    2.2222
   16.020    2.2433
   16.035    2.2538
   16.050    2.3065
   16.065    2.3591
   16.080    2.2222
   16.095    2.3170
   16.110    2.1169
   16.125    2.1380
   16.140    2.1696
   16.155    2.3802
   16.170    2.0642
   16.185    2.1696
   16.200    2.2959
   16.215    2.1064
   16.230    2.4118
   16.245    2.3170
   16.260    2.3275
   16.275    2.1590
   16.290    2.1380
   16.305    2.3591
   16.320    2.2959
   16.335    2.2854
   16.350    2.3591
   16.365    2.4118
   16.380    2.4223
   16.395    2.1380
   16.410    2.2222
   16.425    2.5382
   16.440    2.3275
   16.455    2.4961
   16.470    2.2959
   16.485    2.5487
   16.500    2.3907
   16.515    2.6540
   16.530    2.5698
   16.545    2.2538
   16.560    2.3381
   16.575    2.3275
   16.590    2.3275
   16.605    2.5066
   16.620    2.5698
   16.635    2.6224
   16.650    2.7172
   16.665    2.3907
   16.680    2.4645
   16.695    2.3486
   16.710    2.1169
   16.725    2.3907
   16.740    2.4223
   16.755    2.4434
   16.770    2.3697
   16.785    2.1169
   16.800    2.2959
   16.815    2.6540
   16.830    2.1906
   16.845    2.2959
   16.860    2.3486
   16.875    2.4013
   16.890    2.0748
   16.905    2.2117
   16.920    2.4855
   16.935    2.2433
   16.950    2.2749
   16.965    2.2749
   16.980    2.3381
   16.995    2.4118
   17.010    2.4750
   17.025    2.3907
   17.040    2.3907
   17.055    2.2012
   17.070    2.2643
   17.085    2.3591
   17.100    2.2222
   17.115    2.1906
   17.130    2.2538
   17.145    2.2222
   17.160    2.4329
   17.175    2.2854
   17.190    2.5487
   17.205    2.3802
   17.220    2.4645
   17.235    2.2538
   17.250    2.3907
   17.265    2.4750
   17.280    2.2328
   17.295    2.2749
   17.310    2.3170
   17.325    2.4329
   17.340    2.4118
   17.355    2.1906
   17.370    2.3697
   17.385    2.3381
   17.400    2.3486
   17.415    2.4645
   17.430    2.3907
   17.445    2.4961
   17.460    2.2222
   17.475    2.5171
   17.490    2.3802
   17.505    2.1696
   17.520    2.3591
   17.535    2.3697
   17.550    2.2328
   17.565    2.1169
   17.580    2.1485
   17.595    2.2959
   17.610    2.2433
   17.625    2.0853
   17.640    2.2117
   17.655    2.2117
   17.670    2.2222
   17.685    2.2854
   17.700    2.2328
   17.715    2.2538
   17.730    2.4118
   17.745    2.1274
   17.760    2.1274
   17.775    2.1801
   17.790    2.2222
   17.805    2.0748
   17.820    2.0116
   17.835    1.9695
   17.850    2.3275
   17.865    2.2433
   17.880    2.2222
   17.895    2.2433
   17.910    1.9379
   17.925    2.0221
   17.940    2.0853
   17.955    1.9905
   17.970    2.1274
   17.985    2.2222
   18.000    2.3486
   18.015    2.0958
   18.030    2.0011
   18.045    1.9273
   18.060    2.2328
   18.075    2.2012
   18.090    2.0537
   18.105    2.3697
   18.120    2.2222
   18.135    2.1590
   18.150    2.1485
   18.165    2.1485
   18.180    2.2328
   18.195    2.1380
   18.210    2.2328
   18.225    2.1590
   18.240    2.3170
   18.255    2.2959
   18.270    2.4750
   18.285    2.2117
   18.300    2.2222
   18.315    2.1169
   18.330    1.9695
   18.345    2.0116
   18.360    1.8747
   18.375    2.2328
   18.390    2.3275
   18.405    2.3275
   18.420    2.3065
   18.435    2.1906
   18.450    2.2328
   18.465    2.1485
   18.480    2.3907
   18.495    2.2749
   18.510    2.1590
   18.525    2.2643
   18.540    2.2643
   18.555    2.3697
   18.570    2.2222
   18.585    2.3275
   18.600    2.2749
   18.615    2.4539
   18.630    2.5276
   18.645    2.4961
   18.660    2.2749
   18.675    2.3275
   18.690    2.4118
   18.705    2.3802
   18.720    2.2538
   18.735    2.5066
   18.750    2.6540
   18.765    2.2749
   18.780    2.4118
   18.795    2.7699
   18.810    2.6646
   18.825    2.8647
   18.840    2.6014
   18.855    2.7593
   18.870    2.6224
   18.885    2.6856
   18.900    2.5592
   18.915    2.6435
   18.930    2.7699
   18.945    2.8963
   18.960    2.7804
   18.975    2.7699
   18.990    2.8541
   19.005    2.8015
   19.020    2.9279
   19.035    3.0226
   19.050    2.7488
   19.065    2.8752
   19.080    2.8015
   19.095    2.9595
   19.110    2.6224
   19.125    3.0542
   19.140    3.0121
   19.155    3.1596
   19.170    3.1280
   19.185    3.1174
   19.200    2.9279
   19.215    2.9595
   19.230    2.9384
   19.245    3.0648
   19.260    2.9595
   19.275    2.8541
   19.290    3.0016
   19.305    2.9068
   19.320    2.9489
   19.335    3.1069
   19.350    3.0648
   19.365    2.8436
   19.380    2.5803
   19.395    2.6540
   19.410    2.7804
   19.425    2.8963
   19.440    2.6962
   19.455    3.0332
   19.470    2.7593
   19.485    2.9173
   19.500    2.9384
   19.515    2.6856
   19.530    2.7804
   19.545    2.9173
   19.560    2.9384
   19.575    2.9173
   19.590    2.6224
   19.605    2.6646
   19.620    2.8752
   19.635    2.7172
   19.650    2.7383
   19.665    2.7278
   19.680    2.9068
   19.695    3.0858
   19.710    2.8120
   19.725    2.6646
   19.740    2.6962
   19.755    2.5698
   19.770    2.7593
   19.785    2.9279
   19.800    2.8752
   19.815    2.8015
   19.830    2.7909
   19.845    2.7804
   19.860    3.0016
   19.875    2.8436
   19.890    2.8015
   19.905    2.8436
   19.920    2.7067
   19.935    2.7383
   19.950    2.8436
   19.965    2.9173
   19.980    2.6014
   19.995    2.7699
   20.010    2.6224
   20.025    2.8436
   20.040    2.7067
   20.055    3.0858
   20.070    2.7909
   20.085    2.9910
   20.100    2.9595
   20.115    2.9068
   20.130    2.9489
   20.145    2.8752
   20.160    2.8120
   20.175    2.8647
   20.190    3.0437
   20.205    2.8647
   20.220    2.9595
   20.235    2.9068
   20.250    3.0858
   20.265    2.8436
   20.280    2.5803
   20.295    2.8436
   20.310    2.8015
   20.325    2.8436
   20.340    2.9173
   20.355    2.8752
   20.370    2.7067
   20.385    2.6646
   20.400    2.9910
   20.415    3.0964
   20.430    2.6751
   20.445    2.4750
   20.460    2.8541
   20.475    2.7488
   20.490    2.8436
   20.505    2.7804
   20.520    2.8120
   20.535    2.7172
   20.550    2.7699
   20.565    2.5698
   20.580    2.7172
   20.595    2.6330
   20.610    2.7593
   20.625    2.6435
   20.640    2.9805
   20.655    2.7804
   20.670    2.7067
   20.685    2.8541
   20.700    2.6330
   20.715    2.5698
   20.730    2.8331
   20.745    2.5276
   20.760    2.6646
   20.775    2.6435
   20.790    2.4750
   20.805    2.4329
   20.820    2.5698
   20.835    2.6856
   20.850    2.8331
   20.865    2.5803
   20.880    2.3907
   20.895    2.5066
   20.910    2.6224
   20.925    2.5382
   20.940    2.8120
   20.955    2.6962
   20.970    2.6330
   20.985    2.7804
   21.000    2.7383
   21.015    2.7488
   21.030    2.6856
   21.045    2.6751
   21.060    2.5171
   21.075    2.4013
   21.090    2.6646
   21.105    2.6646
   21.120    2.6435
   21.135    2.5171
   21.150    2.7593
   21.165    2.6014
   21.180    2.5382
   21.195    2.7804
   21.210    2.7488
   21.225    2.6751
   21.240    2.6435
   21.255    2.7067
   21.270    2.5487
   21.285    2.6751
   21.300    2.5487
   21.315    2.7593
   21.330    2.5803
   21.345    2.6224
   21.360    2.6224
   21.375    2.5592
   21.390    2.5592
   21.405    2.6435
   21.420    2.6014
   21.435    2.4539
   21.450    2.5803
   21.465    2.5803
   21.480    2.4013
   21.495    2.5171
   21.510    2.6014
   21.525    2.4645
   21.540    2.4539
   21.555    2.4329
   21.570    2.4645
   21.585    2.4013
   21.600    2.6856
   21.615    2.4539
   21.630    2.2854
   21.645    2.2222
   21.660    2.1801
   21.675    2.3591
   21.690    2.5592
   21.705    2.3697
   21.720    2.2222
   21.735    2.2012
   21.750    2.4539
   21.765    2.6435
   21.780    2.3802
   21.795    2.5276
   21.810    2.4329
   21.825    2.3065
   21.840    2.2328
   21.855    2.5382
   21.870    1.9905
   21.885    2.1380
   21.900    2.2117
   21.915    2.1906
   21.930    2.2328
   21.945    2.1169
   21.960    2.3275
   21.975    2.3381
   21.990    2.3907
   22.005    2.1590
   22.020    2.0853
   22.035    2.1590
   22.050    2.2222
   22.065    2.0537
   22.080    2.2538
   22.095    2.1485
   22.110    2.2117
   22.125    2.1169
   22.140    2.0537
   22.155    2.2643
   22.170    2.3065
   22.185    2.1380
   22.200    2.2222
   22.215    1.9695
   22.230    2.0958
   22.245    2.0748
   22.260    2.1906
   22.275    2.2854
   22.290    1.9905
   22.305    2.0958
   22.320    2.2433
   22.335    2.3381
   22.350    2.2538
   22.365    1.9695
   22.380    2.0326
   22.395    1.9905
   22.410    1.8852
   22.425    1.9379
   22.440    1.8325
   22.455    1.9695
   22.470    2.3486
   22.485    2.1485
   22.500    2.0011
   22.515    2.2222
   22.530    1.7799
   22.545    1.9484
   22.560    1.9905
   22.575    2.0642
   22.590    2.3697
   22.605    1.9800
   22.620    2.1485
   22.635    2.0853
   22.650    2.0432
   22.665    2.2117
   22.680    2.1801
   22.695    2.1169
   22.710    2.0432
   22.725    1.8852
   22.740    1.8431
   22.755    1.9379
   22.770    1.8957
   22.785    2.1169
   22.800    1.9063
   22.815    2.0011
   22.830    1.9800
   22.845    2.1169
   22.860    2.1380
   22.875    1.8747
   22.890    1.8325
   22.905    2.0116
   22.920    1.9589
   22.935    1.8957
   22.950    2.1064
   22.965    1.9379
   22.980    1.9379
   22.995    2.1274
   23.010    2.0011
   23.025    2.1169
   23.040    1.8852
   23.055    2.0011
   23.070    2.1696
   23.085    2.2749
   23.100    2.0011
   23.115    2.1906
   23.130    2.0958
   23.145    2.1906
   23.160    1.9905
   23.175    1.9695
   23.190    2.0011
   23.205    1.9168
   23.220    2.1064
   23.235    2.2222
   23.250    2.2328
   23.265    2.1380
   23.280    1.9168
   23.295    1.8852
   23.310    2.1274
   23.325    2.2643
   23.340    2.0326
   23.355    2.2749
   23.370    2.1590
   23.385    2.2959
   23.400    2.1801
   23.415    2.0432
   23.430    2.0537
   23.445    2.2538
   23.460    2.2433
   23.475    2.0537
   23.490    2.0748
   23.505    1.9695
   23.520    1.9063
   23.535    2.0642
   23.550    2.1696
   23.565    2.0116
   23.580    1.7483
   23.595    2.0642
   23.610    2.1380
   23.625    2.0432
   23.640    1.9168
   23.655    2.1169
   23.670    2.0642
   23.685    2.0853
   23.700    1.9168
   23.715    2.1485
   23.730    2.3065
   23.745    2.0748
   23.760    2.1380
   23.775    2.0011
   23.790    1.8852
   23.805    1.9589
   23.820    2.2328
   23.835    1.9695
   23.850    2.0853
   23.865    2.1485
   23.880    1.9379
   23.895    2.0432
   23.910    2.0642
   23.925    2.1485
   23.940    1.8641
   23.955    1.9484
   23.970    1.8431
   23.985    1.9589
   24.000    2.1696
   24.015    2.0958
   24.030    2.0958
   24.045    2.0748
   24.060    2.0326
   24.075    2.0537
   24.090    1.9905
   24.105    1.9484
   24.120    1.8852
   24.135    1.9800
   24.150    2.0116
   24.165    2.1274
   24.180    2.0853
   24.195    1.8641
   24.210    2.1169
   24.225    2.0537
   24.240    1.9695
   24.255    2.1696
   24.270    2.0853
   24.285    2.0011
   24.300    2.0221
   24.315    2.0432
   24.330    2.0116
   24.345    1.8431
   24.360    1.7483
   24.375    1.9589
   24.390    2.0958
   24.405    1.9800
   24.420    1.9905
   24.435    1.7272
   24.450    1.9063
   24.465    1.9379
   24.480    1.9695
   24.495    1.9589
   24.510    2.1274
   24.525    2.0853
   24.540    1.9168
   24.555    1.9589
   24.570    2.0537
   24.585    2.1169
   24.600    2.0221
   24.615    1.9800
   24.630    1.9905
   24.645    1.9379
   24.660    1.9800
   24.675    1.9695
   24.690    2.0432
   24.705    1.9484
   24.720    1.8431
   24.735    1.8957
   24.750    1.8431
   24.765    2.1169
   24.780    2.0011
   24.795    1.8009
   24.810    1.8852
   24.825    1.8431
   24.840    1.9905
   24.855    2.0116
   24.870    1.8852
   24.885    1.8536
   24.900    1.7272
   24.915    2.0642
   24.930    2.2222
   24.945    2.0221
   24.960    1.8747
   24.975    1.8641
   24.990    1.9905
   25.005    1.7167
   25.020    1.6956
   25.035    1.8536
   25.050    2.1274
   25.065    1.9905
   25.080    1.9273
   25.095    2.0958
   25.110    1.8009
   25.125    1.8641
   25.140    1.8536
   25.155    2.0011
   25.170    1.6746
   25.185    1.7694
   25.200    1.8009
   25.215    2.0116
   25.230    1.9800
   25.245    2.0958
   25.260    1.9273
   25.275    1.7904
   25.290    1.6535
   25.305    1.8747
   25.320    1.9800
   25.335    1.7904
   25.350    2.0748
   25.365    1.9063
   25.380    1.9695
   25.395    1.9379
   25.410    1.8220
   25.425    1.8957
   25.440    1.8220
   25.455    1.6956
   25.470    1.7694
   25.485    2.0221
   25.500    1.8957
   25.515    1.8957
   25.530    1.9379
   25.545    1.9379
   25.560    1.9379
   25.575    1.7378
   25.590    1.9273
   25.605    1.8747
   25.620    1.7378
   25.635    1.7904
   25.650    1.7588
   25.665    1.9905
   25.680    1.7167
   25.695    1.7799
   25.710    2.0326
   25.725    1.7062
   25.740    1.9273
   25.755    1.9063
   25.770    1.6324
   25.785    1.5692
   25.800    1.8325
   25.815    1.9063
   25.830    1.8641
   25.845    1.7483
   25.860    1.6535
   25.875    1.6535
   25.890    1.6114
   25.905    1.6851
   25.920    1.7378
   25.935    1.6956
   25.950    1.7378
   25.965    1.7904
   25.980    1.8431
   25.995    1.6746
   26.010    1.6430
   26.025    1.8747
   26.040    1.8852
   26.055    1.6851
   26.070    1.9589
   26.085    1.8009
   26.100    1.8641
   26.115    1.9063
   26.130    1.8431
   26.145    1.7799
   26.160    1.6324
   26.175    1.7694
   26.190    1.8536
   26.205    1.7272
   26.220    1.9484
   26.235    1.8536
   26.250    1.8009
   26.265    1.8009
   26.280    1.7483
   26.295    1.8009
   26.310    1.6430
   26.325    1.7483
   26.340    1.7588
   26.355    1.8852
   26.370    1.7588
   26.385    1.6324
   26.400    1.6008
   26.415    1.8852
   26.430    1.7272
   26.445    1.9589
   26.460    1.9484
   26.475    1.9800
   26.490    1.8641
   26.505    1.9273
   26.520    1.7799
   26.535    1.6430
   26.550    1.6008
   26.565    1.7378
   26.580    1.7694
   26.595    1.7483
   26.610    1.7062
   26.625    1.6219
   26.640    1.9168
   26.655    1.4955
   26.670    1.7799
   26.685    1.7378
   26.700    1.7167
   26.715    1.6430
   26.730    1.6640
   26.745    1.6535
   26.760    1.6851
   26.775    1.8009
   26.790    1.6535
   26.805    1.6219
   26.820    1.7588
   26.835    1.6324
   26.850    1.6956
   26.865    1.6851
   26.880    1.6219
   26.895    1.6219
   26.910    1.6851
   26.925    1.6430
   26.940    1.7588
   26.955    1.9589
   26.970    1.5377
   26.985    1.8009
   27.000    1.6746
   27.015    1.5377
   27.030    1.5587
   27.045    1.7588
   27.060    1.6535
   27.075    1.6956
   27.090    1.7483
   27.105    1.4745
   27.120    1.4955
   27.135    1.7694
   27.150    1.8536
   27.165    1.7272
   27.180    1.6746
   27.195    1.6851
   27.210    1.6956
   27.225    1.5587
   27.240    1.7799
   27.255    1.6324
   27.270    1.5903
   27.285    1.6535
   27.300    1.5166
   27.315    1.4955
   27.330    1.5798
   27.345    1.6219
   27.360    1.7799
   27.375    1.6430
   27.390    1.6746
   27.405    1.8957
   27.420    1.7483
   27.435    1.4955
   27.450    1.6746
   27.465    1.5798
   27.480    1.4955
   27.495    1.5798
   27.510    1.6324
   27.525    1.6430
   27.540    1.5377
   27.555    1.5587
   27.570    1.7167
   27.585    1.6851
   27.600    1.6746
   27.615    1.5692
   27.630    1.6114
   27.645    1.6008
   27.660    1.6008
   27.675    1.7588
   27.690    1.7483
   27.705    1.7378
   27.720    1.7588
   27.735    1.6008
   27.750    1.8220
   27.765    1.5798
   27.780    1.5061
   27.795    1.6746
   27.810    1.8641
   27.825    1.7272
   27.840    1.7904
   27.855    1.8220
   27.870    1.6640
   27.885    1.6746
   27.900    1.7272
   27.915    1.6219
   27.930    1.7588
   27.945    1.6956
   27.960    1.6324
   27.975    1.6219
   27.990    1.6640
   28.005    1.7694
   28.020    1.6640
   28.035    1.5587
   28.050    1.6219
   28.065    1.6008
   28.080    1.5377
   28.095    1.5903
   28.110    1.5903
   28.125    1.6956
   28.140    1.6219
   28.155    1.6535
   28.170    1.4113
   28.185    1.4850
   28.200    1.5587
   28.215    1.5587
   28.230    1.5903
   28.245    1.5587
   28.260    1.4007
   28.275    1.3902
   28.290    1.5271
   28.305    1.7694
   28.320    1.6640
   28.335    1.5166
   28.350    1.5587
   28.365    1.4007
   28.380    1.5377
   28.395    1.4850
   28.410    1.6324
   28.425    1.6430
   28.440    1.7062
   28.455    1.5482
   28.470    1.6219
   28.485    1.7062
   28.500    1.6219
   28.515    1.4429
   28.530    1.6746
   28.545    1.6430
   28.560    1.3902
   28.575    1.5482
   28.590    1.3375
   28.605    1.5377
   28.620    1.4850
   28.635    1.4955
   28.650    1.5798
   28.665    1.6219
   28.680    1.4745
   28.695    1.4218
   28.710    1.7062
   28.725    1.6324
   28.740    1.6640
   28.755    1.5271
   28.770    1.3902
   28.785    1.4534
   28.800    1.4850
   28.815    1.5061
   28.830    1.4323
   28.845    1.3902
   28.860    1.4745
   28.875    1.5692
   28.890    1.6430
   28.905    1.3586
   28.920    1.5482
   28.935    1.7588
   28.950    1.6219
   28.965    1.5903
   28.980    1.4745
   28.995    1.5798
   29.010    1.5482
   29.025    1.4955
   29.040    1.5903
   29.055    1.5061
   29.070    1.5482
   29.085    1.4850
   29.100    1.5061
   29.115    1.4745
   29.130    1.6851
   29.145    1.6851
   29.160    1.6324
   29.175    1.5482
   29.190    1.5271
   29.205    1.3691
   29.220    1.2954
   29.235    1.5166
   29.250    1.5587
   29.265    1.5166
   29.280    1.6114
   29.295    1.4534
   29.310    1.3691
   29.325    1.5061
   29.340    1.4745
   29.355    1.5587
   29.370    1.6008
   29.385    1.5903
   29.400    1.5587
   29.415    1.4639
   29.430    1.5271
   29.445    1.5587
   29.460    1.4113
   29.475    1.3691
   29.490    1.4534
   29.505    1.6746
   29.520    1.4218
   29.535    1.4429
   29.550    1.4218
   29.565    1.5587
   29.580    1.5903
   29.595    1.5798
   29.610    1.4850
   29.625    1.4534
   29.640    1.3797
   29.655    1.4745
   29.670    1.3270
   29.685    1.5377
   29.700    1.3902
   29.715    1.4639
   29.730    1.5692
   29.745    1.4745
   29.760    1.5482
   29.775    1.4323
   29.790    1.6114
   29.805    1.5692
   29.820    1.5377
   29.835    1.4745
   29.850    1.5061
   29.865    1.5587
   29.880    1.4007
   29.895    1.3481
   29.910    1.3270
   29.925    1.2006
   29.940    1.4007
   29.955    1.3902
   29.970    1.3902
   29.985    1.2954
   30.000    1.4323
   30.015    1.4429
   30.030    1.3902
   30.045    1.3481
   30.060    1.2638
   30.075    1.3691
   30.090    1.4007
   30.105    1.4850
   30.120    1.4007
   30.135    1.4850
   30.150    1.4534
   30.165    1.3481
   30.180    1.5587
   30.195    1.3797
   30.210    1.3165
   30.225    1.3586
   30.240    1.6746
   30.255    1.5377
   30.270    1.4113
   30.285    1.5587
   30.300    1.4007
   30.315    1.2954
   30.330    1.3586
   30.345    1.2954
   30.360    1.4429
   30.375    1.4323
   30.390    1.2849
   30.405    1.3481
   30.420    1.4534
   30.435    1.2638
   30.450    1.3586
   30.465    1.6008
   30.480    1.2638
   30.495    1.5166
   30.510    1.4745
   30.525    1.3375
   30.540    1.3586
   30.555    1.2744
   30.570    1.4007
   30.585    1.3902
   30.600    1.3902
   30.615    1.3586
   30.630    1.2428
   30.645    1.2744
   30.660    1.4218
   30.675    1.3902
   30.690    1.3586
   30.705    1.3165
   30.720    1.4639
   30.735    1.3797
   30.750    1.3902
   30.765    1.3797
   30.780    1.3375
   30.795    1.2849
   30.810    1.4218
   30.825    1.3375
   30.840    1.2322
   30.855    1.3481
   30.870    1.3481
   30.885    1.2744
   30.900    1.3691
   30.915    1.3481
   30.930    1.2638
   30.945    1.3691
   30.960    1.3165
   30.975    1.4323
   30.990    1.4007
   31.005    1.2428
   31.020    1.3165
   31.035    1.3481
   31.050    1.4745
   31.065    1.5166
   31.080    1.2638
   31.095    1.3902
   31.110    1.4850
   31.125    1.2533
   31.140    1.3691
   31.155    1.1901
   31.170    1.2533
   31.185    1.1374
   31.200    1.3797
   31.215    1.3586
   31.230    1.3691
   31.245    1.4113
   31.260    1.3165
   31.275    1.2849
   31.290    1.2849
   31.305    1.3165
   31.320    1.3691
   31.335    1.2744
   31.350    1.2112
   31.365    1.1058
   31.380    1.3165
   31.395    1.3060
   31.410    1.2849
   31.425    1.1796
   31.440    1.2849
   31.455    1.3165
   31.470    1.1796
   31.485    1.3165
   31.500    1.3165
   31.515    1.3375
   31.530    1.2533
   31.545    1.1480
   31.560    1.1690
   31.575    1.3797
   31.590    1.2533
   31.605    1.3270
   31.620    1.4534
   31.635    1.4639
   31.650    1.4639
   31.665    1.3375
   31.680    1.3375
   31.695    1.3797
   31.710    1.2322
   31.725    1.2744
   31.740    1.2849
   31.755    1.1901
   31.770    1.2006
   31.785    1.2533
   31.800    1.2428
   31.815    1.3270
   31.830    1.2533
   31.845    1.2112
   31.860    1.1901
   31.875    1.3586
   31.890    1.2217
   31.905    1.0742
   31.920    1.2849
   31.935    1.1269
   31.950    1.1796
   31.965    1.1796
   31.980    1.0742
   31.995    1.0216
   32.010    1.2112
   32.025    1.4007
   32.040    1.2533
   32.055    1.3481
   32.070    1.3165
   32.085    1.1901
   32.100    1.2112
   32.115    1.1690
   32.130    1.2533
   32.145    1.4850
   32.160    1.3060
   32.175    1.3165
   32.190    1.1269
   32.205    1.2006
   32.220    1.2217
   32.235    1.1901
   32.250    1.1585
   32.265    1.2954
   32.280    1.3691
   32.295    1.2954
   32.310    1.2533
   32.325    1.2744
   32.340    1.3165
   32.355    1.2744
   32.370    1.2638
   32.385    1.2006
   32.400    1.2954
   32.415    1.0848
   32.430    1.0953
   32.445    1.2744
   32.460    1.2533
   32.475    1.1058
   32.490    1.1269
   32.505    1.2638
   32.520    1.2428
   32.535    1.1901
   32.550    1.0953
   32.565    1.3270
   32.580    1.2428
   32.595    1.1901
   32.610    1.2217
   32.625    1.2849
   32.640    1.2006
   32.655    1.3270
   32.670    1.2322
   32.685    1.0637
   32.700    1.1164
   32.715    1.1058
   32.730    1.1690
   32.745    1.2744
   32.760    1.1796
   32.775    1.1585
   32.790    1.1269
   32.805    1.0742
   32.820    1.0321
   32.835    1.2954
   32.850    1.3060
   32.865    0.9373
   32.880    1.0532
   32.895    1.2322
   32.910    1.2428
   32.925    1.3586
   32.940    1.1480
   32.955    1.1374
   32.970    1.0953
   32.985    1.0427
   33.000    0.9268
   33.015    1.1585
   33.030    1.0637
   33.045    1.0953
   33.060    1.0005
   33.075    1.2849
   33.090    1.2533
   33.105    1.0953
   33.120    1.1585
   33.135    1.1796
   33.150    1.0216
   33.165    1.0742
   33.180    1.0848
   33.195    1.1269
   33.210    1.2112
   33.225    1.2638
   33.240    1.1585
   33.255    1.1269
   33.270    1.0742
   33.285    1.0427
   33.300    1.0111
   33.315    1.2112
   33.330    1.2112
   33.345    1.0742
   33.360    1.0953
   33.375    1.0742
   33.390    1.0953
   33.405    1.0637
   33.420    1.0532
   33.435    1.0637
   33.450    1.1901
   33.465    1.0321
   33.480    0.9795
   33.495    1.1585
   33.510    1.1269
   33.525    1.0427
   33.540    1.0848
   33.555    0.9373
   33.570    0.9268
   33.585    0.9900
   33.600    1.0953
   33.615    1.0848
   33.630    0.9268
   33.645    1.0111
   33.660    0.9689
   33.675    1.0953
   33.690    0.9689
   33.705    1.0637
   33.720    1.1690
   33.735    1.2428
   33.750    1.1269
   33.765    1.1374
   33.780    1.0216
   33.795    1.0742
   33.810    0.9268
   33.825    0.9689
   33.840    1.0321
   33.855    1.2006
   33.870    1.0742
   33.885    1.1374
   33.900    1.0848
   33.915    1.0848
   33.930    1.0532
   33.945    1.0005
   33.960    1.0216
   33.975    0.8847
   33.990    1.0321
   34.005    1.0637
   34.020    1.0637
   34.035    1.1164
   34.050    1.0111
   34.065    1.0848
   34.080    1.0532
   34.095    1.0111
   34.110    0.9479
   34.125    1.0111
   34.140    1.0742
   34.155    1.1058
   34.170    1.1585
   34.185    0.9689
   34.200    0.9900
   34.215    1.0742
   34.230    1.1796
   34.245    1.1269
   34.260    1.0111
   34.275    1.0742
   34.290    0.9900
   34.305    1.0427
   34.320    1.1269
   34.335    1.0742
   34.350    1.0637
   34.365    0.8952
   34.380    0.9900
   34.395    0.8847
   34.410    0.9900
   34.425    1.0427
   34.440    0.9584
   34.455    0.9900
   34.470    1.0427
   34.485    0.9795
   34.500    0.8741
   34.515    0.8741
   34.530    0.9795
   34.545    0.9900
   34.560    0.9479
   34.575    1.0532
   34.590    0.8741
   34.605    0.7688
   34.620    0.9900
   34.635    0.9373
   34.650    0.8952
   34.665    1.0532
   34.680    1.0005
   34.695    1.2112
   34.710    1.0637
   34.725    0.9689
   34.740    1.0216
   34.755    0.7688
   34.770    1.0321
   34.785    1.0111
   34.800    0.9795
   34.815    1.0216
   34.830    0.8531
   34.845    0.8741
   34.860    1.0532
   34.875    1.0216
   34.890    0.8531
   34.905    1.0111
   34.920    1.1058
   34.935    0.9900
   34.950    1.0216
   34.965    0.8741
   34.980    0.9057
   34.995    0.9584
   35.010    0.9689
   35.025    1.1164
   35.040    1.0005
   35.055    0.8847
   35.070    0.9689
   35.085    0.8531
   35.100    0.8636
   35.115    0.9163
   35.130    0.8425
   35.145    0.9689
   35.160    0.9900
   35.175    0.8952
   35.190    0.9373
   35.205    0.9268
   35.220    0.8741
   35.235    0.8847
   35.250    0.9479
   35.265    1.0953
   35.280    0.9584
   35.295    0.9795
   35.310    1.0005
   35.325    0.7899
   35.340    0.8110
   35.355    1.0427
   35.370    1.0637
   35.385    1.0637
   35.400    0.9900
   35.415    0.9163
   35.430    0.9584
   35.445    1.0953
   35.460    0.9057
   35.475    0.8531
   35.490    0.9373
   35.505    0.8425
   35.520    0.9057
   35.535    0.9163
   35.550    0.9689
   35.565    0.8741
   35.580    0.8320
   35.595    0.9163
   35.610    0.9373
   35.625    0.9689
   35.640    0.8952
   35.655    0.9163
   35.670    0.8847
   35.685    0.9584
   35.700    0.9163
   35.715    0.9268
   35.730    0.9479
   35.745    0.8741
   35.760    0.9900
   35.775    1.0427
   35.790    0.9689
   35.805    0.8425
   35.820    0.8952
   35.835    0.9584
   35.850    0.8636
   35.865    0.9057
   35.880    0.8215
   35.895    0.8531
   35.910    0.8320
   35.925    0.8425
   35.940    0.8425
   35.955    0.9584
   35.970    0.9373
   35.985    0.7688
   36.000    0.8320
   36.015    0.8741
   36.030    0.9268
   36.045    0.8215
   36.060    0.9795
   36.075    0.9479
   36.090    1.0111
   36.105    0.8531
   36.120    0.7583
   36.135    0.7162
   36.150    0.9584
   36.165    0.9373
   36.180    0.9057
   36.195    0.9268
   36.210    1.0111
   36.225    1.0111
   36.240    0.7688
   36.255    1.1164
   36.270    1.0427
   36.285    0.9900
   36.300    0.7478
   36.315    0.7794
   36.330    0.6951
   36.345    0.8636
   36.360    0.8215
   36.375    0.8425
   36.390    0.8215
   36.405    0.8952
   36.420    0.9584
   36.435    0.8847
   36.450    0.8215
   36.465    0.7372
   36.480    0.8320
   36.495    0.7372
   36.510    0.6740
   36.525    0.6635
   36.540    0.8215
   36.555    0.7794
   36.570    0.8320
   36.585    0.8531
   36.600    0.8004
   36.615    0.8110
   36.630    0.8636
   36.645    0.8320
   36.660    0.6846
   36.675    0.9268
   36.690    0.9057
   36.705    0.8215
   36.720    0.9057
   36.735    0.7372
   36.750    0.8110
   36.765    0.9373
   36.780    0.8741
   36.795    0.8215
   36.810    0.8004
   36.825    0.9163
   36.840    0.9795
   36.855    1.0216
   36.870    0.9163
   36.885    0.9584
   36.900    0.8952
   36.915    0.8004
   36.930    0.8215
   36.945    0.8847
   36.960    0.8320
   36.975    0.8110
   36.990    0.9057
   37.005    0.9163
   37.020    0.8425
   37.035    0.8110
   37.050    0.7267
   37.065    0.6846
   37.080    0.8636
   37.095    0.7688
   37.110    0.7583
   37.125    0.9268
   37.140    0.8110
   37.155    0.8636
   37.170    0.7688
   37.185    0.7056
   37.200    0.9268
   37.215    0.8110
   37.230    0.8636
   37.245    1.0742
   37.260    1.0005
   37.275    0.8320
   37.290    0.8847
   37.305    0.8110
   37.320    0.8741
   37.335    0.8004
   37.350    0.8531
   37.365    0.6740
   37.380    0.6635
   37.395    0.8110
   37.410    0.8636
   37.425    0.9268
   37.440    0.8004
   37.455    0.7688
   37.470    0.6530
   37.485    0.7794
   37.500    0.8531
   37.515    0.8741
   37.530    0.7794
   37.545    0.7688
   37.560    0.8847
   37.575    0.8215
   37.590    0.8110
   37.605    0.8004
   37.620    0.6951
   37.635    0.7583
   37.650    0.8110
   37.665    0.8004
   37.680    0.8741
   37.695    0.8320
   37.710    0.9268
   37.725    0.7478
   37.740    0.7688
   37.755    0.7583
   37.770    0.8110
   37.785    0.7478
   37.800    0.8215
   37.815    0.8636
   37.830    0.8636
   37.845    0.7794
   37.860    0.7267
   37.875    0.8110
   37.890    0.8215
   37.905    0.8004
   37.920    0.8425
   37.935    0.7583
   37.950    0.7478
   37.965    0.8741
   37.980    0.8847
   37.995    0.7478
   38.010    0.7372
   38.025    0.6951
   38.040    0.8110
   38.055    0.7583
   38.070    0.8847
   38.085    0.9163
   38.100    0.7267
   38.115    0.7688
   38.130    0.8215
   38.145    0.8531
   38.160    0.8531
   38.175    0.8004
   38.190    0.8110
   38.205    0.7372
   38.220    0.7688
   38.235    0.7372
   38.250    0.8110
   38.265    0.7162
   38.280    0.7583
   38.295    0.7688
   38.310    0.7372
   38.325    0.7478
   38.340    0.8741
   38.355    0.7478
   38.370    0.6951
   38.385    0.7899
   38.400    0.7794
   38.415    0.7267
   38.430    0.7372
   38.445    0.7794
   38.460    0.9057
   38.475    0.7688
   38.490    0.7267
   38.505    0.6740
   38.520    0.6214
   38.535    0.8004
   38.550    0.8215
   38.565    0.6951
   38.580    0.8741
   38.595    0.8741
   38.610    0.8952
   38.625    0.8531
   38.640    0.8004
   38.655    0.6635
   38.670    0.6951
   38.685    0.6740
   38.700    0.7899
   38.715    0.7899
   38.730    0.7794
   38.745    0.8320
   38.760    0.6951
   38.775    0.8215
   38.790    0.7056
   38.805    0.7478
   38.820    0.7372
   38.835    0.7794
   38.850    0.8110
   38.865    0.6635
   38.880    0.8215
   38.895    0.8004
   38.910    0.7372
   38.925    0.8425
   38.940    0.7688
   38.955    0.9479
   38.970    0.8425
   38.985    0.8215
   39.000    0.8320
   39.015    0.8110
   39.030    0.7899
   39.045    0.6319
   39.060    0.7583
   39.075    0.8952
   39.090    0.7478
   39.105    0.8004
   39.120    0.7267
   39.135    0.8531
   39.150    0.7899
   39.165    0.7372
   39.180    0.8952
   39.195    0.7372
   39.210    0.6214
   39.225    0.7162
   39.240    0.8425
   39.255    0.6846
   39.270    0.7688
   39.285    0.7162
   39.300    0.7478
   39.315    0.7794
   39.330    0.6951
   39.345    0.7478
   39.360    0.8004
   39.375    0.8425
   39.390    0.8636
   39.405    0.8110
   39.420    0.9268
   39.435    0.7478
   39.450    0.6740
   39.465    0.6319
   39.480    0.8004
   39.495    0.7267
   39.510    0.7688
   39.525    0.7162
   39.540    0.6951
   39.555    0.7794
   39.570    0.7583
   39.585    0.7478
   39.600    0.8952
   39.615    0.8110
   39.630    0.8531
   39.645    0.8110
   39.660    0.8741
   39.675    0.8004
   39.690    0.7899
   39.705    0.6635
   39.720    0.8320
   39.735    0.9163
   39.750    0.8110
   39.765    0.8531
   39.780    0.6846
   39.795    0.7899
   39.810    0.6530
   39.825    0.7688
   39.840    0.6740
   39.855    0.7583
   39.870    0.7162
   39.885    0.8425
   39.900    0.7162
   39.915    0.7267
   39.930    0.7372
   39.945    0.7688
   39.960    0.7583
   39.975    0.8110
   39.990    0.7583
