    1.500   16.5350
    1.515   16.6579
    1.530   16.4121
    1.545   15.7100
    1.560   15.8153
    1.575   15.2361
    1.590   14.7270
    1.605   15.4116
    1.620   14.6919
    1.635   14.6568
    1.650   15.3414
    1.665   14.3760
    1.680   13.9196
    1.695   14.5164
    1.710   14.1302
    1.725   14.9728
    1.740   13.6212
    1.755   12.7787
    1.770   13.6914
    1.785   13.9898
    1.800   13.7265
    1.815   12.8489
    1.830   13.0420
    1.845   12.3749
    1.860   13.2175
    1.875   13.1999
    1.890   12.7260
    1.905   12.3749
    1.920   11.5850
    1.935   12.3925
    1.950   12.4451
    1.965   11.7255
    1.980   11.6026
    1.995   11.6202
    2.010   11.6202
    2.025   11.0409
    2.040   11.8308
    2.055   11.4622
    2.070   10.9707
    2.085   11.6026
    2.100   11.9537
    2.115   11.3744
    2.130   11.4095
    2.145   11.2164
    2.160   11.0936
    2.175   10.4441
    2.190   11.4446
    2.205   11.0936
    2.220   10.6021
    2.235   10.5143
    2.250   10.0930
    2.265   10.7776
    2.280   10.6547
    2.295   10.9531
    2.310   10.6372
    2.325    9.8824
    2.340   10.7600
    2.355   10.3739
    2.370   10.3739
    2.385   10.7074
    2.400   10.3739
    2.415   10.1983
    2.430   10.7776
    2.445   10.7776
    2.460   10.8478
    2.475   10.7074
    2.490   10.9707
    2.505   11.2164
    2.520   10.7952
    2.535   11.2340
    2.550   11.3569
    2.565   10.7425
    2.580   11.2515
    2.595   10.8654
    2.610   10.6196
    2.625   11.1111
    2.640   10.8829
    2.655   11.2164
    2.670   11.4446
    2.685   11.9361
    2.700   12.3398
    2.715   12.1994
    2.730   11.5324
    2.745   12.1116
    2.760   11.9888
    2.775   12.1819
    2.790   12.1467
    2.805   12.5154
    2.820   12.3749
    2.835   12.4451
    2.850   12.9015
    2.865   12.8840
    2.880   13.7792
    2.895   13.2877
    2.910   13.7090
    2.925   14.1478
    2.940   14.2180
    2.955   14.0425
    2.970   13.6388
    2.985   13.7090
    3.000   14.1302
    3.015   14.8675
    3.030   14.9728
    3.045   15.1834
    3.060   15.7802
    3.075   15.2887
    3.090   16.0260
    3.105   16.2366
    3.120   16.6403
    3.135   17.4478
    3.150   17.8164
    3.165   17.7813
    3.180   17.9744
    3.195   18.6063
    3.210   19.8701
    3.225   19.1504
    3.240   19.5190
    3.255   20.4318
    3.270   21.4674
    3.285   21.8536
    3.300   22.5733
    3.315   22.3626
    3.330   23.2930
    3.345   23.2930
    3.360   24.5217
    3.375   25.4520
    3.390   25.4695
    3.405   26.6983
    3.420   28.8222
    3.435   28.7169
    3.450   30.1562
    3.465   30.3669
    3.480   31.8413
    3.495   32.8770
    3.510   33.6142
    3.525   34.7025
    3.540   37.7918
    3.555   39.2312
    3.570   41.3551
    3.585   42.0572
    3.600   45.2343
    3.615   46.4104
    3.630   48.1306
    3.645   52.1327
    3.660   54.5726
    3.675   57.1704
    3.690   63.1560
    3.705   64.9640
    3.720   69.8964
    3.735   75.2852
    3.750   83.5879
    3.765   91.5921
    3.780  102.2644
    3.795  116.3419
    3.810  134.7376
    3.825  156.9949
    3.840  163.2789
    3.855  151.0269
    3.870  127.1722
    3.885   95.4889
    3.900   62.7874
    3.915   37.6689
    3.930   21.3972
    3.945   13.5685
    3.960   11.0058
    3.975    8.7239
    3.990    8.1446
    4.005    7.1617
    4.020    6.6877
    4.035    6.5824
    4.050    6.7228
    4.065    6.5824
    4.080    6.0909
    4.095    6.9861
    4.110    6.0558
    4.125    6.0558
    4.140    6.2138
    4.155    5.9505
    4.170    5.9329
    4.185    6.0558
    4.200    6.0207
    4.215    5.9681
    4.230    5.8978
    4.245    5.6697
    4.260    5.2308
    4.275    5.5819
    4.290    5.9329
    4.305    5.7574
    4.320    5.6872
    4.335    5.6697
    4.350    5.6697
    4.365    6.0383
    4.380    5.8627
    4.395    5.8978
    4.410    5.3888
    4.425    5.0553
    4.440    6.0032
    4.455    6.2313
    4.470    6.0909
    4.485    5.8452
    4.500    5.6521
    4.515    5.8627
    4.530    5.8978
    4.545    6.5298
    4.560    6.5122
    4.575    6.4244
    4.590    6.5122
    4.605    6.2665
    4.620    5.9154
    4.635    5.7750
    4.650    6.5473
    4.665    6.8984
    4.680    7.2494
    4.695    6.4420
    4.710    6.8808
    4.725    7.0915
    4.740    6.5649
    4.755    7.0563
    4.770    6.9861
    4.785    7.1441
    4.800    7.4250
    4.815    7.4250
    4.830    7.5127
    4.845    7.8813
    4.860    8.1797
    4.875    8.1973
    4.890    8.2675
    4.905    8.5484
    4.920    8.3553
    4.935    8.7765
    4.950    9.1101
    4.965    8.9521
    4.980    9.1276
    4.995    9.5489
    5.010    9.9877
    5.025   10.3563
    5.040   11.3042
    5.055   10.4968
    5.070   11.7255
    5.085   11.9361
    5.100   11.6904
    5.115   11.0936
    5.130   11.9186
    5.145   12.7084
    5.160   13.4808
    5.175   13.8669
    5.190   14.4813
    5.205   15.8680
    5.220   16.2542
    5.235   17.9568
    5.250   18.0972
    5.265   17.9217
    5.280   19.5015
    5.295   20.8706
    5.310   22.0291
    5.325   23.5738
    5.340   24.7323
    5.355   27.2073
    5.370   31.6833
    5.385   33.8950
    5.400   36.8615
    5.415   43.0929
    5.430   48.8678
    5.445   56.5385
    5.460   60.2598
    5.475   58.8731
    5.490   50.0965
    5.505   38.2833
    5.520   28.2254
    5.535   18.3781
    5.550   11.6904
    5.565    8.0744
    5.580    6.3718
    5.595    6.0207
    5.610    6.1085
    5.625    5.9329
    5.640    5.0728
    5.655    4.9149
    5.670    5.0553
    5.685    5.1080
    5.700    4.8447
    5.715    5.0026
    5.730    5.1957
    5.745    5.1782
    5.760    5.2484
    5.775    5.1255
    5.790    5.3186
    5.805    4.5638
    5.820    4.8095
    5.835    4.5463
    5.850    4.5287
    5.865    4.7042
    5.880    4.5638
    5.895    4.2654
    5.910    4.8271
    5.925    5.0026
    5.940    4.9149
    5.955    4.7042
    5.970    4.2654
    5.985    4.8622
    6.000    4.8271
    6.015    4.7569
    6.030    4.9851
    6.045    4.9324
    6.060    5.1255
    6.075    4.8447
    6.090    4.8447
    6.105    4.5463
    6.120    4.8622
    6.135    4.8798
    6.150    4.8973
    6.165    5.0728
    6.180    5.3186
    6.195    5.3888
    6.210    5.1080
    6.225    5.4064
    6.240    5.8978
    6.255    5.3712
    6.270    5.3361
    6.285    5.3010
    6.300    5.7048
    6.315    5.5994
    6.330    5.6521
    6.345    6.1085
    6.360    6.2138
    6.375    6.0207
    6.390    6.0909
    6.405    6.3542
    6.420    6.1962
    6.435    6.6175
    6.450    6.6526
    6.465    6.8633
    6.480    7.2494
    6.495    7.6356
    6.510    7.6005
    6.525    8.5133
    6.540    8.4079
    6.555    8.7414
    6.570    8.9170
    6.585    9.5138
    6.600   10.6723
    6.615   11.3569
    6.630   12.4978
    6.645   13.4457
    6.660   14.8499
    6.675   16.9212
    6.690   18.6940
    6.705   19.7823
    6.720   19.8526
    6.735   18.3430
    6.750   14.8499
    6.765   11.9888
    6.780    9.1101
    6.795    6.9861
    6.810    5.6697
    6.825    5.0553
    6.840    4.6691
    6.855    4.3883
    6.870    4.2127
    6.885    4.5638
    6.900    4.5287
    6.915    4.5111
    6.930    4.5989
    6.945    4.6340
    6.960    4.7569
    6.975    4.3883
    6.990    4.4760
    7.005    3.8441
    7.020    3.7213
    7.035    4.1601
    7.050    4.5111
    7.065    3.9670
    7.080    4.1601
    7.095    4.2303
    7.110    4.7744
    7.125    4.6516
    7.140    4.6691
    7.155    4.7218
    7.170    4.4760
    7.185    4.3883
    7.200    4.5111
    7.215    4.7920
    7.230    4.7744
    7.245    4.6516
    7.260    4.6691
    7.275    4.7393
    7.290    4.5638
    7.305    4.7042
    7.320    4.8447
    7.335    4.7042
    7.350    4.9675
    7.365    4.7920
    7.380    5.3186
    7.395    5.4590
    7.410    5.0904
    7.425    5.1606
    7.440    5.2308
    7.455    5.8276
    7.470    5.1255
    7.485    4.9851
    7.500    5.1431
    7.515    5.3010
    7.530    5.8627
    7.545    5.9681
    7.560    6.0909
    7.575    5.8978
    7.590    6.9861
    7.605    7.1441
    7.620    7.0037
    7.635    6.8457
    7.650    7.7585
    7.665    7.9867
    7.680    8.3377
    7.695    9.0047
    7.710    9.9702
    7.725   11.6202
    7.740   13.3755
    7.755   14.4989
    7.770   13.7967
    7.785   12.8313
    7.800   11.0936
    7.815    8.8117
    7.830    7.0563
    7.845    5.8276
    7.860    4.7744
    7.875    4.6516
    7.890    4.6340
    7.905    4.6165
    7.920    4.2654
    7.935    4.1074
    7.950    4.2654
    7.965    4.4585
    7.980    4.3883
    7.995    3.8617
    8.010    4.4585
    8.025    4.2830
    8.040    4.4760
    8.055    4.3532
    8.070    3.7915
    8.085    4.0197
    8.100    3.9670
    8.115    4.2303
    8.130    4.4058
    8.145    4.5111
    8.160    4.2478
    8.175    4.3005
    8.190    4.1425
    8.205    4.0021
    8.220    4.3532
    8.235    4.2654
    8.250    4.4760
    8.265    4.2478
    8.280    4.2654
    8.295    4.2830
    8.310    4.3707
    8.325    4.5814
    8.340    4.3883
    8.355    4.2127
    8.370    4.1776
    8.385    4.1776
    8.400    4.6165
    8.415    4.2654
    8.430    4.3707
    8.445    4.2127
    8.460    4.2303
    8.475    4.4936
    8.490    4.4585
    8.505    4.3356
    8.520    4.5989
    8.535    4.5638
    8.550    4.7393
    8.565    4.5989
    8.580    4.2478
    8.595    4.8095
    8.610    4.7218
    8.625    4.9149
    8.640    5.3361
    8.655    5.6345
    8.670    5.9681
    8.685    5.8627
    8.700    5.8627
    8.715    5.3010
    8.730    5.2659
    8.745    4.9149
    8.760    4.1601
    8.775    4.4585
    8.790    4.3181
    8.805    4.1074
    8.820    4.0197
    8.835    4.2830
    8.850    4.2478
    8.865    4.2478
    8.880    4.3532
    8.895    4.5638
    8.910    3.9670
    8.925    3.6862
    8.940    4.3707
    8.955    4.4936
    8.970    4.2478
    8.985    4.4760
    9.000    4.3005
    9.015    4.0899
    9.030    4.6691
    9.045    4.4936
    9.060    3.9494
    9.075    4.7744
    9.090    4.8271
    9.105    4.8973
    9.120    5.1080
    9.135    4.7218
    9.150    4.9851
    9.165    4.8271
    9.180    5.1606
    9.195    5.7223
    9.210    5.6521
    9.225    5.8627
    9.240    6.2138
    9.255    6.3191
    9.270    6.9861
    9.285    7.1968
    9.300    7.1090
    9.315    7.8638
    9.330    7.9516
    9.345    7.7234
    9.360    8.9696
    9.375    8.8994
    9.390    9.6718
    9.405   11.1287
    9.420   11.4095
    9.435   12.9191
    9.450   14.3584
    9.465   16.5175
    9.480   18.4834
    9.495   21.2041
    9.510   24.5392
    9.525   24.6270
    9.540   22.6611
    9.555   19.9403
    9.570   16.7281
    9.585   12.2521
    9.600    7.8462
    9.615    6.9510
    9.630    5.3712
    9.645    5.2659
    9.660    4.7569
    9.675    4.2303
    9.690    4.0197
    9.705    4.1601
    9.720    4.3005
    9.735    4.6165
    9.750    4.0899
    9.765    4.4760
    9.780    4.4936
    9.795    3.8968
    9.810    3.9143
    9.825    4.3532
    9.840    4.5111
    9.855    4.5638
    9.870    4.5638
    9.885    4.2478
    9.900    4.6340
    9.915    4.3883
    9.930    4.5463
    9.945    4.2830
    9.960    4.0548
    9.975    4.2303
    9.990    4.3883
   10.005    4.1952
   10.020    4.2654
   10.035    4.7569
   10.050    4.8973
   10.065    4.9851
   10.080    5.0202
   10.095    5.2835
   10.110    5.2659
   10.125    5.6170
   10.140    5.4064
   10.155    6.1962
   10.170    6.1085
   10.185    6.5473
   10.200    7.4074
   10.215    7.6005
   10.230    7.6532
   10.245    8.8819
   10.260    9.8999
   10.275   11.0585
   10.290   11.6728
   10.305   11.4797
   10.320   10.4616
   10.335    9.0574
   10.350    8.1973
   10.365    6.4595
   10.380    4.7569
   10.395    4.4234
   10.410    4.3181
   10.425    4.3181
   10.440    4.4585
   10.455    4.1601
   10.470    3.6510
   10.485    3.8968
   10.500    3.9846
   10.515    4.1776
   10.530    4.5814
   10.545    4.1074
   10.560    3.8090
   10.575    3.9319
   10.590    4.0021
   10.605    4.0197
   10.620    3.9670
   10.635    3.7915
   10.650    4.0197
   10.665    4.0899
   10.680    4.0548
   10.695    3.9846
   10.710    4.2127
   10.725    4.3883
   10.740    4.2654
   10.755    4.3532
   10.770    4.3707
   10.785    4.3181
   10.800    4.5463
   10.815    4.9149
   10.830    4.4234
   10.845    5.0377
   10.860    4.8095
   10.875    5.2484
   10.890    5.5819
   10.905    5.4941
   10.920    6.0734
   10.935    6.0207
   10.950    6.6175
   10.965    7.5478
   10.980    9.1276
   10.995    9.7244
   11.010   10.0579
   11.025    9.3207
   11.040    8.5484
   11.055    8.0393
   11.070    7.0915
   11.085    5.4064
   11.100    4.7744
   11.115    4.1425
   11.130    4.1952
   11.145    4.4058
   11.160    4.4058
   11.175    3.9670
   11.190    4.3005
   11.205    4.1776
   11.220    3.9846
   11.235    4.0021
   11.250    3.6335
   11.265    3.9670
   11.280    4.1776
   11.295    4.0899
   11.310    3.9143
   11.325    4.0372
   11.340    4.3707
   11.355    4.2478
   11.370    4.1601
   11.385    4.1074
   11.400    4.1425
   11.415    4.2127
   11.430    4.4760
   11.445    4.2654
   11.460    4.5463
   11.475    4.8271
   11.490    4.5814
   11.505    4.9324
   11.520    5.0377
   11.535    5.1080
   11.550    5.3010
   11.565    6.0734
   11.580    5.8627
   11.595    6.2138
   11.610    6.8457
   11.625    7.4952
   11.640    8.6010
   11.655    9.4260
   11.670   10.1632
   11.685    9.8297
   11.700   10.5143
   11.715    9.7420
   11.730    8.1797
   11.745    6.7930
   11.760    5.8978
   11.775    4.8622
   11.790    3.9846
   11.805    3.6862
   11.820    3.8792
   11.835    3.6862
   11.850    3.6862
   11.865    3.7564
   11.880    3.5282
   11.895    4.0723
   11.910    3.9319
   11.925    3.9319
   11.940    3.7388
   11.955    3.4755
   11.970    3.5984
   11.985    3.9494
   12.000    3.6510
   12.015    3.6335
   12.030    3.7739
   12.045    4.2127
   12.060    4.0021
   12.075    3.4755
   12.090    3.5984
   12.105    3.8792
   12.120    3.6862
   12.135    4.0899
   12.150    4.1601
   12.165    4.0372
   12.180    4.0021
   12.195    4.0899
   12.210    4.5111
   12.225    4.0548
   12.240    4.0723
   12.255    4.1952
   12.270    4.4585
   12.285    4.6691
   12.300    4.4234
   12.315    4.8271
   12.330    5.1957
   12.345    5.0377
   12.360    4.4936
   12.375    4.4936
   12.390    4.1074
   12.405    4.1425
   12.420    3.9143
   12.435    3.8266
   12.450    3.9494
   12.465    3.5457
   12.480    3.6335
   12.495    4.2478
   12.510    3.6510
   12.525    4.0899
   12.540    3.7915
   12.555    4.1074
   12.570    3.7388
   12.585    4.1425
   12.600    3.7739
   12.615    4.1601
   12.630    3.9670
   12.645    4.1074
   12.660    3.6686
   12.675    3.7037
   12.690    4.0021
   12.705    3.9670
   12.720    3.8792
   12.735    3.9143
   12.750    4.2830
   12.765    4.5463
   12.780    4.0197
   12.795    4.8271
   12.810    4.9324
   12.825    5.1606
   12.840    5.2308
   12.855    6.0558
   12.870    6.1260
   12.885    6.3893
   12.900    7.2319
   12.915    7.4776
   12.930    7.9340
   12.945    8.0920
   12.960    7.9867
   12.975    6.8106
   12.990    6.2489
   13.005    5.0026
   13.020    4.6516
   13.035    4.7218
   13.050    3.7739
   13.065    3.6862
   13.080    3.6862
   13.095    3.7213
   13.110    3.5984
   13.125    3.7739
   13.140    3.9670
   13.155    4.0021
   13.170    3.8441
   13.185    4.0723
   13.200    3.5984
   13.215    3.5984
   13.230    3.8266
   13.245    3.9143
   13.260    3.6686
   13.275    3.8266
   13.290    3.7739
   13.305    3.8968
   13.320    3.8266
   13.335    4.0021
   13.350    3.8792
   13.365    4.4585
   13.380    4.2830
   13.395    4.2127
   13.410    4.0723
   13.425    4.6691
   13.440    4.8095
   13.455    4.4760
   13.470    4.5111
   13.485    5.6345
   13.500    5.3888
   13.515    5.1782
   13.530    5.1957
   13.545    5.1080
   13.560    4.7393
   13.575    4.5111
   13.590    4.4760
   13.605    4.2654
   13.620    4.1776
   13.635    3.6510
   13.650    3.7739
   13.665    3.9494
   13.680    3.5457
   13.695    3.4931
   13.710    3.9494
   13.725    4.0723
   13.740    3.7915
   13.755    3.8792
   13.770    3.8792
   13.785    3.8266
   13.800    3.2824
   13.815    3.9494
   13.830    4.2303
   13.845    4.1601
   13.860    3.8617
   13.875    3.9846
   13.890    3.9846
   13.905    4.6691
   13.920    4.3532
   13.935    4.4936
   13.950    4.5989
   13.965    5.0202
   13.980    4.6516
   13.995    5.0553
   14.010    5.5292
   14.025    6.4595
   14.040    7.0739
   14.055    7.1968
   14.070    7.6180
   14.085    7.9164
   14.100    7.1617
   14.115    6.6702
   14.130    5.4941
   14.145    5.3361
   14.160    4.6165
   14.175    4.1074
   14.190    4.0021
   14.205    3.9670
   14.220    3.9319
   14.235    3.6159
   14.250    3.9143
   14.265    3.7388
   14.280    4.1425
   14.295    3.9319
   14.310    3.5106
   14.325    3.7915
   14.340    3.7037
   14.355    3.8441
   14.370    3.7388
   14.385    3.6686
   14.400    3.7388
   14.415    3.6159
   14.430    3.3000
   14.445    3.5808
   14.460    3.8617
   14.475    3.4755
   14.490    3.7037
   14.505    3.5984
   14.520    3.5457
   14.535    3.3877
   14.550    3.5282
   14.565    3.4404
   14.580    3.4404
   14.595    3.3702
   14.610    3.3877
   14.625    3.4053
   14.640    3.3877
   14.655    3.6159
   14.670    3.1245
   14.685    3.4580
   14.700    3.9143
   14.715    3.4404
   14.730    3.7564
   14.745    3.6686
   14.760    3.8266
   14.775    3.6510
   14.790    3.7564
   14.805    3.4053
   14.820    3.4580
   14.835    3.7564
   14.850    3.5633
   14.865    3.6159
   14.880    3.3877
   14.895    3.6510
   14.910    3.3351
   14.925    3.7037
   14.940    3.8266
   14.955    3.9846
   14.970    3.8792
   14.985    3.7739
   15.000    4.0899
   15.015    3.9494
   15.030    3.5457
   15.045    4.0021
   15.060    3.8792
   15.075    3.5106
   15.090    4.5989
   15.105    4.1425
   15.120    4.0021
   15.135    4.3707
   15.150    4.4585
   15.165    4.1425
   15.180    4.1952
   15.195    3.9319
   15.210    3.8792
   15.225    3.2824
   15.240    3.4404
   15.255    3.5282
   15.270    3.7915
   15.285    3.8266
   15.300    3.4053
   15.315    3.5633
   15.330    3.5808
   15.345    3.4404
   15.360    3.5808
   15.375    3.7915
   15.390    3.8090
   15.405    3.6159
   15.420    3.3877
   15.435    3.7388
   15.450    3.6862
   15.465    3.5633
   15.480    3.4404
   15.495    3.5457
   15.510    3.5457
   15.525    3.5282
   15.540    3.5808
   15.555    3.4404
   15.570    3.7564
   15.585    3.6159
   15.600    3.5457
   15.615    4.0197
   15.630    4.2127
   15.645    3.6862
   15.660    4.0899
   15.675    3.8617
   15.690    3.6510
   15.705    3.6510
   15.720    3.5808
   15.735    3.4404
   15.750    3.7037
   15.765    3.7915
   15.780    3.6159
   15.795    3.7388
   15.810    3.7213
   15.825    3.9670
   15.840    3.3877
   15.855    3.7564
   15.870    3.4580
   15.885    3.6510
   15.900    3.7037
   15.915    3.4580
   15.930    3.3877
   15.945    3.6686
   15.960    4.2830
   15.975    3.7213
   15.990    3.8090
   16.005    3.8090
   16.020    4.2127
   16.035    4.3181
   16.050    4.1425
   16.065    3.8968
   16.080    4.4058
   16.095    4.5638
   16.110    4.0197
   16.125    4.1776
   16.140    4.0548
   16.155    3.8968
   16.170    3.8792
   16.185    4.0021
   16.200    3.8968
   16.215    3.9494
   16.230    3.3877
   16.245    3.4580
   16.260    3.5984
   16.275    3.7037
   16.290    3.6686
   16.305    3.8266
   16.320    3.1947
   16.335    3.4229
   16.350    3.7037
   16.365    3.4404
   16.380    3.6159
   16.395    3.6862
   16.410    3.6862
   16.425    3.8266
   16.440    3.8968
   16.455    3.7915
   16.470    3.9670
   16.485    3.5106
   16.500    4.1074
   16.515    3.8792
   16.530    4.0372
   16.545    4.2478
   16.560    4.1250
   16.575    4.1425
   16.590    4.6340
   16.605    4.4409
   16.620    4.8622
   16.635    4.6516
   16.650    4.0899
   16.665    3.7739
   16.680    4.0021
   16.695    3.8090
   16.710    3.9846
   16.725    3.7388
   16.740    3.7213
   16.755    3.5633
   16.770    3.9846
   16.785    4.1250
   16.800    3.9846
   16.815    4.4409
   16.830    4.0197
   16.845    3.8617
   16.860    3.8090
   16.875    4.0197
   16.890    4.4936
   16.905    3.9143
   16.920    4.1074
   16.935    4.5989
   16.950    4.7042
   16.965    4.7393
   16.980    5.3361
   16.995    5.8803
   17.010    6.2138
   17.025    6.5649
   17.040    7.0563
   17.055    6.8457
   17.070    6.6877
   17.085    6.2138
   17.100    5.6697
   17.115    5.0553
   17.130    4.4585
   17.145    4.2830
   17.160    4.1074
   17.175    3.5984
   17.190    3.8441
   17.205    3.6862
   17.220    3.7564
   17.235    3.6510
   17.250    3.5106
   17.265    3.4580
   17.280    3.6862
   17.295    3.7037
   17.310    3.8617
   17.325    4.0723
   17.340    3.6159
   17.355    3.5457
   17.370    3.9143
   17.385    3.8266
   17.400    3.7037
   17.415    4.0723
   17.430    3.8441
   17.445    4.0723
   17.460    4.1601
   17.475    4.5638
   17.490    4.2654
   17.505    4.5814
   17.520    4.2127
   17.535    4.2478
   17.550    4.1952
   17.565    4.0548
   17.580    3.8968
   17.595    4.0197
   17.610    4.1952
   17.625    3.9670
   17.640    3.8266
   17.655    3.7564
   17.670    3.5808
   17.685    3.5808
   17.700    3.7388
   17.715    3.4931
   17.730    3.1420
   17.745    3.7739
   17.760    3.6159
   17.775    3.7037
   17.790    3.6335
   17.805    3.8090
   17.820    4.0021
   17.835    3.8617
   17.850    3.8441
   17.865    4.1425
   17.880    3.9846
   17.895    4.0197
   17.910    4.0548
   17.925    4.1601
   17.940    4.3883
   17.955    4.2478
   17.970    4.1601
   17.985    4.4058
   18.000    4.3005
   18.015    4.0723
   18.030    4.0899
   18.045    3.9319
   18.060    4.0548
   18.075    3.7739
   18.090    3.5282
   18.105    3.9143
   18.120    3.5106
   18.135    3.2824
   18.150    3.4404
   18.165    3.6159
   18.180    3.8090
   18.195    3.5282
   18.210    3.5457
   18.225    3.8441
   18.240    3.8968
   18.255    3.8968
   18.270    3.8441
   18.285    3.8441
   18.300    3.9846
   18.315    4.3181
   18.330    4.1250
   18.345    3.9143
   18.360    4.2830
   18.375    4.2127
   18.390    4.4585
   18.405    4.2654
   18.420    4.3181
   18.435    4.1952
   18.450    3.6686
   18.465    3.5633
   18.480    3.7037
   18.495    3.7388
   18.510    3.7037
   18.525    3.7213
   18.540    3.5457
   18.555    3.8617
   18.570    3.5984
   18.585    3.5106
   18.600    3.5106
   18.615    3.8266
   18.630    3.5106
   18.645    3.7213
   18.660    3.7388
   18.675    3.6159
   18.690    3.6686
   18.705    3.6335
   18.720    3.7037
   18.735    3.6862
   18.750    3.7915
   18.765    3.9494
   18.780    3.7915
   18.795    4.1250
   18.810    3.8968
   18.825    3.7388
   18.840    4.0197
   18.855    3.7739
   18.870    3.7388
   18.885    4.1250
   18.900    3.8441
   18.915    3.6510
   18.930    3.4755
   18.945    3.8266
   18.960    3.9319
   18.975    3.8792
   18.990    3.4755
   19.005    3.5984
   19.020    3.4931
   19.035    3.3175
   19.050    3.7388
   19.065    3.8090
   19.080    3.7388
   19.095    3.8266
   19.110    3.6862
   19.125    3.4229
   19.140    3.4580
   19.155    3.3175
   19.170    3.4404
   19.185    3.7564
   19.200    3.9143
   19.215    3.6686
   19.230    3.6159
   19.245    3.7388
   19.260    3.2824
   19.275    3.5633
   19.290    3.4931
   19.305    3.6159
   19.320    3.8266
   19.335    3.9670
   19.350    3.1947
   19.365    3.5282
   19.380    3.7213
   19.395    3.6862
   19.410    3.7213
   19.425    3.6510
   19.440    3.9670
   19.455    3.7213
   19.470    4.1250
   19.485    4.0548
   19.500    3.7915
   19.515    4.1952
   19.530    4.3707
   19.545    4.2830
   19.560    4.2478
   19.575    4.4409
   19.590    4.3181
   19.605    4.6867
   19.620    4.3707
   19.635    4.2303
   19.650    3.9319
   19.665    4.4409
   19.680    3.8266
   19.695    3.7037
   19.710    3.5808
   19.725    3.5633
   19.740    3.7037
   19.755    3.8792
   19.770    3.9143
   19.785    3.5633
   19.800    3.7564
   19.815    3.6335
   19.830    3.5633
   19.845    3.6862
   19.860    4.0372
   19.875    3.7037
   19.890    3.5106
   19.905    3.6862
   19.920    3.7037
   19.935    3.7564
   19.950    4.2303
   19.965    4.0548
   19.980    3.7739
   19.995    3.7213
   20.010    3.4053
   20.025    3.8266
   20.040    3.6159
   20.055    3.5633
   20.070    3.5282
   20.085    3.4053
   20.100    3.2473
   20.115    3.3351
   20.130    3.7915
   20.145    4.1074
   20.160    3.6510
   20.175    3.3526
   20.190    3.5984
   20.205    3.7739
   20.220    3.9494
   20.235    4.0372
   20.250    4.1425
   20.265    4.5287
   20.280    4.2478
   20.295    4.5814
   20.310    5.0202
   20.325    5.0728
   20.340    5.4590
   20.355    5.7574
   20.370    5.9856
   20.385    5.8452
   20.400    5.9154
   20.415    5.5994
   20.430    4.9324
   20.445    4.5287
   20.460    4.5111
   20.475    4.1952
   20.490    3.7037
   20.505    4.0021
   20.520    3.5984
   20.535    3.4404
   20.550    3.7564
   20.565    3.8792
   20.580    4.3356
   20.595    3.6159
   20.610    3.5282
   20.625    3.7213
   20.640    4.1776
   20.655    3.3000
   20.670    3.4229
   20.685    3.8617
   20.700    3.7915
   20.715    3.6510
   20.730    3.8266
   20.745    4.2303
   20.760    3.7564
   20.775    3.5984
   20.790    3.5282
   20.805    3.5282
   20.820    3.4931
   20.835    3.6159
   20.850    3.6159
   20.865    3.2298
   20.880    3.5984
   20.895    3.8617
   20.910    3.4580
   20.925    3.7739
   20.940    3.9494
   20.955    3.7388
   20.970    3.7564
   20.985    3.3000
   21.000    3.8617
   21.015    4.2303
   21.030    3.6335
   21.045    3.8090
   21.060    3.6159
   21.075    3.4229
   21.090    3.6686
   21.105    4.1074
   21.120    3.9846
   21.135    3.7388
   21.150    3.4404
   21.165    3.5808
   21.180    4.2654
   21.195    3.5282
   21.210    3.5282
   21.225    3.7739
   21.240    3.6686
   21.255    3.8090
   21.270    3.8266
   21.285    3.4404
   21.300    3.9670
   21.315    3.8617
   21.330    3.7388
   21.345    3.5633
   21.360    3.3702
   21.375    3.5633
   21.390    3.8266
   21.405    4.0197
   21.420    3.7037
   21.435    3.4931
   21.450    3.4931
   21.465    3.4229
   21.480    3.5282
   21.495    3.7739
   21.510    3.7037
   21.525    3.6159
   21.540    3.4580
   21.555    3.8617
   21.570    3.3702
   21.585    3.6335
   21.600    4.0021
   21.615    3.4053
   21.630    3.9494
   21.645    3.7564
   21.660    3.9846
   21.675    3.7213
   21.690    3.4931
   21.705    3.7037
   21.720    4.0021
   21.735    3.7213
   21.750    3.9494
   21.765    3.9494
   21.780    3.7915
   21.795    4.1425
   21.810    4.2303
   21.825    4.5111
   21.840    4.5463
   21.855    4.0372
   21.870    4.6165
   21.885    4.5463
   21.900    4.0372
   21.915    4.0372
   21.930    4.0372
   21.945    3.7739
   21.960    4.0372
   21.975    3.6335
   21.990    3.4755
   22.005    3.7564
   22.020    3.7037
   22.035    3.7037
   22.050    3.6159
   22.065    3.8266
   22.080    3.6510
   22.095    4.1601
   22.110    4.2478
   22.125    3.8968
   22.140    4.3532
   22.155    4.3883
   22.170    4.3532
   22.185    4.1250
   22.200    4.3181
   22.215    4.3883
   22.230    4.2478
   22.245    3.7213
   22.260    4.0372
   22.275    4.0372
   22.290    3.8617
   22.305    3.4931
   22.320    3.6862
   22.335    4.0899
   22.350    3.9143
   22.365    3.9319
   22.380    4.0899
   22.395    4.0723
   22.410    4.0021
   22.425    4.0899
   22.440    3.8617
   22.455    4.2654
   22.470    5.0377
   22.485    5.1080
   22.500    5.7223
   22.515    5.9505
   22.530    6.5298
   22.545    5.9856
   22.560    6.1787
   22.575    6.2665
   22.590    6.7228
   22.605    5.3010
   22.620    5.7399
   22.635    5.0026
   22.650    4.3356
   22.665    4.0021
   22.680    3.9494
   22.695    4.2654
   22.710    4.1250
   22.725    4.2303
   22.740    4.0723
   22.755    4.4760
   22.770    4.4234
   22.785    4.1952
   22.800    4.2127
   22.815    4.6691
   22.830    5.3010
   22.845    5.4766
   22.860    5.4239
   22.875    5.2484
   22.890    5.4766
   22.905    6.1085
   22.920    6.3016
   22.935    6.1085
   22.950    5.3010
   22.965    4.8973
   22.980    4.6516
   22.995    4.3005
   23.010    4.3181
   23.025    4.1074
   23.040    3.6862
   23.055    3.7388
   23.070    3.9494
   23.085    3.9143
   23.100    3.9319
   23.115    3.9670
   23.130    3.7739
   23.145    3.8968
   23.160    3.7739
   23.175    3.9494
   23.190    4.1952
   23.205    4.3883
   23.220    4.4936
   23.235    4.5638
   23.250    4.1601
   23.265    4.6165
   23.280    4.1952
   23.295    4.1425
   23.310    4.2654
   23.325    3.9670
   23.340    4.2303
   23.355    3.7915
   23.370    3.8792
   23.385    3.8792
   23.400    3.7388
   23.415    3.5984
   23.430    3.6862
   23.445    3.6335
   23.460    3.3877
   23.475    3.4053
   23.490    3.6510
   23.505    3.9670
   23.520    4.0548
   23.535    4.0021
   23.550    4.0372
   23.565    4.1250
   23.580    3.9319
   23.595    3.7739
   23.610    3.5808
   23.625    3.4053
   23.640    3.5984
   23.655    3.9670
   23.670    3.9494
   23.685    3.5106
   23.700    3.6510
   23.715    4.0372
   23.730    3.7037
   23.745    3.6686
   23.760    3.8266
   23.775    3.7564
   23.790    3.5984
   23.805    3.5633
   23.820    3.9319
   23.835    3.9846
   23.850    3.9494
   23.865    4.0899
   23.880    4.3181
   23.895    4.3707
   23.910    4.6516
   23.925    4.1952
   23.940    4.1250
   23.955    3.9494
   23.970    3.5984
   23.985    3.7739
   24.000    3.9846
   24.015    3.7739
   24.030    3.7564
   24.045    3.7037
   24.060    3.5457
   24.075    3.9319
   24.090    3.5808
   24.105    3.8090
   24.120    3.7037
   24.135    3.5282
   24.150    3.7213
   24.165    3.9143
   24.180    3.6686
   24.195    3.8792
   24.210    4.0021
   24.225    4.2127
   24.240    3.7388
   24.255    4.1250
   24.270    3.8266
   24.285    3.7213
   24.300    3.9143
   24.315    3.9670
   24.330    3.7564
   24.345    3.6335
   24.360    3.5808
   24.375    3.5984
   24.390    3.8792
   24.405    3.5984
   24.420    3.5808
   24.435    3.5457
   24.450    3.5282
   24.465    3.8441
   24.480    4.0197
   24.495    3.8968
   24.510    3.8617
   24.525    3.8792
   24.540    4.0021
   24.555    4.0197
   24.570    3.7037
   24.585    4.0021
   24.600    3.9319
   24.615    3.4755
   24.630    3.6159
   24.645    3.7037
   24.660    3.5633
   24.675    3.4053
   24.690    3.4229
   24.705    3.6335
   24.720    3.3351
   24.735    3.3351
   24.750    3.9319
   24.765    3.8090
   24.780    3.6862
   24.795    3.7564
   24.810    3.4755
   24.825    3.4755
   24.840    3.4229
   24.855    3.4755
   24.870    4.0899
   24.885    3.7564
   24.900    3.8266
   24.915    4.0372
   24.930    3.9143
   24.945    3.7915
   24.960    3.5457
   24.975    3.8617
   24.990    3.7388
   25.005    3.4404
   25.020    3.3175
   25.035    3.3702
   25.050    3.3877
   25.065    3.4931
   25.080    4.0548
   25.095    3.5106
   25.110    3.7388
   25.125    3.7564
   25.140    4.1250
   25.155    3.9494
   25.170    3.8968
   25.185    4.3356
   25.200    4.0899
   25.215    3.8090
   25.230    3.5457
   25.245    3.3351
   25.260    4.0021
   25.275    3.7388
   25.290    3.7915
   25.305    3.7915
   25.320    4.0723
   25.335    4.3356
   25.350    3.7213
   25.365    3.6335
   25.380    3.7037
   25.395    3.5106
   25.410    3.5457
   25.425    3.4931
   25.440    3.7213
   25.455    3.5984
   25.470    3.9319
   25.485    4.1776
   25.500    4.0197
   25.515    4.2478
   25.530    4.2127
   25.545    3.8617
   25.560    3.9494
   25.575    3.5633
   25.590    3.7213
   25.605    3.6510
   25.620    3.3175
   25.635    3.4931
   25.650    3.8441
   25.665    3.5106
   25.680    3.4404
   25.695    4.0372
   25.710    4.0723
   25.725    4.4760
   25.740    4.6691
   25.755    5.0026
   25.770    5.1957
   25.785    4.9324
   25.800    5.0026
   25.815    5.3537
   25.830    5.2484
   25.845    4.7218
   25.860    4.8973
   25.875    4.8271
   25.890    4.5287
   25.905    4.3532
   25.920    3.9319
   25.935    4.0021
   25.950    3.6159
   25.965    3.6686
   25.980    3.4053
   25.995    3.5457
   26.010    3.5282
   26.025    3.6510
   26.040    3.8090
   26.055    3.4755
   26.070    3.5984
   26.085    3.7037
   26.100    3.8617
   26.115    3.6862
   26.130    3.6159
   26.145    3.5808
   26.160    3.7388
   26.175    4.0723
   26.190    3.5282
   26.205    3.3526
   26.220    3.1947
   26.235    3.6686
   26.250    3.3175
   26.265    3.3526
   26.280    3.6862
   26.295    3.9846
   26.310    3.6862
   26.325    3.9319
   26.340    3.6686
   26.355    3.5282
   26.370    3.7388
   26.385    4.1250
   26.400    4.5638
   26.415    4.2127
   26.430    3.9494
   26.445    4.1425
   26.460    4.3707
   26.475    4.0899
   26.490    3.7037
   26.505    3.8090
   26.520    3.7037
   26.535    3.9846
   26.550    3.6510
   26.565    3.4580
   26.580    3.0542
   26.595    3.3877
   26.610    3.7213
   26.625    3.5282
   26.640    3.5984
   26.655    3.8441
   26.670    3.6862
   26.685    3.3175
   26.700    3.4229
   26.715    3.4931
   26.730    3.3175
   26.745    3.3526
   26.760    3.4404
   26.775    3.5808
   26.790    3.6510
   26.805    3.3702
   26.820    3.3175
   26.835    3.3877
   26.850    3.4053
   26.865    3.3000
   26.880    3.7388
   26.895    3.7213
   26.910    3.3877
   26.925    3.5633
   26.940    3.4755
   26.955    3.8266
   26.970    4.1074
   26.985    4.1250
   27.000    3.9143
   27.015    4.0548
   27.030    4.1601
   27.045    4.4058
   27.060    4.3181
   27.075    4.0723
   27.090    3.7037
   27.105    3.5633
   27.120    3.7037
   27.135    3.1771
   27.150    3.4580
   27.165    3.3000
   27.180    3.4053
   27.195    3.5633
   27.210    3.2824
   27.225    3.4931
   27.240    3.5457
   27.255    3.3526
   27.270    3.4580
   27.285    3.2824
   27.300    3.3526
   27.315    3.4229
   27.330    3.6510
   27.345    3.7213
   27.360    3.7388
   27.375    3.4580
   27.390    3.5106
   27.405    3.6510
   27.420    3.0718
   27.435    3.5282
   27.450    3.3175
   27.465    3.4053
   27.480    3.4580
   27.495    3.6335
   27.510    3.9143
   27.525    4.3005
   27.540    3.8441
   27.555    3.7213
   27.570    3.4053
   27.585    3.7388
   27.600    3.9846
   27.615    3.8090
   27.630    3.7388
   27.645    3.7037
   27.660    3.7564
   27.675    3.7915
   27.690    3.9846
   27.705    3.5106
   27.720    3.4404
   27.735    3.4053
   27.750    3.1245
   27.765    3.4229
   27.780    3.5808
   27.795    3.4580
   27.810    3.1947
   27.825    3.5457
   27.840    3.5633
   27.855    3.6335
   27.870    3.6510
   27.885    3.4580
   27.900    3.4229
   27.915    3.7388
   27.930    3.4931
   27.945    3.8266
   27.960    3.8090
   27.975    4.0021
   27.990    3.5984
   28.005    3.6686
   28.020    3.5808
   28.035    3.5106
   28.050    3.4580
   28.065    4.0372
   28.080    4.1250
   28.095    3.9319
   28.110    3.8617
   28.125    4.2303
   28.140    4.3005
   28.155    4.5814
   28.170    4.4936
   28.185    4.1776
   28.200    4.2654
   28.215    3.7564
   28.230    4.2830
   28.245    3.8090
   28.260    3.7388
   28.275    3.3351
   28.290    3.7739
   28.305    3.5984
   28.320    3.2122
   28.335    3.5808
   28.350    3.8441
   28.365    3.6159
   28.380    3.6159
   28.395    3.5633
   28.410    3.8617
   28.425    4.1952
   28.440    3.8617
   28.455    3.7915
   28.470    4.1425
   28.485    4.0899
   28.500    3.9846
   28.515    3.9143
   28.530    3.6686
   28.545    3.4580
   28.560    3.5808
   28.575    3.3175
   28.590    3.6862
   28.605    3.5808
   28.620    3.4404
   28.635    3.4229
   28.650    3.6335
   28.665    3.4404
   28.680    3.4755
   28.695    3.4229
   28.710    3.8441
   28.725    3.3702
   28.740    3.2122
   28.755    3.2473
   28.770    3.3351
   28.785    3.3877
   28.800    3.3000
   28.815    3.3175
   28.830    3.4931
   28.845    3.3175
   28.860    3.6510
   28.875    3.1420
   28.890    3.1947
   28.905    3.0893
   28.920    3.5457
   28.935    3.5808
   28.950    3.3877
   28.965    3.8266
   28.980    3.6159
   28.995    3.6686
   29.010    3.7213
   29.025    3.7739
   29.040    3.7915
   29.055    3.5984
   29.070    3.4755
   29.085    3.1771
   29.100    3.4053
   29.115    3.3702
   29.130    3.5106
   29.145    3.5106
   29.160    3.1771
   29.175    3.4053
   29.190    3.7564
   29.205    3.8968
   29.220    3.4053
   29.235    3.6686
   29.250    3.8792
   29.265    3.5984
   29.280    3.5633
   29.295    3.7564
   29.310    3.9670
   29.325    3.5808
   29.340    3.8266
   29.355    3.9494
   29.370    3.6159
   29.385    3.8090
   29.400    3.5457
   29.415    3.4755
   29.430    3.5106
   29.445    3.4053
   29.460    3.4053
   29.475    3.5808
   29.490    3.4053
   29.505    3.1771
   29.520    3.3702
   29.535    3.5106
   29.550    3.4580
   29.565    3.5633
   29.580    3.2824
   29.595    3.3702
   29.610    3.8441
   29.625    3.4931
   29.640    3.3351
   29.655    3.2122
   29.670    3.6335
   29.685    3.2824
   29.700    3.4404
   29.715    3.5633
   29.730    3.2298
   29.745    3.6510
   29.760    3.5106
   29.775    3.2473
   29.790    3.3351
   29.805    3.4404
   29.820    3.6335
   29.835    3.4053
   29.850    3.6686
   29.865    3.5282
   29.880    3.5457
   29.895    3.2473
   29.910    3.4755
   29.925    3.3877
   29.940    3.1245
   29.955    3.3702
   29.970    3.3351
   29.985    3.4755
   30.000    3.2473
   30.015    3.4755
   30.030    3.2122
   30.045    3.4229
   30.060    3.3175
   30.075    3.1947
   30.090    3.7564
   30.105    3.2824
   30.120    3.1596
   30.135    3.3000
   30.150    3.8266
   30.165    3.8617
   30.180    3.3702
   30.195    3.1245
   30.210    3.6510
   30.225    3.1420
   30.240    2.9840
   30.255    2.9665
   30.270    3.3877
   30.285    3.6335
   30.300    3.3702
   30.315    3.5457
   30.330    3.3000
   30.345    3.1420
   30.360    3.3000
   30.375    3.4404
   30.390    3.1069
   30.405    3.3000
   30.420    3.2473
   30.435    3.4053
   30.450    3.3000
   30.465    3.1771
   30.480    3.4580
   30.495    3.1420
   30.510    3.5808
   30.525    3.2824
   30.540    3.7213
   30.555    3.8266
   30.570    3.4931
   30.585    3.5106
   30.600    3.3351
   30.615    3.5282
   30.630    3.7564
   30.645    3.3000
   30.660    3.2824
   30.675    3.6335
   30.690    3.7739
   30.705    3.3351
   30.720    3.5282
   30.735    3.5106
   30.750    3.4229
   30.765    3.0718
   30.780    3.2649
   30.795    2.9314
   30.810    3.3175
   30.825    3.4053
   30.840    3.1771
   30.855    3.3877
   30.870    3.2473
   30.885    2.9665
   30.900    3.4931
   30.915    3.5282
   30.930    2.9665
   30.945    3.0016
   30.960    3.2298
   30.975    3.2122
   30.990    3.3526
   31.005    3.0718
   31.020    2.7032
   31.035    3.0367
   31.050    3.1596
   31.065    2.8436
   31.080    3.1596
   31.095    2.9840
   31.110    3.0542
   31.125    2.8436
   31.140    2.9489
   31.155    3.0367
   31.170    3.1771
   31.185    3.0367
   31.200    2.9489
   31.215    3.1596
   31.230    3.2824
   31.245    3.2649
   31.260    3.2824
   31.275    3.4755
   31.290    3.6510
   31.305    3.4580
   31.320    3.3877
   31.335    3.3175
   31.350    3.3000
   31.365    3.0191
   31.380    3.2298
   31.395    3.4053
   31.410    3.5457
   31.425    3.3351
   31.440    3.5106
   31.455    3.3877
   31.470    3.2649
   31.485    3.1947
   31.500    3.0542
   31.515    2.9665
   31.530    3.3175
   31.545    3.2824
   31.560    3.2298
   31.575    3.0893
   31.590    3.0367
   31.605    3.3175
   31.620    3.4580
   31.635    3.4229
   31.650    3.4580
   31.665    3.3351
   31.680    3.3526
   31.695    3.5106
   31.710    3.6335
   31.725    3.7564
   31.740    3.6159
   31.755    3.0367
   31.770    3.4755
   31.785    3.4580
   31.800    3.6862
   31.815    3.7739
   31.830    3.6159
   31.845    3.5808
   31.860    3.3175
   31.875    3.2473
   31.890    3.1771
   31.905    3.2473
   31.920    3.2473
   31.935    3.2473
   31.950    3.2122
   31.965    3.2298
   31.980    3.3000
   31.995    3.0367
   32.010    3.1947
   32.025    3.2649
   32.040    3.2824
   32.055    3.3351
   32.070    3.3175
   32.085    3.0191
   32.100    3.0191
   32.115    2.7734
   32.130    3.1771
   32.145    3.1420
   32.160    3.0718
   32.175    3.0016
   32.190    3.2824
   32.205    3.4580
   32.220    3.2649
   32.235    3.2122
   32.250    3.0893
   32.265    2.6154
   32.280    2.7032
   32.295    3.0718
   32.310    2.8085
   32.325    3.2122
   32.340    3.0367
   32.355    2.8436
   32.370    3.0191
   32.385    3.1420
   32.400    2.7383
   32.415    3.1596
   32.430    3.0016
   32.445    3.0542
   32.460    2.9665
   32.475    3.0191
   32.490    2.9840
   32.505    3.3526
   32.520    3.1069
   32.535    3.3526
   32.550    3.2298
   32.565    3.0191
   32.580    3.1771
   32.595    3.0893
   32.610    2.8787
   32.625    3.1771
   32.640    3.5106
   32.655    3.1245
   32.670    3.0893
   32.685    3.1420
   32.700    3.2824
   32.715    2.9665
   32.730    2.8612
   32.745    3.2473
   32.760    3.1069
   32.775    3.0893
   32.790    3.5457
   32.805    3.0367
   32.820    3.1245
   32.835    3.2824
   32.850    3.3702
   32.865    3.0718
   32.880    3.7564
   32.895    3.1245
   32.910    3.2122
   32.925    3.2473
   32.940    3.3175
   32.955    3.1420
   32.970    2.9840
   32.985    3.3877
   33.000    2.8787
   33.015    3.2298
   33.030    3.4755
   33.045    3.4229
   33.060    3.1420
   33.075    3.2298
   33.090    2.9840
   33.105    3.2824
   33.120    2.7558
   33.135    3.1245
   33.150    2.8787
   33.165    2.7032
   33.180    2.9489
   33.195    3.0191
   33.210    3.1245
   33.225    3.1245
   33.240    3.1069
   33.255    3.1069
   33.270    2.9138
   33.285    2.9138
   33.300    3.0367
   33.315    2.8260
   33.330    3.0191
   33.345    2.9840
   33.360    3.0542
   33.375    3.0016
   33.390    3.0016
   33.405    3.1947
   33.420    3.2298
   33.435    2.9665
   33.450    2.8787
   33.465    3.1947
   33.480    2.6681
   33.495    3.3351
   33.510    2.8963
   33.525    2.5979
   33.540    2.8260
   33.555    2.9665
   33.570    3.1069
   33.585    3.6159
   33.600    3.3877
   33.615    3.4931
   33.630    3.2824
   33.645    2.8260
   33.660    2.6681
   33.675    3.2824
   33.690    2.9314
   33.705    3.0016
   33.720    2.9489
   33.735    3.5457
   33.750    3.4053
   33.765    3.1420
   33.780    3.1069
   33.795    3.2824
   33.810    3.2473
   33.825    3.2473
   33.840    3.1245
   33.855    3.3702
   33.870    3.4755
   33.885    3.4404
   33.900    3.4404
   33.915    3.2649
   33.930    2.8436
   33.945    3.3877
   33.960    3.1947
   33.975    3.4229
   33.990    3.3877
   34.005    3.2122
   34.020    3.2824
   34.035    2.9489
   34.050    3.0016
   34.065    2.9489
   34.080    3.2298
   34.095    2.8963
   34.110    2.8260
   34.125    2.8085
   34.140    2.8260
   34.155    2.9314
   34.170    3.3000
   34.185    3.0367
   34.200    3.0367
   34.215    2.6681
   34.230    2.9665
   34.245    3.1596
   34.260    2.7909
   34.275    3.1596
   34.290    2.9314
   34.305    2.9840
   34.320    2.9665
   34.335    3.3351
   34.350    3.0893
   34.365    3.1771
   34.380    2.7909
   34.395    3.0016
   34.410    2.8085
   34.425    3.0191
   34.440    3.0016
   34.455    2.9138
   34.470    2.9314
   34.485    2.9314
   34.500    3.3702
   34.515    3.1947
   34.530    2.7207
   34.545    2.7909
   34.560    2.6856
   34.575    2.6330
   34.590    2.8787
   34.605    2.7207
   34.620    2.7032
   34.635    3.1420
   34.650    3.1245
   34.665    3.0191
   34.680    2.9489
   34.695    3.1771
   34.710    2.5979
   34.725    2.8260
   34.740    2.7734
   34.755    2.6505
   34.770    2.7909
   34.785    3.1596
   34.800    3.1771
   34.815    3.3175
   34.830    3.3175
   34.845    3.0542
   34.860    3.4053
   34.875    3.1245
   34.890    3.0367
   34.905    2.8963
   34.920    2.8963
   34.935    2.6681
   34.950    2.8085
   34.965    2.7383
   34.980    2.9665
   34.995    3.0016
   35.010    3.1771
   35.025    3.1947
   35.040    2.8260
   35.055    2.6856
   35.070    2.6856
   35.085    2.7734
   35.100    2.5628
   35.115    2.7558
   35.130    3.0893
   35.145    3.0893
   35.160    2.8787
   35.175    2.9138
   35.190    2.8085
   35.205    2.8260
   35.220    3.0367
   35.235    2.9665
   35.250    2.7207
   35.265    2.9314
   35.280    2.6681
   35.295    2.6681
   35.310    2.4925
   35.325    2.8612
   35.340    2.8963
   35.355    2.6681
   35.370    2.9314
   35.385    2.6681
   35.400    2.8260
   35.415    3.0191
   35.430    2.7207
   35.445    2.7558
   35.460    3.0191
   35.475    2.8963
   35.490    2.7909
   35.505    3.0893
   35.520    2.9314
   35.535    2.8963
   35.550    2.7207
   35.565    3.0016
   35.580    3.2473
   35.595    3.4229
   35.610    3.0191
   35.625    2.8436
   35.640    2.7032
   35.655    2.4399
   35.670    3.0191
   35.685    2.9489
   35.700    2.9138
   35.715    3.0893
   35.730    2.9665
   35.745    2.8085
   35.760    2.8963
   35.775    2.6681
   35.790    2.6330
   35.805    2.8963
   35.820    2.8787
   35.835    2.5276
   35.850    2.7032
   35.865    2.8612
   35.880    2.7734
   35.895    2.9314
   35.910    2.5979
   35.925    2.9840
   35.940    2.8787
   35.955    2.8436
   35.970    2.8612
   35.985    2.9489
   36.000    2.7207
   36.015    2.8260
   36.030    2.8260
   36.045    2.9840
   36.060    2.9314
   36.075    3.0718
   36.090    2.9314
   36.105    2.7734
   36.120    3.1420
   36.135    2.8085
   36.150    2.8085
   36.165    2.5628
   36.180    2.7207
   36.195    2.4925
   36.210    2.9138
   36.225    2.8436
   36.240    2.9138
   36.255    2.7207
   36.270    2.7734
   36.285    2.8787
   36.300    2.9840
   36.315    3.0542
   36.330    2.6681
   36.345    2.5452
   36.360    2.7734
   36.375    2.6856
   36.390    2.6505
   36.405    2.6681
   36.420    2.7383
   36.435    2.5452
   36.450    2.5803
   36.465    2.9665
   36.480    2.8260
   36.495    2.5628
   36.510    2.5452
   36.525    2.6681
   36.540    2.6856
   36.555    2.6154
   36.570    2.6154
   36.585    2.5979
   36.600    2.4048
   36.615    2.7734
   36.630    2.8085
   36.645    2.8787
   36.660    2.7909
   36.675    2.4399
   36.690    2.8260
   36.705    2.8963
   36.720    2.6856
   36.735    2.7383
   36.750    2.7558
   36.765    2.8787
   36.780    2.8436
   36.795    2.4750
   36.810    2.5979
   36.825    2.5979
   36.840    2.9665
   36.855    2.7383
   36.870    2.4048
   36.885    2.1941
   36.900    2.2468
   36.915    2.8085
   36.930    2.9489
   36.945    2.5628
   36.960    2.4750
   36.975    2.5628
   36.990    2.4223
   37.005    2.6330
   37.020    2.7207
   37.035    2.9489
   37.050    2.8260
   37.065    2.9489
   37.080    2.9489
   37.095    3.1245
   37.110    2.9489
   37.125    2.8963
   37.140    2.7207
   37.155    3.0367
   37.170    2.9489
   37.185    2.7383
   37.200    2.5628
   37.215    2.8085
   37.230    2.7383
   37.245    2.6856
   37.260    2.6505
   37.275    2.5979
   37.290    2.4399
   37.305    2.7734
   37.320    2.3872
   37.335    2.6681
   37.350    2.7207
   37.365    2.8085
   37.380    2.8085
   37.395    2.7734
   37.410    2.4925
   37.425    2.5452
   37.440    2.6856
   37.455    2.5803
   37.470    2.6505
   37.485    2.5803
   37.500    2.7383
   37.515    2.8260
   37.530    2.5803
   37.545    2.9489
   37.560    2.6681
   37.575    2.6505
   37.590    2.9840
   37.605    2.6330
   37.620    2.5803
   37.635    2.5101
   37.650    2.7207
   37.665    2.7032
   37.680    2.7558
   37.695    2.7734
   37.710    2.3697
   37.725    2.9489
   37.740    2.9840
   37.755    2.7032
   37.770    2.6505
   37.785    2.6505
   37.800    2.7383
   37.815    2.4750
   37.830    2.6505
   37.845    2.8085
   37.860    2.6681
   37.875    2.7558
   37.890    2.7734
   37.905    2.8612
   37.920    3.1596
   37.935    2.7032
   37.950    2.8963
   37.965    2.6505
   37.980    2.7032
   37.995    2.6681
   38.010    2.6154
   38.025    2.6856
   38.040    3.1069
   38.055    2.4574
   38.070    2.7032
   38.085    2.8085
   38.100    2.4048
   38.115    2.7558
   38.130    2.7207
   38.145    2.4048
   38.160    2.5628
   38.175    2.2995
   38.190    2.7032
   38.205    2.6681
   38.220    2.8260
   38.235    2.7207
   38.250    2.6681
   38.265    2.5803
   38.280    2.7734
   38.295    2.7032
   38.310    2.2643
   38.325    2.5803
   38.340    2.7207
   38.355    2.6681
   38.370    2.6505
   38.385    2.8612
   38.400    2.6681
   38.415    2.7383
   38.430    2.7207
   38.445    2.9138
   38.460    2.5452
   38.475    2.4750
   38.490    2.7734
   38.505    3.0367
   38.520    2.9665
   38.535    2.5979
   38.550    2.5628
   38.565    2.9314
   38.580    2.8787
   38.595    2.8787
   38.610    2.4750
   38.625    2.3697
   38.640    2.5276
   38.655    2.6330
   38.670    2.4048
   38.685    2.4925
   38.700    2.6330
   38.715    2.6681
   38.730    2.7734
   38.745    2.6505
   38.760    2.5628
   38.775    2.7032
   38.790    2.4925
   38.805    2.7032
   38.820    2.4925
   38.835    2.7909
   38.850    2.6154
   38.865    2.5628
   38.880    2.7207
   38.895    2.7558
   38.910    2.7734
   38.925    2.7734
   38.940    2.4048
   38.955    2.6154
   38.970    2.7032
   38.985    2.5452
   39.000    2.5101
   39.015    2.5452
   39.030    2.4574
   39.045    2.5101
   39.060    2.7207
   39.075    2.7909
   39.090    2.7909
   39.105    2.6681
   39.120    2.3872
   39.135    2.4925
   39.150    2.5803
   39.165    2.6856
   39.180    2.4750
   39.195    2.3346
   39.210    2.8963
   39.225    2.9840
   39.240    2.9314
   39.255    2.7734
   39.270    2.4750
   39.285    2.4574
   39.300    2.4925
   39.315    2.6154
   39.330    2.9840
   39.345    2.8612
   39.360    2.5101
   39.375    2.5101
   39.390    2.5276
   39.405    2.5628
   39.420    2.2292
   39.435    2.4223
   39.450    2.7558
   39.465    2.5628
   39.480    2.4925
   39.495    2.5628
   39.510    2.7383
   39.525    2.4223
   39.540    2.6505
   39.555    3.1245
   39.570    3.2298
   39.585    2.7207
   39.600    2.9138
   39.615    2.9314
   39.630    2.9489
   39.645    2.5276
   39.660    2.3697
   39.675    2.5803
   39.690    2.9665
   39.705    2.8787
   39.720    2.7734
   39.735    2.6154
   39.750    2.7032
   39.765    2.5979
   39.780    2.7558
   39.795    2.8787
   39.810    2.8963
   39.825    2.7383
   39.840    3.0367
   39.855    2.5628
   39.870    2.8260
   39.885    2.5803
   39.900    2.7032
   39.915    2.3346
   39.930    2.7032
   39.945    2.8787
   39.960    2.7734
   39.975    2.6154
   39.990    2.5101
   40.005    2.5628
   40.020    2.6505
   40.035    2.4048
   40.050    2.5276
   40.065    2.7207
   40.080    2.6505
   40.095    2.6856
   40.110    2.7734
   40.125    2.5628
   40.140    2.7383
   40.155    2.6330
   40.170    2.8612
   40.185    2.8085
   40.200    2.7909
   40.215    2.7207
   40.230    2.8612
   40.245    2.4574
   40.260    2.7909
   40.275    2.7734
   40.290    2.5979
   40.305    2.7207
   40.320    3.0718
   40.335    2.8787
   40.350    2.3872
   40.365    2.7032
   40.380    3.1596
   40.395    2.8612
   40.410    2.7032
   40.425    2.8612
   40.440    3.0016
   40.455    2.8787
   40.470    2.7909
   40.485    2.8963
   40.500    2.8963
   40.515    3.0718
   40.530    3.2473
   40.545    3.0367
   40.560    2.7207
   40.575    2.4750
   40.590    2.9314
   40.605    2.6505
   40.620    2.8085
   40.635    2.7383
   40.650    2.4223
   40.665    2.5803
   40.680    2.3697
   40.695    2.2117
   40.710    2.5276
   40.725    2.5803
   40.740    2.5452
   40.755    2.4925
   40.770    2.4925
   40.785    2.4750
   40.800    2.5803
   40.815    2.5628
   40.830    2.6681
   40.845    3.1245
   40.860    2.5803
   40.875    2.8612
   40.890    2.7558
   40.905    2.6505
   40.920    2.5276
   40.935    2.5628
   40.950    2.9314
   40.965    2.6330
   40.980    2.5979
   40.995    2.7909
   41.010    2.6154
   41.025    2.5628
   41.040    2.4574
   41.055    2.3872
   41.070    2.4925
   41.085    2.3521
   41.100    2.4399
   41.115    2.1941
   41.130    2.3697
   41.145    2.5452
   41.160    2.5276
   41.175    2.7558
   41.190    2.6154
   41.205    2.6681
   41.220    2.9840
   41.235    2.3346
   41.250    2.5276
   41.265    2.6154
   41.280    2.5803
   41.295    2.6681
   41.310    2.5276
   41.325    2.3697
   41.340    2.6681
   41.355    3.0191
   41.370    3.0367
   41.385    2.6505
   41.400    2.6505
   41.415    2.5452
   41.430    2.5803
   41.445    2.9138
   41.460    2.6856
   41.475    2.8085
   41.490    2.4925
   41.505    2.6681
   41.520    2.5979
   41.535    2.4750
   41.550    2.3872
   41.565    2.9314
   41.580    2.5979
   41.595    2.5101
   41.610    2.6505
   41.625    2.5628
   41.640    2.8612
   41.655    2.6505
   41.670    2.9314
   41.685    2.5452
   41.700    2.4925
   41.715    2.6330
   41.730    2.6154
   41.745    2.2819
   41.760    2.4399
   41.775    2.6681
   41.790    2.4750
   41.805    2.5628
   41.820    2.2819
   41.835    2.7909
   41.850    2.9138
   41.865    2.5803
   41.880    2.3872
   41.895    2.2643
   41.910    2.3697
   41.925    2.6856
   41.940    2.6681
   41.955    2.6681
   41.970    2.5101
   41.985    2.7207
   42.000    2.4223
   42.015    2.3346
   42.030    2.3170
   42.045    2.5101
   42.060    2.7032
   42.075    2.7032
   42.090    2.6154
   42.105    2.7207
   42.120    2.6856
   42.135    2.6856
   42.150    2.4574
   42.165    2.4048
   42.180    2.2117
   42.195    2.4925
   42.210    2.8436
   42.225    2.9138
   42.240    2.7207
   42.255    2.4750
   42.270    2.6154
   42.285    2.4223
   42.300    2.5628
   42.315    2.4223
   42.330    2.4048
   42.345    2.5628
   42.360    2.9138
   42.375    2.7734
   42.390    2.6154
   42.405    2.7734
   42.420    2.5101
   42.435    2.2643
   42.450    2.7734
   42.465    2.8436
   42.480    2.6330
   42.495    2.8085
   42.510    2.7383
   42.525    2.3872
   42.540    2.7734
   42.555    2.5803
   42.570    2.5979
   42.585    2.4048
   42.600    2.7383
   42.615    2.6856
   42.630    2.7734
   42.645    2.2468
   42.660    2.6330
   42.675    2.9138
   42.690    2.5452
   42.705    2.6330
   42.720    2.4925
   42.735    2.6154
   42.750    2.7558
   42.765    2.7207
   42.780    2.5276
   42.795    2.7734
   42.810    2.5101
   42.825    2.6154
   42.840    2.8085
   42.855    2.4750
   42.870    2.4223
   42.885    2.3697
   42.900    2.5101
   42.915    2.5101
   42.930    2.6330
   42.945    2.7734
   42.960    2.6154
   42.975    2.3521
   42.990    2.6681
   43.005    2.4750
   43.020    2.2995
   43.035    2.4399
   43.050    2.5979
   43.065    2.4048
   43.080    2.6856
   43.095    2.7383
   43.110    2.5979
   43.125    2.6154
   43.140    2.6505
   43.155    2.5628
   43.170    2.3346
   43.185    2.6681
   43.200    2.4925
   43.215    2.8260
   43.230    2.8085
   43.245    2.7734
   43.260    2.7558
   43.275    3.0367
   43.290    2.7734
   43.305    2.9489
   43.320    2.7383
   43.335    2.9138
   43.350    3.0893
   43.365    2.7909
   43.380    2.8085
   43.395    2.5803
   43.410    2.5276
   43.425    2.4750
   43.440    2.4223
   43.455    2.3170
   43.470    2.6154
   43.485    2.4925
   43.500    2.1766
   43.515    2.8436
   43.530    2.4925
   43.545    2.5628
   43.560    2.5452
   43.575    2.7558
   43.590    2.9138
   43.605    2.7207
   43.620    2.7734
   43.635    2.5979
   43.650    2.2819
   43.665    2.2643
   43.680    2.7032
   43.695    2.5979
   43.710    2.4925
   43.725    2.3346
   43.740    2.4750
   43.755    2.7207
   43.770    2.7383
   43.785    2.9489
   43.800    2.7207
   43.815    2.7207
   43.830    2.5803
   43.845    2.4048
   43.860    2.2468
   43.875    2.3346
   43.890    2.6856
   43.905    2.7734
   43.920    2.3697
   43.935    2.4223
   43.950    2.6681
   43.965    2.4750
   43.980    2.3697
   43.995    2.8612
   44.010    2.8085
   44.025    2.7734
   44.040    2.8436
   44.055    2.4925
   44.070    2.5628
   44.085    2.8612
   44.100    2.7734
   44.115    2.4750
   44.130    2.5979
   44.145    2.6681
   44.160    2.6856
   44.175    2.5979
   44.190    2.3170
   44.205    2.5628
   44.220    2.5979
   44.235    2.6154
   44.250    2.4223
   44.265    2.6505
   44.280    2.4048
   44.295    2.5452
   44.310    2.7734
   44.325    2.6856
   44.340    2.5979
   44.355    2.6154
   44.370    2.6330
   44.385    2.5628
   44.400    2.5628
   44.415    2.3697
   44.430    2.8260
   44.445    2.5628
   44.460    2.5101
   44.475    2.6856
   44.490    2.4750
   44.505    2.7558
   44.520    2.8260
   44.535    2.3872
   44.550    2.9314
   44.565    2.5803
   44.580    2.4574
   44.595    2.4750
   44.610    2.4925
   44.625    2.4048
   44.640    2.4399
   44.655    2.7383
   44.670    2.6505
   44.685    2.4574
   44.700    2.3521
   44.715    2.7558
   44.730    2.5803
   44.745    2.5628
   44.760    2.5276
   44.775    2.5276
   44.790    2.9314
   44.805    2.9665
   44.820    2.4925
   44.835    2.5452
   44.850    2.2643
   44.865    2.2117
   44.880    2.8787
   44.895    2.6154
   44.910    2.6330
   44.925    2.5979
   44.940    2.3346
   44.955    2.5101
   44.970    2.5979
   44.985    2.5979
   45.000    2.7383
   45.015    2.5979
   45.030    2.5979
   45.045    2.3346
   45.060    2.5276
   45.075    2.2643
   45.090    2.0713
   45.105    2.4925
   45.120    2.4574
   45.135    2.6330
   45.150    2.7032
   45.165    2.4048
   45.180    2.4223
   45.195    2.7383
   45.210    2.4223
   45.225    2.7207
   45.240    2.5452
   45.255    2.7734
   45.270    2.5276
   45.285    2.7383
   45.300    2.7032
   45.315    2.7734
   45.330    2.6330
   45.345    2.7909
   45.360    2.2643
   45.375    2.5803
   45.390    2.5276
   45.405    2.5628
   45.420    2.6154
   45.435    2.3346
   45.450    2.3521
   45.465    2.5276
   45.480    2.6330
   45.495    2.6856
   45.510    2.1766
   45.525    2.4048
   45.540    2.3872
   45.555    2.6505
   45.570    2.4048
   45.585    2.4048
   45.600    2.5803
   45.615    2.6330
   45.630    2.7383
   45.645    2.5803
   45.660    2.8963
   45.675    2.4925
   45.690    2.2468
   45.705    2.5101
   45.720    2.5803
   45.735    2.5979
   45.750    2.7383
   45.765    2.7383
   45.780    2.7207
   45.795    2.6330
   45.810    2.2643
   45.825    2.4399
   45.840    2.6505
   45.855    2.3872
   45.870    2.5803
   45.885    2.4925
   45.900    2.4925
   45.915    2.2995
   45.930    2.2468
   45.945    2.3521
   45.960    2.0888
   45.975    2.1415
   45.990    2.4399
   46.005    2.2995
   46.020    2.3872
   46.035    2.1766
   46.050    2.3346
   46.065    2.1415
   46.080    2.3697
   46.095    2.4925
   46.110    2.4925
   46.125    2.7383
   46.140    2.4574
   46.155    2.3697
   46.170    2.5803
   46.185    2.6330
   46.200    2.5628
   46.215    2.6154
   46.230    2.6505
   46.245    2.8436
   46.260    2.4223
   46.275    2.5803
   46.290    2.5276
   46.305    2.5276
   46.320    2.5452
   46.335    2.3697
   46.350    2.6681
   46.365    2.5452
   46.380    2.3346
   46.395    2.6154
   46.410    2.3872
   46.425    2.4048
   46.440    2.4574
   46.455    2.4048
   46.470    2.2117
   46.485    2.3697
   46.500    2.6681
   46.515    2.3170
   46.530    2.4048
   46.545    2.4048
   46.560    2.1239
   46.575    2.3346
   46.590    2.2468
   46.605    2.2117
   46.620    2.4750
   46.635    2.7383
   46.650    2.5101
   46.665    2.5803
   46.680    2.7734
   46.695    2.7734
   46.710    2.5452
   46.725    2.6330
   46.740    2.4750
   46.755    2.3346
   46.770    2.3521
   46.785    2.3521
   46.800    2.2643
   46.815    2.7383
   46.830    2.7558
   46.845    2.6154
   46.860    2.4223
   46.875    2.7207
   46.890    2.5276
   46.905    2.5276
   46.920    2.3346
   46.935    2.2995
   46.950    2.5101
   46.965    2.4574
   46.980    2.2643
   46.995    2.4925
   47.010    2.6154
   47.025    2.5452
   47.040    2.2819
   47.055    2.4048
   47.070    2.3697
   47.085    2.2292
   47.100    2.5803
   47.115    2.5628
   47.130    2.5452
   47.145    2.6154
   47.160    2.3521
   47.175    2.6681
   47.190    2.5276
   47.205    2.4750
   47.220    2.6856
   47.235    2.6681
   47.250    2.8085
   47.265    2.4223
   47.280    2.7032
   47.295    2.4223
   47.310    2.4048
   47.325    2.3872
   47.340    2.5452
   47.355    2.6154
   47.370    2.4223
   47.385    2.4574
   47.400    2.4399
   47.415    2.4750
   47.430    2.2819
   47.445    2.6681
   47.460    2.5628
   47.475    2.4223
   47.490    2.1415
   47.505    2.1941
   47.520    2.3697
   47.535    2.5276
   47.550    2.5628
   47.565    2.5979
   47.580    2.6856
   47.595    2.6505
   47.610    2.6154
   47.625    2.5452
   47.640    2.3697
   47.655    2.3521
   47.670    2.4574
   47.685    2.2468
   47.700    2.5101
   47.715    2.3170
   47.730    2.7558
   47.745    1.9133
   47.760    2.3872
   47.775    2.2995
   47.790    2.4399
   47.805    2.6856
   47.820    2.6154
   47.835    2.2995
   47.850    2.2643
   47.865    2.4223
   47.880    2.6154
   47.895    2.4223
   47.910    2.3872
   47.925    2.3170
   47.940    2.4574
   47.955    2.3521
   47.970    2.1766
   47.985    2.3697
   48.000    2.3346
   48.015    2.4048
   48.030    2.4925
   48.045    2.5979
   48.060    2.7207
   48.075    2.4399
   48.090    2.5276
   48.105    2.6681
   48.120    2.5276
   48.135    2.5101
   48.150    2.3346
   48.165    2.5452
   48.180    2.2995
   48.195    2.2819
   48.210    2.5628
   48.225    2.5979
   48.240    2.4223
   48.255    2.6681
   48.270    2.4574
   48.285    2.5276
   48.300    2.6154
   48.315    2.1064
   48.330    2.5101
   48.345    2.0888
   48.360    2.4399
   48.375    2.3170
   48.390    2.4048
   48.405    2.8612
   48.420    2.5803
   48.435    2.5979
   48.450    2.4399
   48.465    2.6681
   48.480    2.5101
   48.495    2.3346
   48.510    2.6154
   48.525    2.9138
   48.540    2.5979
   48.555    2.5803
   48.570    2.7207
   48.585    2.4399
   48.600    2.4750
   48.615    2.4223
   48.630    2.3170
   48.645    2.4925
   48.660    2.4399
   48.675    2.3697
   48.690    2.4048
   48.705    2.5979
   48.720    2.5803
   48.735    2.5803
   48.750    2.3697
   48.765    2.2819
   48.780    2.3521
   48.795    2.4223
   48.810    2.3872
   48.825    2.4750
   48.840    2.2292
   48.855    2.3872
   48.870    2.4574
   48.885    2.3346
   48.900    2.2468
   48.915    2.6330
   48.930    2.3346
   48.945    2.1590
   48.960    2.4925
   48.975    2.5803
   48.990    2.4048
   49.005    2.5979
   49.020    2.4223
   49.035    2.6330
   49.050    2.3697
   49.065    2.4223
   49.080    2.7383
   49.095    2.3346
   49.110    2.5452
   49.125    2.3697
   49.140    2.4925
   49.155    2.2819
   49.170    2.2117
   49.185    2.2468
   49.200    2.3346
   49.215    2.7032
   49.230    2.4925
   49.245    2.4399
   49.260    2.7558
   49.275    2.4750
   49.290    2.6154
   49.305    2.4399
   49.320    2.3170
   49.335    2.2117
   49.350    2.4399
   49.365    2.1239
   49.380    2.3521
   49.395    2.3521
   49.410    2.3170
   49.425    2.3346
   49.440    2.4574
   49.455    2.5803
   49.470    2.5979
   49.485    2.7383
   49.500    2.4574
   49.515    2.5452
   49.530    2.4223
   49.545    2.1064
   49.560    2.5452
   49.575    2.3346
   49.590    2.7909
   49.605    2.4223
   49.620    2.3346
   49.635    2.5101
   49.650    2.1766
   49.665    2.2117
   49.680    2.1415
   49.695    2.1590
   49.710    2.3521
   49.725    2.2995
   49.740    2.2995
   49.755    2.1941
   49.770    2.0888
   49.785    2.6154
   49.800    2.3697
   49.815    2.2117
   49.830    2.2643
   49.845    2.2819
   49.860    2.2117
   49.875    1.9659
   49.890    2.1415
   49.905    2.4574
   49.920    2.3872
   49.935    2.3170
   49.950    2.6505
   49.965    2.1415
   49.980    2.0011
