    1.500    3.1550
    1.515    3.2459
    1.530    3.0640
    1.545    3.0765
    1.560    3.0159
    1.575    2.9392
    1.590    2.9428
    1.605    2.9178
    1.620    2.7287
    1.635    2.7091
    1.650    2.6271
    1.665    2.5557
    1.680    2.6146
    1.695    2.5736
    1.710    2.5682
    1.725    2.5450
    1.740    2.4469
    1.755    2.5343
    1.770    2.4362
    1.785    2.3667
    1.800    2.4915
    1.815    2.4666
    1.830    2.3810
    1.845    2.2811
    1.860    2.3078
    1.875    2.3792
    1.890    2.2508
    1.905    2.2472
    1.920    2.1509
    1.935    2.2401
    1.950    2.2294
    1.965    2.2097
    1.980    2.2525
    1.995    2.1883
    2.010    2.1776
    2.025    2.1723
    2.040    2.1152
    2.055    2.0011
    2.070    2.0403
    2.085    2.1330
    2.100    2.0046
    2.115    2.0760
    2.130    1.8958
    2.145    1.9565
    2.160    1.9226
    2.175    1.9422
    2.190    2.0082
    2.205    1.9012
    2.220    1.9529
    2.235    1.8976
    2.250    1.9476
    2.265    1.9190
    2.280    1.8905
    2.295    1.8174
    2.310    1.9137
    2.325    1.8994
    2.340    1.7514
    2.355    1.7121
    2.370    1.7032
    2.385    1.7353
    2.400    1.7425
    2.415    1.8851
    2.430    1.8209
    2.445    1.6622
    2.460    1.6444
    2.475    1.6943
    2.490    1.7371
    2.505    1.7728
    2.520    1.7264
    2.535    1.6943
    2.550    1.7906
    2.565    1.6854
    2.580    1.6729
    2.595    1.6925
    2.610    1.6961
    2.625    1.6836
    2.640    1.6800
    2.655    1.6604
    2.670    1.6497
    2.685    1.6551
    2.700    1.6212
    2.715    1.6515
    2.730    1.5713
    2.745    1.5481
    2.760    1.5802
    2.775    1.6551
    2.790    1.5695
    2.805    1.5962
    2.820    1.5605
    2.835    1.5516
    2.850    1.5909
    2.865    1.5713
    2.880    1.5534
    2.895    1.5909
    2.910    1.5588
    2.925    1.5784
    2.940    1.5766
    2.955    1.5534
    2.970    1.5784
    2.985    1.5766
    3.000    1.5338
    3.015    1.5516
    3.030    1.5409
    3.045    1.5338
    3.060    1.5481
    3.075    1.4678
    3.090    1.5177
    3.105    1.5017
    3.120    1.5249
    3.135    1.4482
    3.150    1.4874
    3.165    1.4678
    3.180    1.5481
    3.195    1.5659
    3.210    1.4553
    3.225    1.5088
    3.240    1.5070
    3.255    1.4411
    3.270    1.4411
    3.285    1.4607
    3.300    1.4732
    3.315    1.4250
    3.330    1.5605
    3.345    1.5267
    3.360    1.5356
    3.375    1.4571
    3.390    1.4589
    3.405    1.4232
    3.420    1.4660
    3.435    1.3911
    3.450    1.4446
    3.465    1.4321
    3.480    1.5284
    3.495    1.4928
    3.510    1.4321
    3.525    1.4464
    3.540    1.4856
    3.555    1.4910
    3.570    1.3679
    3.585    1.3519
    3.600    1.4268
    3.615    1.3733
    3.630    1.3983
    3.645    1.4714
    3.660    1.4268
    3.675    1.3661
    3.690    1.4179
    3.705    1.4946
    3.720    1.4910
    3.735    1.4589
    3.750    1.3858
    3.765    1.3483
    3.780    1.3358
    3.795    1.3893
    3.810    1.3430
    3.825    1.3412
    3.840    1.3430
    3.855    1.3786
    3.870    1.4286
    3.885    1.4304
    3.900    1.3679
    3.915    1.3554
    3.930    1.3661
    3.945    1.4197
    3.960    1.3858
    3.975    1.3804
    3.990    1.4072
    4.005    1.3180
    4.020    1.3412
    4.035    1.3822
    4.050    1.4304
    4.065    1.4107
    4.080    1.3876
    4.095    1.3893
    4.110    1.3715
    4.125    1.4428
    4.140    1.4090
    4.155    1.3983
    4.170    1.3822
    4.185    1.4090
    4.200    1.3661
    4.215    1.3893
    4.230    1.3893
    4.245    1.3929
    4.260    1.4375
    4.275    1.3608
    4.290    1.3376
    4.305    1.3447
    4.320    1.4304
    4.335    1.4107
    4.350    1.3537
    4.365    1.3287
    4.380    1.3447
    4.395    1.3626
    4.410    1.3519
    4.425    1.4232
    4.440    1.3572
    4.455    1.3733
    4.470    1.3109
    4.485    1.4214
    4.500    1.3822
    4.515    1.4446
    4.530    1.3929
    4.545    1.4375
    4.560    1.4072
    4.575    1.3679
    4.590    1.4072
    4.605    1.4090
    4.620    1.3893
    4.635    1.4000
    4.650    1.3965
    4.665    1.5088
    4.680    1.4375
    4.695    1.4428
    4.710    1.4339
    4.725    1.3876
    4.740    1.3733
    4.755    1.4500
    4.770    1.3590
    4.785    1.3412
    4.800    1.3644
    4.815    1.4179
    4.830    1.3858
    4.845    1.4428
    4.860    1.4446
    4.875    1.4339
    4.890    1.4214
    4.905    1.4803
    4.920    1.4143
    4.935    1.3679
    4.950    1.3733
    4.965    1.3929
    4.980    1.4000
    4.995    1.4607
    5.010    1.4232
    5.025    1.3858
    5.040    1.3751
    5.055    1.4072
    5.070    1.3733
    5.085    1.4161
    5.100    1.4411
    5.115    1.4072
    5.130    1.5035
    5.145    1.4571
    5.160    1.3679
    5.175    1.3216
    5.190    1.3769
    5.205    1.4732
    5.220    1.4000
    5.235    1.3376
    5.250    1.3376
    5.265    1.4161
    5.280    1.4250
    5.295    1.4090
    5.310    1.4500
    5.325    1.4642
    5.340    1.3947
    5.355    1.3893
    5.370    1.4072
    5.385    1.4321
    5.400    1.3769
    5.415    1.4571
    5.430    1.3876
    5.445    1.4446
    5.460    1.4125
    5.475    1.4535
    5.490    1.4125
    5.505    1.4143
    5.520    1.5195
    5.535    1.4714
    5.550    1.3715
    5.565    1.4553
    5.580    1.3519
    5.595    1.4161
    5.610    1.4036
    5.625    1.4268
    5.640    1.4036
    5.655    1.5231
    5.670    1.4589
    5.685    1.4054
    5.700    1.4714
    5.715    1.5623
    5.730    1.4054
    5.745    1.4553
    5.760    1.5659
    5.775    1.4357
    5.790    1.5053
    5.805    1.4411
    5.820    1.5588
    5.835    1.4892
    5.850    1.5552
    5.865    1.5053
    5.880    1.5588
    5.895    1.5766
    5.910    1.6319
    5.925    1.6301
    5.940    1.5944
    5.955    1.6497
    5.970    1.6390
    5.985    1.6800
    6.000    1.7532
    6.015    1.6569
    6.030    1.7068
    6.045    1.7050
    6.060    1.6997
    6.075    1.7549
    6.090    1.7496
    6.105    1.7585
    6.120    1.8905
    6.135    1.8031
    6.150    1.7853
    6.165    1.7228
    6.180    1.9030
    6.195    1.8441
    6.210    1.8620
    6.225    1.8013
    6.240    1.9190
    6.255    1.8816
    6.270    1.9297
    6.285    1.8388
    6.300    1.8673
    6.315    1.9172
    6.330    1.9226
    6.345    1.9725
    6.360    1.9815
    6.375    2.0153
    6.390    2.0243
    6.405    1.9119
    6.420    1.9850
    6.435    2.0225
    6.450    1.9244
    6.465    1.9654
    6.480    1.9137
    6.495    1.9476
    6.510    1.9743
    6.525    1.9226
    6.540    1.9975
    6.555    1.9636
    6.570    1.9493
    6.585    1.9761
    6.600    1.8941
    6.615    1.9172
    6.630    1.8120
    6.645    1.8744
    6.660    1.9672
    6.675    1.8780
    6.690    1.8067
    6.705    1.7692
    6.720    1.7050
    6.735    1.7692
    6.750    1.7567
    6.765    1.7335
    6.780    1.6979
    6.795    1.7282
    6.810    1.7692
    6.825    1.7621
    6.840    1.7764
    6.855    1.6390
    6.870    1.5820
    6.885    1.6105
    6.900    1.5837
    6.915    1.5855
    6.930    1.5730
    6.945    1.6123
    6.960    1.5338
    6.975    1.4286
    6.990    1.5195
    7.005    1.5623
    7.020    1.5552
    7.035    1.4785
    7.050    1.4660
    7.065    1.5106
    7.080    1.4268
    7.095    1.4767
    7.110    1.3947
    7.125    1.4179
    7.140    1.4357
    7.155    1.4018
    7.170    1.4232
    7.185    1.4232
    7.200    1.4393
    7.215    1.5320
    7.230    1.4411
    7.245    1.4232
    7.260    1.4214
    7.275    1.4286
    7.290    1.4197
    7.305    1.4232
    7.320    1.4090
    7.335    1.3305
    7.350    1.3483
    7.365    1.3430
    7.380    1.3233
    7.395    1.3519
    7.410    1.3947
    7.425    1.2930
    7.440    1.2645
    7.455    1.3786
    7.470    1.3661
    7.485    1.3483
    7.500    1.3983
    7.515    1.3733
    7.530    1.3644
    7.545    1.2859
    7.560    1.3572
    7.575    1.2984
    7.590    1.3019
    7.605    1.3340
    7.620    1.3358
    7.635    1.2788
    7.650    1.2805
    7.665    1.2502
    7.680    1.2681
    7.695    1.3073
    7.710    1.2574
    7.725    1.2645
    7.740    1.2395
    7.755    1.2484
    7.770    1.2645
    7.785    1.2770
    7.800    1.2734
    7.815    1.2431
    7.830    1.2930
    7.845    1.2092
    7.860    1.2377
    7.875    1.2056
    7.890    1.1628
    7.905    1.2146
    7.920    1.2538
    7.935    1.2823
    7.950    1.2342
    7.965    1.2092
    7.980    1.2128
    7.995    1.2253
    8.010    1.2288
    8.025    1.1646
    8.040    1.1218
    8.055    1.2912
    8.070    1.2360
    8.085    1.1753
    8.100    1.2235
    8.115    1.1825
    8.130    1.1468
    8.145    1.1075
    8.160    1.1307
    8.175    1.1646
    8.190    1.1646
    8.205    1.1414
    8.220    1.0879
    8.235    1.2074
    8.250    1.0754
    8.265    1.0933
    8.280    1.1040
    8.295    1.1450
    8.310    1.0808
    8.325    1.0844
    8.340    1.1575
    8.355    1.1432
    8.370    1.1111
    8.385    1.0951
    8.400    1.1432
    8.415    1.1129
    8.430    1.0701
    8.445    1.0879
    8.460    1.1165
    8.475    1.0808
    8.490    1.1700
    8.505    1.1040
    8.520    1.1182
    8.535    1.0612
    8.550    1.0309
    8.565    1.0023
    8.580    1.0844
    8.595    1.0808
    8.610    1.0523
    8.625    1.0487
    8.640    1.0130
    8.655    1.0130
    8.670    1.0540
    8.685    1.0148
    8.700    0.9952
    8.715    1.0291
    8.730    1.0202
    8.745    0.9756
    8.760    1.0023
    8.775    1.0255
    8.790    1.0861
    8.805    1.0095
    8.820    1.0647
    8.835    0.9934
    8.850    0.9773
    8.865    0.9631
    8.880    0.9506
    8.895    0.9809
    8.910    1.1111
    8.925    1.0719
    8.940    0.9310
    8.955    0.9381
    8.970    0.9559
    8.985    0.9756
    9.000    0.9452
    9.015    0.9559
    9.030    0.9773
    9.045    0.9898
    9.060    1.0380
    9.075    0.9238
    9.090    0.8953
    9.105    0.8971
    9.120    0.9649
    9.135    0.9524
    9.150    0.9203
    9.165    0.9292
    9.180    0.9542
    9.195    0.9203
    9.210    0.9488
    9.225    0.9363
    9.240    0.9310
    9.255    0.9042
    9.270    0.9595
    9.285    0.9363
    9.300    0.8614
    9.315    0.9452
    9.330    0.9649
    9.345    0.9488
    9.360    0.9185
    9.375    0.9274
    9.390    0.9114
    9.405    0.9078
    9.420    0.8757
    9.435    0.9096
    9.450    0.9328
    9.465    0.9274
    9.480    0.8668
    9.495    0.8703
    9.510    0.8561
    9.525    0.9114
    9.540    0.9042
    9.555    0.8329
    9.570    0.8097
    9.585    0.8668
    9.600    0.9149
    9.615    0.8917
    9.630    0.9060
    9.645    0.9042
    9.660    0.9756
    9.675    0.8579
    9.690    0.8596
    9.705    0.8525
    9.720    0.9078
    9.735    0.8543
    9.750    0.8454
    9.765    0.9042
    9.780    0.8935
    9.795    0.8971
    9.810    0.8525
    9.825    0.8579
    9.840    0.8917
    9.855    0.8882
    9.870    0.8828
    9.885    0.8864
    9.900    0.9024
    9.915    0.8311
    9.930    0.8917
    9.945    0.8953
    9.960    0.9470
    9.975    0.9078
    9.990    0.8668
   10.005    0.8632
   10.020    0.9042
   10.035    0.8668
   10.050    0.8436
   10.065    0.8258
   10.080    0.8614
   10.095    0.8561
   10.110    0.8828
   10.125    0.8400
   10.140    0.8579
   10.155    0.8240
   10.170    0.8900
   10.185    0.8579
   10.200    0.8739
   10.215    0.7990
   10.230    0.7865
   10.245    0.8044
   10.260    0.8632
   10.275    0.8828
   10.290    0.8507
   10.305    0.7919
   10.320    0.8079
   10.335    0.8721
   10.350    0.8489
   10.365    0.8525
   10.380    0.8240
   10.395    0.7580
   10.410    0.7544
   10.425    0.8061
   10.440    0.7901
   10.455    0.8240
   10.470    0.8454
   10.485    0.8454
   10.500    0.8168
   10.515    0.7758
   10.530    0.8311
   10.545    0.8151
   10.560    0.8418
   10.575    0.7937
   10.590    0.8311
   10.605    0.8061
   10.620    0.8632
   10.635    0.7687
   10.650    0.7669
   10.665    0.7865
   10.680    0.7829
   10.695    0.7847
   10.710    0.8026
   10.725    0.8044
   10.740    0.8151
   10.755    0.8115
   10.770    0.8204
   10.785    0.8079
   10.800    0.8579
   10.815    0.9185
   10.830    0.8703
   10.845    0.7865
   10.860    0.8115
   10.875    0.7990
   10.890    0.7615
   10.905    0.8115
   10.920    0.8614
   10.935    0.8507
   10.950    0.7508
   10.965    0.8008
   10.980    0.7919
   10.995    0.7901
   11.010    0.8543
   11.025    0.8097
   11.040    0.8079
   11.055    0.8275
   11.070    0.7972
   11.085    0.8097
   11.100    0.8418
   11.115    0.8222
   11.130    0.8436
   11.145    0.8240
   11.160    0.8204
   11.175    0.8258
   11.190    0.8151
   11.205    0.8614
   11.220    0.8614
   11.235    0.8846
   11.250    0.7259
   11.265    0.7758
   11.280    0.8079
   11.295    0.9024
   11.310    0.8240
   11.325    0.8061
   11.340    0.8026
   11.355    0.8561
   11.370    0.8311
   11.385    0.8810
   11.400    0.7919
   11.415    0.7901
   11.430    0.8489
   11.445    0.8739
   11.460    0.8061
   11.475    0.8721
   11.490    0.8347
   11.505    0.7687
   11.520    0.7419
   11.535    0.8168
   11.550    0.7740
   11.565    0.8097
   11.580    0.7972
   11.595    0.8008
   11.610    0.7562
   11.625    0.8472
   11.640    0.8293
   11.655    0.8258
   11.670    0.8953
   11.685    0.8561
   11.700    0.8650
   11.715    0.8168
   11.730    0.8044
   11.745    0.8151
   11.760    0.7687
   11.775    0.7937
   11.790    0.8008
   11.805    0.8061
   11.820    0.8365
   11.835    0.7705
   11.850    0.7865
   11.865    0.8204
   11.880    0.7901
   11.895    0.8436
   11.910    0.8561
   11.925    0.8151
   11.940    0.8168
   11.955    0.7829
   11.970    0.8347
   11.985    0.8079
   12.000    0.8240
   12.015    0.7919
   12.030    0.8275
   12.045    0.8971
   12.060    0.8382
   12.075    0.8026
   12.090    0.7883
   12.105    0.8775
   12.120    0.8632
   12.135    0.9060
   12.150    0.8293
   12.165    0.8721
   12.180    0.9149
   12.195    0.8668
   12.210    0.8418
   12.225    0.8382
   12.240    0.8168
   12.255    0.8721
   12.270    0.9007
   12.285    0.9007
   12.300    0.8543
   12.315    0.8436
   12.330    0.8882
   12.345    0.8507
   12.360    0.8275
   12.375    0.9167
   12.390    0.9167
   12.405    0.8757
   12.420    0.8365
   12.435    0.8543
   12.450    0.8293
   12.465    0.8757
   12.480    0.8311
   12.495    0.8258
   12.510    0.8186
   12.525    0.8614
   12.540    0.8311
   12.555    0.8418
   12.570    0.8489
   12.585    0.9060
   12.600    0.9345
   12.615    0.8953
   12.630    0.8953
   12.645    0.9310
   12.660    0.8454
   12.675    0.9185
   12.690    0.8329
   12.705    0.8418
   12.720    0.8757
   12.735    0.8454
   12.750    0.8721
   12.765    0.8436
   12.780    0.8900
   12.795    0.8418
   12.810    0.8418
   12.825    0.9060
   12.840    0.8828
   12.855    0.8668
   12.870    0.8204
   12.885    0.8115
   12.900    0.8668
   12.915    0.9238
   12.930    0.8525
   12.945    0.8614
   12.960    0.8365
   12.975    0.8793
   12.990    0.8222
   13.005    0.8793
   13.020    0.8989
   13.035    0.8953
   13.050    0.9345
   13.065    0.9167
   13.080    0.8543
   13.095    0.8400
   13.110    0.8507
   13.125    0.8204
   13.140    0.8097
   13.155    0.8882
   13.170    0.8418
   13.185    0.8400
   13.200    0.9024
   13.215    0.8721
   13.230    0.9060
   13.245    0.9114
   13.260    0.9114
   13.275    0.9024
   13.290    0.8543
   13.305    0.8382
   13.320    0.8436
   13.335    0.8044
   13.350    0.8311
   13.365    0.8044
   13.380    0.8579
   13.395    0.8650
   13.410    0.8703
   13.425    0.8846
   13.440    0.7937
   13.455    0.7954
   13.470    0.8365
   13.485    0.8008
   13.500    0.8757
   13.515    0.8329
   13.530    0.8133
   13.545    0.8632
   13.560    0.8079
   13.575    0.8329
   13.590    0.8953
   13.605    0.8543
   13.620    0.8864
   13.635    0.8900
   13.650    0.8525
   13.665    0.8828
   13.680    0.8882
   13.695    0.9203
   13.710    0.9595
   13.725    0.9417
   13.740    0.9131
   13.755    0.9024
   13.770    0.8311
   13.785    0.8721
   13.800    0.8507
   13.815    0.8240
   13.830    0.7901
   13.845    0.8454
   13.860    0.8686
   13.875    0.8293
   13.890    0.8204
   13.905    0.8222
   13.920    0.7758
   13.935    0.8097
   13.950    0.8650
   13.965    0.9256
   13.980    0.8614
   13.995    0.8079
   14.010    0.8507
   14.025    0.8079
   14.040    0.8329
   14.055    0.8186
   14.070    0.7562
   14.085    0.9292
   14.100    0.8989
   14.115    0.8436
   14.130    0.8810
   14.145    0.8721
   14.160    0.8008
   14.175    0.8258
   14.190    0.8525
   14.205    0.8097
   14.220    0.8008
   14.235    0.7598
   14.250    0.7812
   14.265    0.8044
   14.280    0.8614
   14.295    0.8151
   14.310    0.8329
   14.325    0.8204
   14.340    0.7865
   14.355    0.8133
   14.370    0.7687
   14.385    0.7990
   14.400    0.8596
   14.415    0.7722
   14.430    0.7562
   14.445    0.8275
   14.460    0.8561
   14.475    0.7651
   14.490    0.8668
   14.505    0.8044
   14.520    0.8400
   14.535    0.7954
   14.550    0.8061
   14.565    0.8311
   14.580    0.8489
   14.595    0.8525
   14.610    0.7651
   14.625    0.8008
   14.640    0.7919
   14.655    0.7722
   14.670    0.7669
   14.685    0.8097
   14.700    0.7633
   14.715    0.7919
   14.730    0.8293
   14.745    0.8454
   14.760    0.7901
   14.775    0.7883
   14.790    0.7794
   14.805    0.7758
   14.820    0.7580
   14.835    0.8721
   14.850    0.8347
   14.865    0.8061
   14.880    0.8186
   14.895    0.7633
   14.910    0.8061
   14.925    0.7705
   14.940    0.7794
   14.955    0.7865
   14.970    0.7740
   14.985    0.7277
   15.000    0.7544
   15.015    0.7883
   15.030    0.7687
   15.045    0.7705
   15.060    0.7508
   15.075    0.7865
   15.090    0.7812
   15.105    0.7633
   15.120    0.8115
   15.135    0.7651
   15.150    0.7865
   15.165    0.7901
   15.180    0.7473
   15.195    0.7384
   15.210    0.7954
   15.225    0.7990
   15.240    0.7794
   15.255    0.7598
   15.270    0.7419
   15.285    0.7473
   15.300    0.8133
   15.315    0.7633
   15.330    0.8365
   15.345    0.7205
   15.360    0.7972
   15.375    0.8917
   15.390    0.8365
   15.405    0.7669
   15.420    0.8240
   15.435    0.7901
   15.450    0.7384
   15.465    0.7937
   15.480    0.7776
   15.495    0.8400
   15.510    0.7972
   15.525    0.7384
   15.540    0.7901
   15.555    0.7562
   15.570    0.7865
   15.585    0.7615
   15.600    0.7491
   15.615    0.7508
   15.630    0.8097
   15.645    0.8008
   15.660    0.7829
   15.675    0.7116
   15.690    0.7919
   15.705    0.7526
   15.720    0.7883
   15.735    0.7722
   15.750    0.7687
   15.765    0.7722
   15.780    0.7651
   15.795    0.7705
   15.810    0.8472
   15.825    0.7722
   15.840    0.8222
   15.855    0.7847
   15.870    0.7491
   15.885    0.7473
   15.900    0.7687
   15.915    0.7526
   15.930    0.8329
   15.945    0.7883
   15.960    0.7954
   15.975    0.7776
   15.990    0.8258
   16.005    0.7580
   16.020    0.7776
   16.035    0.7829
   16.050    0.8614
   16.065    0.8115
   16.080    0.8008
   16.095    0.7954
   16.110    0.8275
   16.125    0.8614
   16.140    0.8151
   16.155    0.7937
   16.170    0.8668
   16.185    0.8507
   16.200    0.7937
   16.215    0.7562
   16.230    0.8097
   16.245    0.8026
   16.260    0.8418
   16.275    0.8436
   16.290    0.7901
   16.305    0.7722
   16.320    0.7919
   16.335    0.7919
   16.350    0.8133
   16.365    0.7847
   16.380    0.7687
   16.395    0.8293
   16.410    0.8168
   16.425    0.8365
   16.440    0.8293
   16.455    0.8222
   16.470    0.8472
   16.485    0.8186
   16.500    0.8079
   16.515    0.8757
   16.530    0.8026
   16.545    0.8543
   16.560    0.8382
   16.575    0.8882
   16.590    0.8846
   16.605    0.8953
   16.620    0.8882
   16.635    0.8489
   16.650    0.8917
   16.665    0.9310
   16.680    0.8293
   16.695    0.8151
   16.710    0.8561
   16.725    0.9149
   16.740    0.9631
   16.755    0.9684
   16.770    0.9131
   16.785    0.8810
   16.800    0.8579
   16.815    0.8757
   16.830    0.8400
   16.845    0.8008
   16.860    0.9167
   16.875    0.8507
   16.890    0.8721
   16.905    0.9060
   16.920    0.8971
   16.935    0.9524
   16.950    0.8382
   16.965    0.8757
   16.980    0.9310
   16.995    0.9185
   17.010    0.8614
   17.025    0.8133
   17.040    0.7562
   17.055    0.8793
   17.070    0.8739
   17.085    0.8561
   17.100    0.8632
   17.115    0.8186
   17.130    0.8168
   17.145    0.9007
   17.160    0.8775
   17.175    0.8186
   17.190    0.8668
   17.205    0.8079
   17.220    0.8061
   17.235    0.8472
   17.250    0.9042
   17.265    0.8293
   17.280    0.8472
   17.295    0.8525
   17.310    0.8115
   17.325    0.8275
   17.340    0.8061
   17.355    0.8168
   17.370    0.7919
   17.385    0.7901
   17.400    0.8061
   17.415    0.7669
   17.430    0.8008
   17.445    0.8275
   17.460    0.8418
   17.475    0.8329
   17.490    0.7544
   17.505    0.8561
   17.520    0.7919
   17.535    0.8472
   17.550    0.8311
   17.565    0.8293
   17.580    0.8365
   17.595    0.7669
   17.610    0.7901
   17.625    0.7794
   17.640    0.7972
   17.655    0.7901
   17.670    0.8168
   17.685    0.8115
   17.700    0.8311
   17.715    0.8115
   17.730    0.7348
   17.745    0.7758
   17.760    0.7508
   17.775    0.7526
   17.790    0.8258
   17.805    0.8097
   17.820    0.7205
   17.835    0.8365
   17.850    0.7705
   17.865    0.7348
   17.880    0.7491
   17.895    0.7812
   17.910    0.7990
   17.925    0.8044
   17.940    0.7812
   17.955    0.7954
   17.970    0.7241
   17.985    0.7223
   18.000    0.7865
   18.015    0.7633
   18.030    0.7901
   18.045    0.7829
   18.060    0.7722
   18.075    0.7705
   18.090    0.8222
   18.105    0.7080
   18.120    0.7419
   18.135    0.8240
   18.150    0.7633
   18.165    0.7384
   18.180    0.7259
   18.195    0.7152
   18.210    0.7937
   18.225    0.8258
   18.240    0.7669
   18.255    0.7669
   18.270    0.7758
   18.285    0.7776
   18.300    0.7259
   18.315    0.7633
   18.330    0.7277
   18.345    0.7651
   18.360    0.7580
   18.375    0.7722
   18.390    0.7348
   18.405    0.7740
   18.420    0.8115
   18.435    0.7598
   18.450    0.8008
   18.465    0.8168
   18.480    0.8097
   18.495    0.8240
   18.510    0.8079
   18.525    0.7758
   18.540    0.7562
   18.555    0.7205
   18.570    0.7366
   18.585    0.7615
   18.600    0.8329
   18.615    0.8382
   18.630    0.7901
   18.645    0.7794
   18.660    0.8329
   18.675    0.8204
   18.690    0.8329
   18.705    0.8436
   18.720    0.7526
   18.735    0.8008
   18.750    0.7883
   18.765    0.7972
   18.780    0.7651
   18.795    0.7598
   18.810    0.7580
   18.825    0.7740
   18.840    0.8222
   18.855    0.7847
   18.870    0.7544
   18.885    0.7829
   18.900    0.7865
   18.915    0.8026
   18.930    0.7722
   18.945    0.7722
   18.960    0.7437
   18.975    0.8240
   18.990    0.7740
   19.005    0.7544
   19.020    0.7722
   19.035    0.7829
   19.050    0.7651
   19.065    0.7241
   19.080    0.7722
   19.095    0.7758
   19.110    0.7847
   19.125    0.7348
   19.140    0.8293
   19.155    0.7223
   19.170    0.7722
   19.185    0.7633
   19.200    0.7205
   19.215    0.7116
   19.230    0.7580
   19.245    0.7901
   19.260    0.7705
   19.275    0.8204
   19.290    0.7865
   19.305    0.7598
   19.320    0.8008
   19.335    0.7401
   19.350    0.7223
   19.365    0.7473
   19.380    0.8044
   19.395    0.7794
   19.410    0.7491
   19.425    0.7651
   19.440    0.7508
   19.455    0.6884
   19.470    0.7722
   19.485    0.7740
   19.500    0.7205
   19.515    0.7919
   19.530    0.7419
   19.545    0.7526
   19.560    0.7865
   19.575    0.7687
   19.590    0.7758
   19.605    0.7776
   19.620    0.7544
   19.635    0.7562
   19.650    0.7437
   19.665    0.7562
   19.680    0.7598
   19.695    0.7366
   19.710    0.7829
   19.725    0.7633
   19.740    0.7829
   19.755    0.7205
   19.770    0.7705
   19.785    0.7758
   19.800    0.7669
   19.815    0.7491
   19.830    0.7366
   19.845    0.7045
   19.860    0.7829
   19.875    0.7526
   19.890    0.7134
   19.905    0.7348
   19.920    0.7687
   19.935    0.7615
   19.950    0.7009
   19.965    0.7473
   19.980    0.7562
   19.995    0.7455
   20.010    0.7384
   20.025    0.7187
   20.040    0.7259
   20.055    0.7419
   20.070    0.7277
   20.085    0.7526
   20.100    0.7348
   20.115    0.7508
   20.130    0.7348
   20.145    0.7544
   20.160    0.7241
   20.175    0.7544
   20.190    0.7598
   20.205    0.7223
   20.220    0.7401
   20.235    0.7366
   20.250    0.7544
   20.265    0.7437
   20.280    0.7419
   20.295    0.7259
   20.310    0.7544
   20.325    0.7401
   20.340    0.7455
   20.355    0.7526
   20.370    0.7027
   20.385    0.7063
   20.400    0.7580
   20.415    0.8026
   20.430    0.7740
   20.445    0.7098
   20.460    0.7508
   20.475    0.7669
   20.490    0.6866
   20.505    0.7473
   20.520    0.7562
   20.535    0.7437
   20.550    0.7776
   20.565    0.7580
   20.580    0.7312
   20.595    0.7384
   20.610    0.7758
   20.625    0.7562
   20.640    0.7080
   20.655    0.7598
   20.670    0.7526
   20.685    0.7384
   20.700    0.7152
   20.715    0.7491
   20.730    0.7277
   20.745    0.7687
   20.760    0.7205
   20.775    0.7277
   20.790    0.7633
   20.805    0.7455
   20.820    0.7705
   20.835    0.7526
   20.850    0.7562
   20.865    0.7580
   20.880    0.6973
   20.895    0.7241
   20.910    0.6617
   20.925    0.6973
   20.940    0.7526
   20.955    0.7705
   20.970    0.7919
   20.985    0.7651
   21.000    0.7348
   21.015    0.7580
   21.030    0.7740
   21.045    0.7384
   21.060    0.7491
   21.075    0.7080
   21.090    0.7544
   21.105    0.7473
   21.120    0.7205
   21.135    0.6991
   21.150    0.7954
   21.165    0.7384
   21.180    0.7705
   21.195    0.7348
   21.210    0.6884
   21.225    0.6884
   21.240    0.7241
   21.255    0.7205
   21.270    0.6795
   21.285    0.7063
   21.300    0.7152
   21.315    0.7152
   21.330    0.7294
   21.345    0.7401
   21.360    0.7080
   21.375    0.7009
   21.390    0.7348
   21.405    0.6920
   21.420    0.7580
   21.435    0.8115
   21.450    0.7419
   21.465    0.7384
   21.480    0.7526
   21.495    0.7937
   21.510    0.7455
   21.525    0.7722
   21.540    0.7812
   21.555    0.7473
   21.570    0.7419
   21.585    0.7883
   21.600    0.7812
   21.615    0.7063
   21.630    0.7508
   21.645    0.7687
   21.660    0.7384
   21.675    0.6849
   21.690    0.7063
   21.705    0.7491
   21.720    0.7437
   21.735    0.7473
   21.750    0.7455
   21.765    0.7241
   21.780    0.7116
   21.795    0.7063
   21.810    0.7419
   21.825    0.7473
   21.840    0.7740
   21.855    0.7223
   21.870    0.7098
   21.885    0.7063
   21.900    0.7170
   21.915    0.7348
   21.930    0.7259
   21.945    0.7063
   21.960    0.6688
   21.975    0.6884
   21.990    0.6956
   22.005    0.7651
   22.020    0.7651
   22.035    0.6849
   22.050    0.6902
   22.065    0.7277
   22.080    0.7633
   22.095    0.7170
   22.110    0.6920
   22.125    0.6617
   22.140    0.7294
   22.155    0.6956
   22.170    0.7027
   22.185    0.6902
   22.200    0.7116
   22.215    0.7170
   22.230    0.6831
   22.245    0.7241
   22.260    0.6973
   22.275    0.7508
   22.290    0.7526
   22.305    0.6617
   22.320    0.7473
   22.335    0.7080
   22.350    0.6831
   22.365    0.6581
   22.380    0.7152
   22.395    0.7562
   22.410    0.7633
   22.425    0.7277
   22.440    0.7455
   22.455    0.7419
   22.470    0.7294
   22.485    0.7241
   22.500    0.7080
   22.515    0.7330
   22.530    0.7223
   22.545    0.6866
   22.560    0.7366
   22.575    0.7063
   22.590    0.7633
   22.605    0.7419
   22.620    0.6920
   22.635    0.6688
   22.650    0.6849
   22.665    0.7063
   22.680    0.6421
   22.695    0.6617
   22.710    0.6956
   22.725    0.6510
   22.740    0.6742
   22.755    0.7722
   22.770    0.7812
   22.785    0.6938
   22.800    0.6938
   22.815    0.6831
   22.830    0.6742
   22.845    0.7027
   22.860    0.6617
   22.875    0.6545
   22.890    0.6421
   22.905    0.6973
   22.920    0.6973
   22.935    0.6795
   22.950    0.6973
   22.965    0.7080
   22.980    0.6902
   22.995    0.7170
   23.010    0.7080
   23.025    0.7294
   23.040    0.6528
   23.055    0.6635
   23.070    0.6831
   23.085    0.6795
   23.100    0.7080
   23.115    0.7205
   23.130    0.6920
   23.145    0.6617
   23.160    0.6849
   23.175    0.6545
   23.190    0.6973
   23.205    0.6742
   23.220    0.6938
   23.235    0.6973
   23.250    0.7401
   23.265    0.7384
   23.280    0.6849
   23.295    0.7027
   23.310    0.7098
   23.325    0.6260
   23.340    0.6510
   23.355    0.7312
   23.370    0.6652
   23.385    0.7116
   23.400    0.6563
   23.415    0.6902
   23.430    0.6635
   23.445    0.6795
   23.460    0.6813
   23.475    0.6902
   23.490    0.6884
   23.505    0.6528
   23.520    0.7152
   23.535    0.6777
   23.550    0.6759
   23.565    0.7259
   23.580    0.6920
   23.595    0.6528
   23.610    0.6884
   23.625    0.6831
   23.640    0.6367
   23.655    0.6189
   23.670    0.6189
   23.685    0.6831
   23.700    0.6314
   23.715    0.6902
   23.730    0.6938
   23.745    0.6795
   23.760    0.6581
   23.775    0.6224
   23.790    0.7116
   23.805    0.6902
   23.820    0.6849
   23.835    0.6688
   23.850    0.6064
   23.865    0.6207
   23.880    0.6349
   23.895    0.6456
   23.910    0.6759
   23.925    0.6242
   23.940    0.6884
   23.955    0.6331
   23.970    0.6956
   23.985    0.5939
   24.000    0.6492
   24.015    0.6617
   24.030    0.6563
   24.045    0.6706
   24.060    0.6224
   24.075    0.6920
   24.090    0.6260
   24.105    0.5957
   24.120    0.6028
   24.135    0.6884
   24.150    0.6849
   24.165    0.6545
   24.180    0.6403
   24.195    0.6581
   24.210    0.6545
   24.225    0.6528
   24.240    0.6813
   24.255    0.6545
   24.270    0.6581
   24.285    0.6670
   24.300    0.6224
   24.315    0.6652
   24.330    0.6421
   24.345    0.6492
   24.360    0.6135
   24.375    0.6438
   24.390    0.6563
   24.405    0.6367
   24.420    0.6438
   24.435    0.6242
   24.450    0.6189
   24.465    0.6314
   24.480    0.6849
   24.495    0.6652
   24.510    0.6492
   24.525    0.6670
   24.540    0.6242
   24.555    0.6688
   24.570    0.6082
   24.585    0.6421
   24.600    0.6956
   24.615    0.6510
   24.630    0.6278
   24.645    0.7116
   24.660    0.6492
   24.675    0.6135
   24.690    0.6278
   24.705    0.6688
   24.720    0.6831
   24.735    0.6545
   24.750    0.6563
   24.765    0.6456
   24.780    0.6795
   24.795    0.6563
   24.810    0.6545
   24.825    0.6403
   24.840    0.6973
   24.855    0.6207
   24.870    0.5903
   24.885    0.6117
   24.900    0.6563
   24.915    0.6367
   24.930    0.6724
   24.945    0.7919
   24.960    0.7384
   24.975    0.6688
   24.990    0.6617
   25.005    0.6617
   25.020    0.6385
   25.035    0.6652
   25.050    0.6617
   25.065    0.6670
   25.080    0.6670
   25.095    0.6581
   25.110    0.6545
   25.125    0.6367
   25.140    0.6492
   25.155    0.6367
   25.170    0.6438
   25.185    0.6421
   25.200    0.6331
   25.215    0.6331
   25.230    0.6742
   25.245    0.6242
   25.260    0.6278
   25.275    0.6331
   25.290    0.6438
   25.305    0.6581
   25.320    0.5796
   25.335    0.6117
   25.350    0.6688
   25.365    0.6296
   25.380    0.6403
   25.395    0.6082
   25.410    0.6064
   25.425    0.6367
   25.440    0.6510
   25.455    0.5868
   25.470    0.6135
   25.485    0.6207
   25.500    0.6367
   25.515    0.6117
   25.530    0.6046
   25.545    0.6207
   25.560    0.6349
   25.575    0.6599
   25.590    0.6777
   25.605    0.6189
   25.620    0.6403
   25.635    0.6456
   25.650    0.5921
   25.665    0.6831
   25.680    0.6296
   25.695    0.6278
   25.710    0.6242
   25.725    0.6135
   25.740    0.6599
   25.755    0.6028
   25.770    0.5993
   25.785    0.6242
   25.800    0.6331
   25.815    0.6135
   25.830    0.6189
   25.845    0.6510
   25.860    0.6670
   25.875    0.5921
   25.890    0.6046
   25.905    0.5921
   25.920    0.5689
   25.935    0.5975
   25.950    0.6135
   25.965    0.6224
   25.980    0.5993
   25.995    0.5921
   26.010    0.5903
   26.025    0.6100
   26.040    0.5689
   26.055    0.5975
   26.070    0.5814
   26.085    0.6117
   26.100    0.5868
   26.115    0.6064
   26.130    0.5600
   26.145    0.5850
   26.160    0.5761
   26.175    0.5654
   26.190    0.5975
   26.205    0.5582
   26.220    0.6349
   26.235    0.5707
   26.250    0.6100
   26.265    0.5814
   26.280    0.5903
   26.295    0.5975
   26.310    0.6046
   26.325    0.5993
   26.340    0.6314
   26.355    0.6563
   26.370    0.5975
   26.385    0.5582
   26.400    0.5886
   26.415    0.6349
   26.430    0.6331
   26.445    0.5886
   26.460    0.5707
   26.475    0.6189
   26.490    0.6117
   26.505    0.5297
   26.520    0.5868
   26.535    0.5297
   26.550    0.5440
   26.565    0.5743
   26.580    0.5654
   26.595    0.5796
   26.610    0.5582
   26.625    0.5796
   26.640    0.6207
   26.655    0.5707
   26.670    0.5814
   26.685    0.5778
   26.700    0.5832
   26.715    0.5297
   26.730    0.5850
   26.745    0.5886
   26.760    0.5975
   26.775    0.5903
   26.790    0.5814
   26.805    0.5671
   26.820    0.5350
   26.835    0.5707
   26.850    0.5689
   26.865    0.5636
   26.880    0.4869
   26.895    0.5422
   26.910    0.5743
   26.925    0.5903
   26.940    0.5975
   26.955    0.5618
   26.970    0.5618
   26.985    0.5743
   27.000    0.6010
   27.015    0.5921
   27.030    0.5564
   27.045    0.5671
   27.060    0.6260
   27.075    0.5832
   27.090    0.5796
   27.105    0.5618
   27.120    0.5618
   27.135    0.5868
   27.150    0.6028
   27.165    0.5529
   27.180    0.5582
   27.195    0.5761
   27.210    0.5654
   27.225    0.5475
   27.240    0.5725
   27.255    0.5654
   27.270    0.5975
   27.285    0.5564
   27.300    0.5600
   27.315    0.5689
   27.330    0.5226
   27.345    0.5689
   27.360    0.5636
   27.375    0.5404
   27.390    0.5261
   27.405    0.5297
   27.420    0.5814
   27.435    0.5636
   27.450    0.5261
   27.465    0.5422
   27.480    0.5279
   27.495    0.5778
   27.510    0.5850
   27.525    0.5796
   27.540    0.5939
   27.555    0.5761
   27.570    0.5564
   27.585    0.5850
   27.600    0.5475
   27.615    0.5422
   27.630    0.5636
   27.645    0.5903
   27.660    0.6100
   27.675    0.5547
   27.690    0.5440
   27.705    0.6189
   27.720    0.5921
   27.735    0.6421
   27.750    0.5903
   27.765    0.5886
   27.780    0.5689
   27.795    0.5386
   27.810    0.5119
   27.825    0.5261
   27.840    0.5547
   27.855    0.5350
   27.870    0.5457
   27.885    0.5493
   27.900    0.5368
   27.915    0.5493
   27.930    0.5743
   27.945    0.5600
   27.960    0.5065
   27.975    0.5564
   27.990    0.5564
   28.005    0.5422
   28.020    0.5083
   28.035    0.5172
   28.050    0.5261
   28.065    0.5547
   28.080    0.5600
   28.095    0.4780
   28.110    0.5457
   28.125    0.5350
   28.140    0.5475
   28.155    0.5065
   28.170    0.5243
   28.185    0.5600
   28.200    0.5243
   28.215    0.5564
   28.230    0.5297
   28.245    0.5582
   28.260    0.5315
   28.275    0.5386
   28.290    0.5636
   28.305    0.5707
   28.320    0.5939
   28.335    0.6902
   28.350    0.6314
   28.365    0.6581
   28.380    0.6777
   28.395    0.7205
   28.410    0.6545
   28.425    0.6242
   28.440    0.6189
   28.455    0.5386
   28.470    0.5083
   28.485    0.5368
   28.500    0.5083
   28.515    0.5368
   28.530    0.5422
   28.545    0.5029
   28.560    0.5190
   28.575    0.5279
   28.590    0.4869
   28.605    0.4833
   28.620    0.5440
   28.635    0.5279
   28.650    0.5154
   28.665    0.5511
   28.680    0.5350
   28.695    0.5475
   28.710    0.5511
   28.725    0.5529
   28.740    0.5315
   28.755    0.5386
   28.770    0.4958
   28.785    0.5440
   28.800    0.5065
   28.815    0.5029
   28.830    0.5457
   28.845    0.5547
   28.860    0.5279
   28.875    0.4655
   28.890    0.5012
   28.905    0.5547
   28.920    0.5172
   28.935    0.5350
   28.950    0.5226
   28.965    0.4994
   28.980    0.5279
   28.995    0.5350
   29.010    0.4958
   29.025    0.5172
   29.040    0.4584
   29.055    0.5600
   29.070    0.5315
   29.085    0.4780
   29.100    0.5119
   29.115    0.5297
   29.130    0.5297
   29.145    0.5243
   29.160    0.4994
   29.175    0.5279
   29.190    0.5208
   29.205    0.4780
   29.220    0.5279
   29.235    0.5493
   29.250    0.4869
   29.265    0.4976
   29.280    0.5208
   29.295    0.4780
   29.310    0.4726
   29.325    0.5083
   29.340    0.4815
   29.355    0.5261
   29.370    0.5368
   29.385    0.4905
   29.400    0.4833
   29.415    0.4922
   29.430    0.5065
   29.445    0.5154
   29.460    0.5422
   29.475    0.4922
   29.490    0.4798
   29.505    0.5208
   29.520    0.5511
   29.535    0.5903
   29.550    0.6028
   29.565    0.6296
   29.580    0.6367
   29.595    0.6724
   29.610    0.6438
   29.625    0.5475
   29.640    0.5083
   29.655    0.4940
   29.670    0.4869
   29.685    0.4922
   29.700    0.4762
   29.715    0.5083
   29.730    0.5208
   29.745    0.4905
   29.760    0.5404
   29.775    0.5654
   29.790    0.5582
   29.805    0.5350
   29.820    0.4691
   29.835    0.4548
   29.850    0.5012
   29.865    0.4833
   29.880    0.5350
   29.895    0.4887
   29.910    0.5440
   29.925    0.5297
   29.940    0.4958
   29.955    0.5047
   29.970    0.5136
   29.985    0.5119
   30.000    0.5636
   30.015    0.5386
   30.030    0.4798
   30.045    0.4584
   30.060    0.4869
   30.075    0.5083
   30.090    0.5493
   30.105    0.5511
   30.120    0.5903
   30.135    0.5939
   30.150    0.6207
   30.165    0.5868
   30.180    0.6581
   30.195    0.6117
   30.210    0.5993
   30.225    0.6028
   30.240    0.5868
   30.255    0.6028
   30.270    0.4833
   30.285    0.4887
   30.300    0.4976
   30.315    0.4798
   30.330    0.5297
   30.345    0.4477
   30.360    0.4922
   30.375    0.4744
   30.390    0.5172
   30.405    0.5226
   30.420    0.4780
   30.435    0.4673
   30.450    0.4940
   30.465    0.4798
   30.480    0.5065
   30.495    0.4619
   30.510    0.4887
   30.525    0.4548
   30.540    0.4905
   30.555    0.4726
   30.570    0.4512
   30.585    0.5065
   30.600    0.4851
   30.615    0.4673
   30.630    0.4673
   30.645    0.4905
   30.660    0.4744
   30.675    0.4512
   30.690    0.4958
   30.705    0.4530
   30.720    0.4815
   30.735    0.4976
   30.750    0.4619
   30.765    0.5029
   30.780    0.5279
   30.795    0.4780
   30.810    0.4673
   30.825    0.4976
   30.840    0.4673
   30.855    0.4905
   30.870    0.4976
   30.885    0.5101
   30.900    0.4673
   30.915    0.4512
   30.930    0.4744
   30.945    0.4726
   30.960    0.5208
   30.975    0.4601
   30.990    0.5029
   31.005    0.5101
   31.020    0.5226
   31.035    0.4566
   31.050    0.4530
   31.065    0.4744
   31.080    0.4512
   31.095    0.4530
   31.110    0.4459
   31.125    0.4477
   31.140    0.4940
   31.155    0.4815
   31.170    0.4566
   31.185    0.4512
   31.200    0.4905
   31.215    0.4798
   31.230    0.4566
   31.245    0.4726
   31.260    0.4762
   31.275    0.5226
   31.290    0.5154
   31.305    0.5689
   31.320    0.5850
   31.335    0.6706
   31.350    0.6563
   31.365    0.8026
   31.380    0.7865
   31.395    0.7990
   31.410    0.7437
   31.425    0.6635
   31.440    0.5618
   31.455    0.5065
   31.470    0.5243
   31.485    0.4994
   31.500    0.4798
   31.515    0.4459
   31.530    0.4584
   31.545    0.4619
   31.560    0.4584
   31.575    0.4726
   31.590    0.4530
   31.605    0.4958
   31.620    0.4316
   31.635    0.4494
   31.650    0.4584
   31.665    0.4673
   31.680    0.4869
   31.695    0.4316
   31.710    0.4031
   31.725    0.4637
   31.740    0.3995
   31.755    0.4334
   31.770    0.4263
   31.785    0.4530
   31.800    0.4708
   31.815    0.4708
   31.830    0.4780
   31.845    0.4905
   31.860    0.4584
   31.875    0.5618
   31.890    0.6100
   31.905    0.6260
   31.920    0.6670
   31.935    0.6884
   31.950    0.6117
   31.965    0.6403
   31.980    0.5903
   31.995    0.5333
   32.010    0.5119
   32.025    0.4905
   32.040    0.4762
   32.055    0.4156
   32.070    0.4512
   32.085    0.4387
   32.100    0.4245
   32.115    0.4298
   32.130    0.4049
   32.145    0.4173
   32.160    0.4566
   32.175    0.4049
   32.190    0.4120
   32.205    0.4209
   32.220    0.3888
   32.235    0.4387
   32.250    0.4084
   32.265    0.4298
   32.280    0.4280
   32.295    0.4209
   32.310    0.4280
   32.325    0.4512
   32.340    0.3995
   32.355    0.4191
   32.370    0.4316
   32.385    0.4370
   32.400    0.4191
   32.415    0.4548
   32.430    0.4441
   32.445    0.4031
   32.460    0.4352
   32.475    0.4156
   32.490    0.4173
   32.505    0.3959
   32.520    0.4120
   32.535    0.3977
   32.550    0.4245
   32.565    0.4263
   32.580    0.4049
   32.595    0.4031
   32.610    0.4209
   32.625    0.3781
   32.640    0.4084
   32.655    0.4405
   32.670    0.4227
   32.685    0.4298
   32.700    0.4191
   32.715    0.3745
   32.730    0.3852
   32.745    0.4209
   32.760    0.4245
   32.775    0.3906
   32.790    0.4138
   32.805    0.3959
   32.820    0.4120
   32.835    0.4423
   32.850    0.4066
   32.865    0.4049
   32.880    0.4370
   32.895    0.3834
   32.910    0.4459
   32.925    0.4459
   32.940    0.3906
   32.955    0.4459
   32.970    0.4548
   32.985    0.4423
   33.000    0.4405
   33.015    0.4263
   33.030    0.4263
   33.045    0.4459
   33.060    0.4156
   33.075    0.3478
   33.090    0.4120
   33.105    0.4084
   33.120    0.3799
   33.135    0.4031
   33.150    0.4156
   33.165    0.3727
   33.180    0.4263
   33.195    0.4102
   33.210    0.4138
   33.225    0.4280
   33.240    0.4209
   33.255    0.4370
   33.270    0.4049
   33.285    0.3781
   33.300    0.3745
   33.315    0.3603
   33.330    0.3906
   33.345    0.4156
   33.360    0.4084
   33.375    0.4120
   33.390    0.4227
   33.405    0.4280
   33.420    0.4173
   33.435    0.3710
   33.450    0.3834
   33.465    0.4156
   33.480    0.4156
   33.495    0.4387
   33.510    0.4334
   33.525    0.4477
   33.540    0.4173
   33.555    0.3834
   33.570    0.4584
   33.585    0.4655
   33.600    0.4298
   33.615    0.4459
   33.630    0.4566
   33.645    0.4601
   33.660    0.4601
   33.675    0.4370
   33.690    0.4601
   33.705    0.4263
   33.720    0.4245
   33.735    0.4049
   33.750    0.4370
   33.765    0.4387
   33.780    0.4013
   33.795    0.4405
   33.810    0.3977
   33.825    0.4245
   33.840    0.4316
   33.855    0.4156
   33.870    0.4227
   33.885    0.4441
   33.900    0.4031
   33.915    0.4156
   33.930    0.3977
   33.945    0.4209
   33.960    0.4173
   33.975    0.3924
   33.990    0.3959
   34.005    0.3906
   34.020    0.3906
   34.035    0.3995
   34.050    0.4013
   34.065    0.3942
   34.080    0.4298
   34.095    0.3870
   34.110    0.4370
   34.125    0.4031
   34.140    0.3906
   34.155    0.4316
   34.170    0.4013
   34.185    0.3603
   34.200    0.3674
   34.215    0.3942
   34.230    0.3924
   34.245    0.3603
   34.260    0.3995
   34.275    0.3727
   34.290    0.4352
   34.305    0.4031
   34.320    0.3692
   34.335    0.4173
   34.350    0.3710
   34.365    0.3834
   34.380    0.3870
   34.395    0.3959
   34.410    0.4084
   34.425    0.3157
   34.440    0.3620
   34.455    0.3799
   34.470    0.3692
   34.485    0.3727
   34.500    0.3442
   34.515    0.3781
   34.530    0.3692
   34.545    0.3906
   34.560    0.3638
   34.575    0.3781
   34.590    0.4102
   34.605    0.3638
   34.620    0.3282
   34.635    0.3406
   34.650    0.3620
   34.665    0.3353
   34.680    0.3496
   34.695    0.3335
   34.710    0.3228
   34.725    0.3531
   34.740    0.3496
   34.755    0.3371
   34.770    0.3513
   34.785    0.3620
   34.800    0.3531
   34.815    0.3389
   34.830    0.3246
   34.845    0.3460
   34.860    0.3656
   34.875    0.3264
   34.890    0.3389
   34.905    0.3496
   34.920    0.3674
   34.935    0.3335
   34.950    0.3192
   34.965    0.3799
   34.980    0.3603
   34.995    0.3567
   35.010    0.3781
   35.025    0.3299
   35.040    0.3513
   35.055    0.3674
   35.070    0.3406
   35.085    0.3406
   35.100    0.3781
   35.115    0.3620
   35.130    0.3781
   35.145    0.3620
   35.160    0.3620
   35.175    0.3799
   35.190    0.3513
   35.205    0.3371
   35.220    0.3210
   35.235    0.3442
   35.250    0.3781
   35.265    0.3513
   35.280    0.3121
   35.295    0.3406
   35.310    0.2907
   35.325    0.3567
   35.340    0.3496
   35.355    0.3442
   35.370    0.3531
   35.385    0.3781
   35.400    0.4173
   35.415    0.3496
   35.430    0.3478
   35.445    0.3121
   35.460    0.3085
   35.475    0.3371
   35.490    0.3299
   35.505    0.3371
   35.520    0.3014
   35.535    0.3157
   35.550    0.3603
   35.565    0.3246
   35.580    0.3192
   35.595    0.3121
   35.610    0.3335
   35.625    0.3888
   35.640    0.3924
   35.655    0.3496
   35.670    0.3335
   35.685    0.3406
   35.700    0.3460
   35.715    0.2907
   35.730    0.3068
   35.745    0.3389
   35.760    0.3121
   35.775    0.2925
   35.790    0.3282
   35.805    0.3299
   35.820    0.2871
   35.835    0.3353
   35.850    0.2996
   35.865    0.3175
   35.880    0.3157
   35.895    0.3282
   35.910    0.3103
   35.925    0.3513
   35.940    0.2961
   35.955    0.2782
   35.970    0.2836
   35.985    0.2943
   36.000    0.3371
   36.015    0.3264
   36.030    0.3531
   36.045    0.3264
   36.060    0.3549
   36.075    0.3246
   36.090    0.3496
   36.105    0.3050
   36.120    0.3175
   36.135    0.3192
   36.150    0.3264
   36.165    0.3299
   36.180    0.2943
   36.195    0.2925
   36.210    0.3317
   36.225    0.3353
   36.240    0.3192
   36.255    0.2943
   36.270    0.3192
   36.285    0.3032
   36.300    0.2978
   36.315    0.2889
   36.330    0.3085
   36.345    0.2889
   36.360    0.3014
   36.375    0.3014
   36.390    0.2871
   36.405    0.2747
   36.420    0.2925
   36.435    0.2782
   36.450    0.3032
   36.465    0.3389
   36.480    0.2854
   36.495    0.2854
   36.510    0.2747
   36.525    0.3192
   36.540    0.3192
   36.555    0.2943
   36.570    0.3282
   36.585    0.3014
   36.600    0.3175
   36.615    0.3157
   36.630    0.3246
   36.645    0.3068
   36.660    0.3032
   36.675    0.2961
   36.690    0.3032
   36.705    0.2907
   36.720    0.2711
   36.735    0.2925
   36.750    0.3282
   36.765    0.3103
   36.780    0.2764
   36.795    0.3085
   36.810    0.3121
   36.825    0.2889
   36.840    0.3246
   36.855    0.3299
   36.870    0.3121
   36.885    0.3139
   36.900    0.2818
   36.915    0.2961
   36.930    0.2943
   36.945    0.2764
   36.960    0.2889
   36.975    0.3032
   36.990    0.2961
   37.005    0.2764
   37.020    0.3032
   37.035    0.3139
   37.050    0.3175
   37.065    0.3246
   37.080    0.3157
   37.095    0.3050
   37.110    0.2907
   37.125    0.3371
   37.140    0.3299
   37.155    0.3924
   37.170    0.3603
   37.185    0.3050
   37.200    0.3210
   37.215    0.3353
   37.230    0.3032
   37.245    0.2871
   37.260    0.2871
   37.275    0.2854
   37.290    0.2889
   37.305    0.2782
   37.320    0.3192
   37.335    0.2675
   37.350    0.2889
   37.365    0.2996
   37.380    0.2925
   37.395    0.2978
   37.410    0.2925
   37.425    0.2978
   37.440    0.2818
   37.455    0.2729
   37.470    0.3246
   37.485    0.2907
   37.500    0.2889
   37.515    0.2800
   37.530    0.3192
   37.545    0.3068
   37.560    0.3299
   37.575    0.3246
   37.590    0.3246
   37.605    0.3085
   37.620    0.2907
   37.635    0.2764
   37.650    0.2961
   37.665    0.3353
   37.680    0.2996
   37.695    0.2925
   37.710    0.2889
   37.725    0.2818
   37.740    0.2515
   37.755    0.2961
   37.770    0.3192
   37.785    0.2675
   37.800    0.3050
   37.815    0.3175
   37.830    0.2925
   37.845    0.2443
   37.860    0.2533
   37.875    0.2693
   37.890    0.2764
   37.905    0.2586
   37.920    0.3103
   37.935    0.2586
   37.950    0.2764
   37.965    0.2996
   37.980    0.2764
   37.995    0.2729
   38.010    0.2747
   38.025    0.3068
   38.040    0.2961
   38.055    0.2408
   38.070    0.2711
   38.085    0.2622
   38.100    0.2871
   38.115    0.3014
   38.130    0.2854
   38.145    0.3282
   38.160    0.3139
   38.175    0.2854
   38.190    0.2675
   38.205    0.3175
   38.220    0.2836
   38.235    0.2461
   38.250    0.3032
   38.265    0.2889
   38.280    0.3068
   38.295    0.3085
   38.310    0.2497
   38.325    0.2800
   38.340    0.2640
   38.355    0.2836
   38.370    0.2782
   38.385    0.2818
   38.400    0.2657
   38.415    0.2461
   38.430    0.2729
   38.445    0.2586
   38.460    0.2533
   38.475    0.2586
   38.490    0.2497
   38.505    0.2711
   38.520    0.2657
   38.535    0.2336
   38.550    0.2533
   38.565    0.2693
   38.580    0.2764
   38.595    0.2622
   38.610    0.2961
   38.625    0.2354
   38.640    0.2354
   38.655    0.2372
   38.670    0.2319
   38.685    0.2550
   38.700    0.2711
   38.715    0.2550
   38.730    0.2961
   38.745    0.2889
   38.760    0.2996
   38.775    0.2604
   38.790    0.2461
   38.805    0.2568
   38.820    0.2675
   38.835    0.2943
   38.850    0.2604
   38.865    0.2729
   38.880    0.3014
   38.895    0.2604
   38.910    0.2729
   38.925    0.2604
   38.940    0.2622
   38.955    0.2265
   38.970    0.2693
   38.985    0.2854
   39.000    0.2586
   39.015    0.2604
   39.030    0.2390
   39.045    0.2301
   39.060    0.2354
   39.075    0.2443
   39.090    0.2782
   39.105    0.2978
   39.120    0.2871
   39.135    0.2426
   39.150    0.2212
   39.165    0.2212
   39.180    0.2265
   39.195    0.2408
   39.210    0.2568
   39.225    0.2818
   39.240    0.2533
   39.255    0.2461
   39.270    0.2319
   39.285    0.2550
   39.300    0.2675
   39.315    0.2818
   39.330    0.2818
   39.345    0.2747
   39.360    0.2657
   39.375    0.2764
   39.390    0.2479
   39.405    0.2336
   39.420    0.2533
   39.435    0.2229
   39.450    0.2515
   39.465    0.2586
   39.480    0.2390
   39.495    0.2657
   39.510    0.2943
   39.525    0.2764
   39.540    0.2408
   39.555    0.2229
   39.570    0.2533
   39.585    0.2319
   39.600    0.2497
   39.615    0.2426
   39.630    0.2426
   39.645    0.2497
   39.660    0.2497
   39.675    0.2764
   39.690    0.2657
   39.705    0.2408
   39.720    0.2889
   39.735    0.3246
   39.750    0.2693
   39.765    0.2283
   39.780    0.2693
   39.795    0.2550
   39.810    0.2550
   39.825    0.2229
   39.840    0.2140
   39.855    0.2372
   39.870    0.2336
   39.885    0.2550
   39.900    0.2390
   39.915    0.2372
   39.930    0.2640
   39.945    0.2550
   39.960    0.2426
   39.975    0.2140
   39.990    0.2461
