    1.500   29.1733
    1.515   29.8684
    1.530   28.4676
    1.545   28.5519
    1.560   28.1095
    1.575   28.8678
    1.590   27.4250
    1.605   26.4666
    1.620   25.2449
    1.635   24.8868
    1.650   26.7404
    1.665   25.4766
    1.680   25.6345
    1.695   25.5503
    1.710   25.0026
    1.725   24.6340
    1.740   24.3602
    1.755   23.6230
    1.770   23.8020
    1.785   23.3386
    1.800   24.1601
    1.815   24.0653
    1.830   23.6440
    1.845   23.2438
    1.860   23.8652
    1.875   23.3491
    1.890   22.9489
    1.905   23.0016
    1.920   22.4434
    1.935   22.3697
    1.950   21.9800
    1.965   22.2538
    1.980   22.0853
    1.995   22.0011
    2.010   22.5382
    2.025   22.2644
    2.040   21.9063
    2.055   21.3586
    2.070   22.1380
    2.085   21.6640
    2.100   21.9484
    2.115   21.8009
    2.130   21.9273
    2.145   21.9589
    2.160   22.3802
    2.175   22.6540
    2.190   22.2959
    2.205   21.8009
    2.220   22.2644
    2.235   22.8857
    2.250   22.7593
    2.265   22.5698
    2.280   22.7383
    2.295   22.8541
    2.310   23.1280
    2.325   22.3275
    2.340   22.2117
    2.355   22.4118
    2.370   23.1069
    2.385   23.2017
    2.400   23.0964
    2.415   23.3491
    2.430   24.0442
    2.445   24.0653
    2.460   23.6862
    2.475   24.6340
    2.490   25.1711
    2.505   25.4555
    2.520   25.6872
    2.535   25.4239
    2.550   25.3081
    2.565   25.2765
    2.580   25.7715
    2.595   26.1085
    2.610   27.3091
    2.625   27.0458
    2.640   27.7620
    2.655   28.2780
    2.670   29.2575
    2.685   29.2048
    2.700   29.5313
    2.715   29.4471
    2.730   30.6161
    2.745   31.0479
    2.760   31.6272
    2.775   32.9753
    2.790   34.0074
    2.805   33.3439
    2.820   33.6914
    2.835   34.0284
    2.850   34.9552
    2.865   35.6714
    2.880   36.8931
    2.895   38.3254
    2.910   38.3886
    2.925   39.3892
    2.940   40.5371
    2.955   41.0216
    2.970   42.3907
    2.985   42.9173
    3.000   44.0548
    3.015   45.7820
    3.030   46.5719
    3.045   47.4882
    3.060   49.0995
    3.075   50.5529
    3.090   52.4065
    3.105   55.1764
    3.120   55.8294
    3.135   57.9042
    3.150   60.3054
    3.165   62.8120
    3.180   64.1285
    3.195   65.7504
    3.210   68.9626
    3.225   71.3112
    3.240   74.5445
    3.255   79.0837
    3.270   81.8220
    3.285   85.7820
    3.300   90.2686
    3.315   94.7130
    3.330   99.4523
    3.345  105.8241
    3.360  112.3328
    3.375  117.0195
    3.390  123.1490
    3.405  129.9421
    3.420  134.0600
    3.435  139.4313
    3.450  140.5055
    3.465  138.6835
    3.480  132.8910
    3.495  123.3807
    3.510  111.3218
    3.525   97.6725
    3.540   84.4129
    3.555   74.0811
    3.570   66.0664
    3.585   58.4939
    3.600   53.3860
    3.615   50.2791
    3.630   48.8994
    3.645   46.1506
    3.660   45.7399
    3.675   45.1080
    3.690   44.7077
    3.705   46.3086
    3.720   45.5292
    3.735   45.7293
    3.750   46.4244
    3.765   46.9405
    3.780   48.5203
    3.795   49.2996
    3.810   51.3323
    3.825   51.3849
    3.840   52.3749
    3.855   55.3133
    3.870   55.6503
    3.885   57.3565
    3.900   56.9879
    3.915   58.7678
    3.930   60.3792
    3.945   62.5171
    3.960   62.6751
    3.975   61.5693
    3.990   61.7904
    4.005   63.2859
    4.020   63.4966
    4.035   62.0537
    4.050   61.4639
    4.065   59.6314
    4.080   58.4729
    4.095   55.1553
    4.110   53.0911
    4.125   51.3849
    4.140   49.9315
    4.155   46.8457
    4.170   44.7920
    4.185   42.5803
    4.200   40.0105
    4.215   37.0195
    4.230   35.6082
    4.245   32.7541
    4.260   30.3739
    4.275   28.3834
    4.290   27.5619
    4.305   26.0242
    4.320   24.1496
    4.335   22.4855
    4.350   21.2428
    4.365   20.1790
    4.380   18.4097
    4.395   17.8410
    4.410   16.8615
    4.425   15.8926
    4.440   15.2080
    4.455   14.5234
    4.470   14.3444
    4.485   13.4387
    4.500   13.4176
    4.515   12.8594
    4.530   12.4697
    4.545   12.2275
    4.560   11.6166
    4.575   11.2375
    4.590   10.8373
    4.605   10.2475
    4.620   10.4160
    4.635   10.0263
    4.650    9.9631
    4.665    9.4576
    4.680    9.6051
    4.695    9.7420
    4.710    9.1943
    4.725    9.5103
    4.740    8.9310
    4.755    8.8678
    4.770    8.7414
    4.785    8.5729
    4.800    8.2991
    4.815    8.0463
    4.830    8.5413
    4.845    8.7204
    4.860    8.5624
    4.875    7.7199
    4.890    8.0042
    4.905    8.0463
    4.920    7.8778
    4.935    7.4882
    4.950    8.0463
    4.965    7.9937
    4.980    8.1411
    4.995    7.6356
    5.010    7.8146
    5.025    7.8357
    5.040    7.8568
    5.055    7.4566
    5.070    7.7936
    5.085    7.5092
    5.100    7.2459
    5.115    7.4987
    5.130    7.3302
    5.145    7.0774
    5.160    7.3091
    5.175    7.4671
    5.190    7.2038
    5.205    6.9932
    5.220    7.4776
    5.235    7.4144
    5.250    7.3934
    5.265    7.4776
    5.280    7.2565
    5.295    7.1511
    5.310    7.6461
    5.325    6.9194
    5.340    6.9616
    5.355    6.6667
    5.370    7.2459
    5.385    7.3196
    5.400    6.8984
    5.415    6.6877
    5.430    6.5719
    5.445    6.4455
    5.460    6.6667
    5.475    6.5929
    5.490    6.9300
    5.505    6.9405
    5.520    6.7720
    5.535    6.9194
    5.550    6.3718
    5.565    6.4666
    5.580    6.3928
    5.595    6.6245
    5.610    6.5508
    5.625    6.2033
    5.640    6.7088
    5.655    6.4982
    5.670    6.3718
    5.685    6.3296
    5.700    6.3507
    5.715    6.2875
    5.730    6.6351
    5.745    6.8036
    5.760    7.0985
    5.775    6.2454
    5.790    6.5719
    5.805    6.4876
    5.820    6.1085
    5.835    5.8978
    5.850    5.7609
    5.865    6.5192
    5.880    6.7509
    5.895    6.6877
    5.910    6.2138
    5.925    6.0769
    5.940    6.6245
    5.955    6.7720
    5.970    6.3191
    5.985    6.0874
    6.000    6.2875
    6.015    6.1085
    6.030    6.3402
    6.045    6.3086
    6.060    5.9610
    6.075    6.3191
    6.090    6.5508
    6.105    6.9932
    6.120    6.3718
    6.135    6.4139
    6.150    6.4666
    6.165    6.4244
    6.180    6.2138
    6.195    6.1927
    6.210    6.4666
    6.225    7.1511
    6.240    6.7720
    6.255    6.9194
    6.270    6.8352
    6.285    6.8668
    6.300    6.9826
    6.315    6.5719
    6.330    7.0563
    6.345    6.8246
    6.360    7.2670
    6.375    7.0037
    6.390    6.9826
    6.405    7.1827
    6.420    7.4776
    6.435    6.9616
    6.450    7.3828
    6.465    7.2354
    6.480    7.7936
    6.495    8.1306
    6.510    7.9200
    6.525    7.7304
    6.540    8.1095
    6.555    8.3307
    6.570    8.4676
    6.585    8.5519
    6.600    8.3202
    6.615    8.6256
    6.630    8.9415
    6.645    8.9205
    6.660    8.9205
    6.675    9.2154
    6.690    9.2996
    6.705   10.0263
    6.720   10.3423
    6.735   10.3528
    6.750   10.7320
    6.765   11.5534
    6.780   12.0169
    6.795   12.3960
    6.810   12.5434
    6.825   13.3017
    6.840   14.0495
    6.855   14.5550
    6.870   15.3449
    6.885   16.4086
    6.900   16.4613
    6.915   18.0095
    6.930   18.3570
    6.945   18.2622
    6.960   18.8836
    6.975   18.5993
    6.990   17.6303
    7.005   16.3981
    7.020   15.1869
    7.035   13.6704
    7.050   12.3117
    7.065   10.9953
    7.080   10.4160
    7.095    9.3944
    7.110    9.2996
    7.125    8.5413
    7.140    8.0885
    7.155    7.7093
    7.170    7.9200
    7.185    7.6040
    7.200    7.2565
    7.215    7.4776
    7.230    7.5513
    7.245    7.5935
    7.260    6.8352
    7.275    6.8036
    7.290    7.1195
    7.305    6.6983
    7.320    6.5508
    7.335    7.1090
    7.350    6.9932
    7.365    6.7825
    7.380    6.7720
    7.395    6.8141
    7.410    6.7299
    7.425    7.4355
    7.440    7.1722
    7.455    7.1722
    7.470    7.1195
    7.485    7.4987
    7.500    7.1195
    7.515    7.0037
    7.530    7.1406
    7.545    7.4776
    7.560    7.3302
    7.575    7.3618
    7.590    7.4566
    7.605    7.6040
    7.620    7.6988
    7.635    7.8252
    7.650    7.8673
    7.665    7.8778
    7.680    7.6356
    7.695    8.4150
    7.710    8.1833
    7.725    7.8568
    7.740    8.4044
    7.755    8.3307
    7.770    8.4360
    7.785    8.6888
    7.800    8.6888
    7.815    8.2991
    7.830    8.6467
    7.845    9.0679
    7.860    9.1101
    7.875    8.8468
    7.890    8.6572
    7.905    9.2575
    7.920   10.1316
    7.935    9.9842
    7.950    9.8473
    7.965    9.6893
    7.980   10.1632
    7.995    9.8999
    8.010    9.6893
    8.025   10.2791
    8.040   10.5213
    8.055   10.2264
    8.070   10.1843
    8.085   10.8794
    8.100   10.8373
    8.115   10.4371
    8.130   10.5213
    8.145   10.7530
    8.160   10.4581
    8.175   10.4371
    8.190   10.2054
    8.205   10.1632
    8.220   10.5529
    8.235   10.1527
    8.250   10.1738
    8.265   10.4265
    8.280    9.9105
    8.295   10.3002
    8.310   10.1632
    8.325   10.0158
    8.340    9.4471
    8.355    9.5629
    8.370    9.7736
    8.385    9.5419
    8.400    9.2154
    8.415    9.3418
    8.430    9.2364
    8.445    9.3734
    8.460    8.6888
    8.475    8.4781
    8.490    8.1938
    8.505    8.3096
    8.520    7.9305
    8.535    8.2570
    8.550    8.0042
    8.565    8.1201
    8.580    8.1306
    8.595    7.7409
    8.610    7.8778
    8.625    7.8989
    8.640    7.7093
    8.655    7.6145
    8.670    7.5408
    8.685    7.0774
    8.700    7.2565
    8.715    7.4144
    8.730    7.3723
    8.745    7.4355
    8.760    7.2986
    8.775    7.3723
    8.790    7.0774
    8.805    6.5613
    8.820    6.8457
    8.835    7.2565
    8.850    6.9932
    8.865    6.5508
    8.880    6.5192
    8.895    6.5613
    8.910    6.4876
    8.925    6.4455
    8.940    6.4455
    8.955    6.5508
    8.970    6.5192
    8.985    6.3191
    9.000    6.4034
    9.015    6.1401
    9.030    5.9084
    9.045    5.9505
    9.060    6.2559
    9.075    5.8452
    9.090    6.1717
    9.105    6.2033
    9.120    6.4982
    9.135    6.1506
    9.150    6.2138
    9.165    6.1085
    9.180    6.2349
    9.195    5.9084
    9.210    5.8557
    9.225    6.0769
    9.240    6.0242
    9.255    6.2033
    9.270    6.1401
    9.285    5.6977
    9.300    5.9821
    9.315    5.7083
    9.330    6.0137
    9.345    5.8873
    9.360    5.9716
    9.375    5.7504
    9.390    5.8452
    9.405    5.8031
    9.420    5.9505
    9.435    6.0348
    9.450    5.9084
    9.465    5.9821
    9.480    6.1190
    9.495    5.8452
    9.510    6.0242
    9.525    5.7188
    9.540    5.7925
    9.555    5.7399
    9.570    5.7504
    9.585    5.8978
    9.600    5.6767
    9.615    5.6240
    9.630    5.5292
    9.645    5.7293
    9.660    5.7715
    9.675    5.8241
    9.690    5.8452
    9.705    5.7188
    9.720    5.9400
    9.735    5.9926
    9.750    5.4660
    9.765    5.6029
    9.780    5.8873
    9.795    5.4344
    9.810    5.8031
    9.825    5.7188
    9.840    5.7293
    9.855    5.8347
    9.870    5.7083
    9.885    5.4555
    9.900    5.6661
    9.915    5.5503
    9.930    5.8768
    9.945    5.5398
    9.960    5.6661
    9.975    5.6451
    9.990    5.6872
   10.005    5.4660
   10.020    5.6767
   10.035    5.6556
   10.050    5.4344
   10.065    5.8241
   10.080    5.7083
   10.095    5.7715
   10.110    5.8768
   10.125    6.1295
   10.140    6.0137
   10.155    5.9400
   10.170    6.0558
   10.185    6.0558
   10.200    6.0137
   10.215    5.7715
   10.230    5.8978
   10.245    6.1401
   10.260    5.9610
   10.275    5.8873
   10.290    5.9294
   10.305    6.1085
   10.320    5.9189
   10.335    6.4560
   10.350    6.0558
   10.365    5.9189
   10.380    6.5298
   10.395    6.4560
   10.410    6.4982
   10.425    6.2138
   10.440    6.0979
   10.455    6.8141
   10.470    6.5824
   10.485    6.5087
   10.500    6.6667
   10.515    6.8246
   10.530    6.3612
   10.545    6.1717
   10.560    6.4455
   10.575    6.2454
   10.590    5.7715
   10.605    6.1295
   10.620    5.9189
   10.635    6.1190
   10.650    5.9610
   10.665    5.8557
   10.680    5.9610
   10.695    5.4976
   10.710    5.1606
   10.725    5.6977
   10.740    5.8873
   10.755    5.7188
   10.770    5.9189
   10.785    5.5398
   10.800    5.7715
   10.815    5.3186
   10.830    5.4871
   10.845    5.6345
   10.860    5.7293
   10.875    5.2659
   10.890    5.5608
   10.905    5.6977
   10.920    5.7925
   10.935    5.4555
   10.950    5.6451
   10.965    5.6977
   10.980    5.6767
   10.995    5.5398
   11.010    5.6977
   11.025    5.6029
   11.040    5.5714
   11.055    5.6240
   11.070    5.6345
   11.085    5.7715
   11.100    5.7925
   11.115    5.5082
   11.130    5.9821
   11.145    5.8557
   11.160    5.5608
   11.175    5.3291
   11.190    5.8662
   11.205    5.7399
   11.220    5.6029
   11.235    5.6661
   11.250    6.1401
   11.265    5.9400
   11.280    5.7820
   11.295    5.8768
   11.310    5.6872
   11.325    5.4871
   11.340    5.5924
   11.355    5.7609
   11.370    5.5714
   11.385    5.7083
   11.400    5.9084
   11.415    5.8241
   11.430    5.5292
   11.445    5.4660
   11.460    5.7609
   11.475    5.4766
   11.490    6.2243
   11.505    5.8031
   11.520    5.3502
   11.535    5.5714
   11.550    5.5292
   11.565    5.7925
   11.580    5.7399
   11.595    6.2349
   11.610    5.9926
   11.625    5.7188
   11.640    6.0348
   11.655    5.9400
   11.670    6.0348
   11.685    5.7820
   11.700    5.6556
   11.715    5.9084
   11.730    5.9821
   11.745    6.0664
   11.760    6.0137
   11.775    6.0769
   11.790    5.8873
   11.805    5.8347
   11.820    5.9189
   11.835    6.0664
   11.850    6.2559
   11.865    5.5714
   11.880    5.9400
   11.895    6.4139
   11.910    6.6035
   11.925    5.8873
   11.940    5.8978
   11.955    5.6029
   11.970    6.3718
   11.985    6.1085
   12.000    6.1927
   12.015    6.2138
   12.030    6.2349
   12.045    6.1085
   12.060    6.0137
   12.075    6.3612
   12.090    6.2138
   12.105    6.0032
   12.120    6.0874
   12.135    6.2981
   12.150    6.1085
   12.165    6.0979
   12.180    6.5613
   12.195    6.4560
   12.210    6.1717
   12.225    6.2770
   12.240    6.3191
   12.255    6.2875
   12.270    6.4560
   12.285    6.7299
   12.300    6.5929
   12.315    6.2559
   12.330    6.4455
   12.345    6.6035
   12.360    6.4876
   12.375    6.1927
   12.390    6.3086
   12.405    6.4034
   12.420    6.3086
   12.435    6.4666
   12.450    6.4350
   12.465    5.7188
   12.480    6.1295
   12.495    6.2559
   12.510    6.3191
   12.525    5.8768
   12.540    5.9821
   12.555    6.2875
   12.570    6.4244
   12.585    6.0979
   12.600    6.0769
   12.615    6.2454
   12.630    6.2349
   12.645    6.0558
   12.660    6.1190
   12.675    6.5192
   12.690    6.4244
   12.705    6.1085
   12.720    5.8662
   12.735    5.9821
   12.750    6.1927
   12.765    6.2770
   12.780    5.9821
   12.795    6.2559
   12.810    6.3507
   12.825    6.8246
   12.840    6.4876
   12.855    6.0979
   12.870    6.0979
   12.885    6.2875
   12.900    6.0664
   12.915    6.1190
   12.930    6.0979
   12.945    6.0137
   12.960    6.0348
   12.975    6.0137
   12.990    5.8873
   13.005    5.9926
   13.020    5.9610
   13.035    5.9084
   13.050    6.1085
   13.065    5.7925
   13.080    5.8662
   13.095    6.0137
   13.110    6.0348
   13.125    5.7504
   13.140    5.9610
   13.155    6.0979
   13.170    5.9716
   13.185    6.0242
   13.200    5.8978
   13.215    5.5292
   13.230    6.0348
   13.245    6.1822
   13.260    5.7399
   13.275    5.7609
   13.290    5.5608
   13.305    5.8662
   13.320    5.8347
   13.335    5.6029
   13.350    5.9084
   13.365    6.0348
   13.380    6.0664
   13.395    5.8768
   13.410    5.7083
   13.425    5.9084
   13.440    6.2665
   13.455    6.1927
   13.470    6.2454
   13.485    6.4350
   13.500    5.9400
   13.515    5.8662
   13.530    5.7925
   13.545    5.8136
   13.560    5.8452
   13.575    5.8557
   13.590    5.6029
   13.605    5.6872
   13.620    5.9189
   13.635    5.9084
   13.650    6.1190
   13.665    6.2454
   13.680    6.0874
   13.695    5.9926
   13.710    6.1717
   13.725    5.9926
   13.740    6.0664
   13.755    6.5508
   13.770    5.8452
   13.785    6.0558
   13.800    6.3402
   13.815    6.0664
   13.830    5.9610
   13.845    5.9400
   13.860    5.7504
   13.875    5.7715
   13.890    5.8031
   13.905    6.1401
   13.920    5.9400
   13.935    5.5398
   13.950    5.8031
   13.965    5.6977
   13.980    5.9189
   13.995    5.8557
   14.010    6.0032
   14.025    5.9926
   14.040    5.5924
   14.055    6.1506
   14.070    5.7609
   14.085    5.7504
   14.100    5.7504
   14.115    5.4344
   14.130    5.8347
   14.145    5.6977
   14.160    5.5714
   14.175    5.8136
   14.190    5.4871
   14.205    5.3712
   14.220    5.6240
   14.235    5.6029
   14.250    5.8452
   14.265    5.6556
   14.280    5.5714
   14.295    5.0237
   14.310    5.6345
   14.325    5.5398
   14.340    5.4976
   14.355    5.5187
   14.370    5.5714
   14.385    5.6767
   14.400    5.5503
   14.415    5.4555
   14.430    5.5819
   14.445    5.4766
   14.460    5.7293
   14.475    5.6345
   14.490    5.8978
   14.505    5.4344
   14.520    5.4555
   14.535    5.5398
   14.550    5.6556
   14.565    5.4555
   14.580    5.6451
   14.595    5.8873
   14.610    5.5924
   14.625    5.3923
   14.640    5.4660
   14.655    5.4028
   14.670    5.2449
   14.685    5.4660
   14.700    5.4555
   14.715    5.7083
   14.730    5.4976
   14.745    5.3502
   14.760    5.5187
   14.775    5.3081
   14.790    5.3081
   14.805    5.3186
   14.820    5.5714
   14.835    5.6872
   14.850    5.4660
   14.865    5.4239
   14.880    5.2659
   14.895    5.6345
   14.910    5.4871
   14.925    5.4976
   14.940    5.4766
   14.955    5.3607
   14.970    5.6029
   14.985    5.4239
   15.000    5.4555
   15.015    5.4555
   15.030    5.4976
   15.045    5.5608
   15.060    5.6240
   15.075    5.4976
   15.090    5.5924
   15.105    5.4660
   15.120    5.9294
   15.135    5.6029
   15.150    5.6345
   15.165    5.4028
   15.180    5.4976
   15.195    5.4660
   15.210    5.7609
   15.225    5.4239
   15.240    5.3607
   15.255    5.5608
   15.270    5.6977
   15.285    5.6767
   15.300    5.8557
   15.315    5.6240
   15.330    5.7083
   15.345    5.3502
   15.360    5.2870
   15.375    5.5924
   15.390    5.4976
   15.405    5.7083
   15.420    5.8031
   15.435    5.8452
   15.450    5.8347
   15.465    5.4134
   15.480    5.7188
   15.495    5.6451
   15.510    6.2033
   15.525    5.5819
   15.540    5.7504
   15.555    5.8557
   15.570    5.6661
   15.585    5.8452
   15.600    5.9400
   15.615    5.4766
   15.630    5.6135
   15.645    6.0137
   15.660    5.4450
   15.675    5.5398
   15.690    5.3081
   15.705    5.6977
   15.720    5.8031
   15.735    5.8978
   15.750    5.5503
   15.765    5.4239
   15.780    5.2870
   15.795    5.5398
   15.810    5.8873
   15.825    5.7293
   15.840    5.7504
   15.855    5.4660
   15.870    5.4555
   15.885    5.4766
   15.900    5.8347
   15.915    5.6977
   15.930    5.7715
   15.945    5.4344
   15.960    5.5082
   15.975    5.3397
   15.990    5.5714
   16.005    5.5082
   16.020    5.4344
   16.035    5.9084
   16.050    5.8241
   16.065    5.6135
   16.080    5.8136
   16.095    5.8347
   16.110    5.7399
   16.125    5.5292
   16.140    5.5503
   16.155    5.8662
   16.170    5.8031
   16.185    5.7083
   16.200    5.5714
   16.215    5.4028
   16.230    5.3818
   16.245    5.8136
   16.260    5.4871
   16.275    5.6240
   16.290    5.6135
   16.305    5.6872
   16.320    5.4976
   16.335    5.5292
   16.350    5.5187
   16.365    5.5924
   16.380    5.6240
   16.395    5.3712
   16.410    5.2659
   16.425    5.5714
   16.440    5.6029
   16.455    5.7504
   16.470    5.8557
   16.485    5.5503
   16.500    5.7188
   16.515    5.8978
   16.530    5.3818
   16.545    5.5292
   16.560    5.1922
   16.575    5.3502
   16.590    5.0553
   16.605    5.1817
   16.620    5.6345
   16.635    5.7504
   16.650    5.2238
   16.665    5.3397
   16.680    5.4344
   16.695    5.1817
   16.710    5.1817
   16.725    5.2343
   16.740    5.5819
   16.755    5.5187
   16.770    5.5714
   16.785    5.5714
   16.800    5.4450
   16.815    5.2870
   16.830    5.3502
   16.845    5.4976
   16.860    5.4871
   16.875    5.3607
   16.890    5.5398
   16.905    5.2449
   16.920    5.2343
   16.935    5.4450
   16.950    5.5187
   16.965    5.6345
   16.980    5.4344
   16.995    5.5608
   17.010    5.2554
   17.025    5.5082
   17.040    5.5082
   17.055    5.4555
   17.070    5.7925
   17.085    5.1080
   17.100    5.1817
   17.115    5.4555
   17.130    5.5503
   17.145    5.5714
   17.160    5.3186
   17.175    5.3081
   17.190    5.4450
   17.205    5.1922
   17.220    5.5714
   17.235    5.3186
   17.250    5.5187
   17.265    5.6345
   17.280    5.5082
   17.295    5.5398
   17.310    5.2975
   17.325    5.2554
   17.340    5.6029
   17.355    5.5608
   17.370    5.5292
   17.385    5.4871
   17.400    5.7820
   17.415    5.8557
   17.430    5.3923
   17.445    5.7504
   17.460    5.5187
   17.475    5.3397
   17.490    5.2765
   17.505    5.4976
   17.520    5.3291
   17.535    5.4344
   17.550    5.9926
   17.565    5.5187
   17.580    5.6767
   17.595    5.7083
   17.610    5.5924
   17.625    5.6345
   17.640    5.3081
   17.655    5.9294
   17.670    6.1295
   17.685    5.5503
   17.700    5.2870
   17.715    5.8241
   17.730    5.4976
   17.745    5.3397
   17.760    5.4660
   17.775    5.8557
   17.790    5.4450
   17.805    5.6556
   17.820    5.7504
   17.835    5.5819
   17.850    5.3607
   17.865    5.7925
   17.880    5.7504
   17.895    5.7399
   17.910    5.6556
   17.925    5.8031
   17.940    5.6661
   17.955    5.2659
   17.970    5.4239
   17.985    5.2343
   18.000    5.4871
   18.015    5.3818
   18.030    5.1080
   18.045    5.2870
   18.060    5.4871
   18.075    5.4028
   18.090    5.5924
   18.105    5.7504
   18.120    5.4555
   18.135    5.6135
   18.150    5.4871
   18.165    6.0032
   18.180    5.4660
   18.195    5.9084
   18.210    5.5924
   18.225    5.5292
   18.240    5.6872
   18.255    5.7820
   18.270    5.2554
   18.285    5.4871
   18.300    5.5819
   18.315    5.5714
   18.330    5.2554
   18.345    5.3397
   18.360    5.5082
   18.375    5.5503
   18.390    5.2554
   18.405    5.3186
   18.420    5.4660
   18.435    5.7188
   18.450    5.7293
   18.465    5.7504
   18.480    5.1817
   18.495    5.5082
   18.510    5.5503
   18.525    5.6661
   18.540    5.5082
   18.555    5.4871
   18.570    5.4660
   18.585    5.4871
   18.600    5.3186
   18.615    5.7609
   18.630    5.5819
   18.645    5.4555
   18.660    5.6977
   18.675    5.7293
   18.690    5.5398
   18.705    5.7293
   18.720    5.7083
   18.735    5.4766
   18.750    5.7504
   18.765    5.7715
   18.780    5.2659
   18.795    5.5187
   18.810    5.9821
   18.825    5.6240
   18.840    5.3607
   18.855    5.6451
   18.870    5.6661
   18.885    5.7504
   18.900    5.8662
   18.915    5.8873
   18.930    6.1085
   18.945    6.1401
   18.960    6.9826
   18.975    6.7930
   18.990    7.0669
   19.005    6.7615
   19.020    7.0353
   19.035    6.5929
   19.050    6.1822
   19.065    5.8452
   19.080    5.7820
   19.095    5.9084
   19.110    6.0242
   19.125    6.0348
   19.140    5.7609
   19.155    5.6135
   19.170    5.8978
   19.185    5.7504
   19.200    5.7399
   19.215    5.4134
   19.230    5.6345
   19.245    5.5082
   19.260    5.7293
   19.275    5.9294
   19.290    5.8768
   19.305    6.0348
   19.320    5.8768
   19.335    5.9926
   19.350    5.8136
   19.365    5.9189
   19.380    5.7925
   19.395    5.8452
   19.410    5.7188
   19.425    5.5292
   19.440    5.6240
   19.455    6.0453
   19.470    6.0874
   19.485    5.8768
   19.500    5.6661
   19.515    5.9926
   19.530    6.2243
   19.545    5.9084
   19.560    5.9505
   19.575    6.0874
   19.590    6.1295
   19.605    6.3402
   19.620    6.0137
   19.635    6.2349
   19.650    5.8978
   19.665    5.9294
   19.680    5.8452
   19.695    6.0769
   19.710    5.6977
   19.725    6.1506
   19.740    6.2243
   19.755    6.1190
   19.770    5.9084
   19.785    6.1927
   19.800    6.0453
   19.815    5.9505
   19.830    5.9821
   19.845    5.9821
   19.860    5.8136
   19.875    5.8662
   19.890    5.8662
   19.905    6.2770
   19.920    6.3296
   19.935    6.1190
   19.950    6.5192
   19.965    6.0769
   19.980    6.0348
   19.995    6.1190
   20.010    6.2559
   20.025    6.1190
   20.040    5.9716
   20.055    6.0242
   20.070    6.3086
   20.085    6.2770
   20.100    6.0769
   20.115    6.3296
   20.130    6.2665
   20.145    6.3402
   20.160    6.0137
   20.175    6.1611
   20.190    6.4139
   20.205    6.3507
   20.220    6.4982
   20.235    6.4244
   20.250    6.4666
   20.265    6.2665
   20.280    5.9400
   20.295    5.9610
   20.310    6.1085
   20.325    6.4771
   20.340    6.5508
   20.355    6.2349
   20.370    5.8873
   20.385    6.0137
   20.400    6.3718
   20.415    6.5824
   20.430    6.1190
   20.445    6.0453
   20.460    6.5298
   20.475    6.1611
   20.490    6.2138
   20.505    6.0137
   20.520    5.9610
   20.535    6.2665
   20.550    6.1295
   20.565    5.7820
   20.580    6.1401
   20.595    5.8136
   20.610    5.9189
   20.625    5.8768
   20.640    5.7820
   20.655    5.6240
   20.670    5.6977
   20.685    6.1822
   20.700    6.3086
   20.715    6.1822
   20.730    6.5403
   20.745    6.0874
   20.760    5.7609
   20.775    5.9400
   20.790    6.0137
   20.805    5.6977
   20.820    5.8662
   20.835    6.2981
   20.850    6.2875
   20.865    6.0979
   20.880    6.5192
   20.895    6.3191
   20.910    6.3402
   20.925    5.8557
   20.940    5.9610
   20.955    6.1611
   20.970    6.2454
   20.985    6.1822
   21.000    6.0979
   21.015    6.4771
   21.030    6.1190
   21.045    6.1822
   21.060    6.4034
   21.075    6.2875
   21.090    6.3086
   21.105    6.2349
   21.120    6.0242
   21.135    5.6977
   21.150    6.1401
   21.165    6.0137
   21.180    6.3191
   21.195    6.2454
   21.210    6.0874
   21.225    6.3823
   21.240    6.4350
   21.255    6.3402
   21.270    6.3191
   21.285    5.8347
   21.300    5.6345
   21.315    6.1190
   21.330    6.1190
   21.345    6.4982
   21.360    6.3086
   21.375    6.1822
   21.390    6.1085
   21.405    6.1190
   21.420    5.8031
   21.435    6.0032
   21.450    5.8136
   21.465    5.9189
   21.480    6.2981
   21.495    6.1190
   21.510    6.2138
   21.525    6.2349
   21.540    6.2138
   21.555    6.2665
   21.570    5.7504
   21.585    5.9610
   21.600    5.9084
   21.615    5.7399
   21.630    6.0137
   21.645    6.0664
   21.660    6.1611
   21.675    6.1611
   21.690    6.6877
   21.705    6.3507
   21.720    6.2033
   21.735    6.0242
   21.750    6.5719
   21.765    6.0242
   21.780    6.0453
   21.795    5.7820
   21.810    5.7504
   21.825    6.3507
   21.840    5.8557
   21.855    5.9821
   21.870    6.2665
   21.885    6.3086
   21.900    6.4244
   21.915    6.0769
   21.930    6.0242
   21.945    6.4350
   21.960    6.2243
   21.975    6.0874
   21.990    6.1295
   22.005    6.2243
   22.020    6.3823
   22.035    5.9084
   22.050    6.0242
   22.065    6.2349
   22.080    6.2243
   22.095    6.4455
   22.110    6.0558
   22.125    6.7404
   22.140    6.4666
   22.155    5.9189
   22.170    6.1611
   22.185    6.2243
   22.200    6.1506
   22.215    6.2665
   22.230    6.1295
   22.245    6.4350
   22.260    6.0242
   22.275    5.9716
   22.290    6.2559
   22.305    6.0664
   22.320    5.9716
   22.335    6.0664
   22.350    5.8873
   22.365    5.9716
   22.380    6.0979
   22.395    6.3823
   22.410    6.5824
   22.425    6.3296
   22.440    6.1611
   22.455    5.9926
   22.470    6.1295
   22.485    6.1085
   22.500    6.0453
   22.515    5.9716
   22.530    5.9400
   22.545    6.1927
   22.560    6.2138
   22.575    6.4876
   22.590    6.1085
   22.605    5.8873
   22.620    6.2665
   22.635    6.1401
   22.650    5.8873
   22.665    6.0032
   22.680    6.0032
   22.695    5.9294
   22.710    6.2454
   22.725    6.0558
   22.740    6.0348
   22.755    5.8452
   22.770    5.7188
   22.785    6.0348
   22.800    5.9505
   22.815    5.9716
   22.830    5.9610
   22.845    5.7504
   22.860    6.0137
   22.875    6.1927
   22.890    5.7715
   22.905    6.0558
   22.920    6.3507
   22.935    5.8662
   22.950    5.7188
   22.965    5.8136
   22.980    5.9294
   22.995    6.0137
   23.010    6.4876
   23.025    6.0348
   23.040    6.2033
   23.055    5.6767
   23.070    6.0348
   23.085    5.9610
   23.100    6.5087
   23.115    6.2981
   23.130    6.2033
   23.145    6.2349
   23.160    6.0453
   23.175    6.1401
   23.190    5.8452
   23.205    6.0032
   23.220    6.0242
   23.235    6.1611
   23.250    6.1401
   23.265    5.9610
   23.280    5.8662
   23.295    6.3823
   23.310    5.9400
   23.325    6.2138
   23.340    5.9716
   23.355    5.9400
   23.370    5.6872
   23.385    5.7715
   23.400    6.0664
   23.415    5.8978
   23.430    5.5187
   23.445    6.0348
   23.460    5.8031
   23.475    5.6135
   23.490    6.1190
   23.505    6.0453
   23.520    5.7820
   23.535    5.9084
   23.550    6.2138
   23.565    5.7609
   23.580    5.9821
   23.595    5.9926
   23.610    5.9610
   23.625    5.9716
   23.640    6.0348
   23.655    5.9716
   23.670    5.9084
   23.685    5.8557
   23.700    6.1190
   23.715    5.7083
   23.730    5.7504
   23.745    6.0242
   23.760    5.7609
   23.775    5.9294
   23.790    5.3502
   23.805    6.0242
   23.820    6.0348
   23.835    6.0242
   23.850    5.6029
   23.865    5.9189
   23.880    5.9610
   23.895    6.1295
   23.910    5.9400
   23.925    5.8662
   23.940    5.8873
   23.955    5.8241
   23.970    5.6977
   23.985    5.9716
   24.000    6.0769
   24.015    6.0348
   24.030    5.5924
   24.045    5.7188
   24.060    5.8136
   24.075    5.6029
   24.090    5.5292
   24.105    5.8031
   24.120    5.9610
   24.135    5.3291
   24.150    5.5292
   24.165    5.6556
   24.180    5.9926
   24.195    5.6451
   24.210    5.5503
   24.225    5.5924
   24.240    5.8452
   24.255    5.7293
   24.270    5.8662
   24.285    5.6661
   24.300    5.5503
   24.315    5.6345
   24.330    5.3712
   24.345    5.6872
   24.360    5.2975
   24.375    5.6767
   24.390    5.8241
   24.405    5.7504
   24.420    5.2975
   24.435    5.3923
   24.450    5.4028
   24.465    5.3502
   24.480    5.9610
   24.495    5.8873
   24.510    5.7083
   24.525    5.7399
   24.540    5.3081
   24.555    5.6240
   24.570    5.9505
   24.585    6.2454
   24.600    5.8031
   24.615    5.5503
   24.630    5.9294
   24.645    5.7609
   24.660    5.7083
   24.675    5.5608
   24.690    5.8136
   24.705    5.8452
   24.720    5.7820
   24.735    5.9400
   24.750    5.4555
   24.765    5.7188
   24.780    5.4766
   24.795    5.3502
   24.810    5.7609
   24.825    5.7925
   24.840    5.7399
   24.855    5.8557
   24.870    5.7609
   24.885    5.5292
   24.900    5.8662
   24.915    6.0453
   24.930    5.2765
   24.945    5.3291
   24.960    5.4660
   24.975    5.2765
   24.990    5.2133
   25.005    5.4660
   25.020    5.4134
   25.035    5.5924
   25.050    5.2870
   25.065    5.4555
   25.080    5.7293
   25.095    5.7609
   25.110    5.7609
   25.125    5.6556
   25.140    5.5503
   25.155    5.3712
   25.170    5.3291
   25.185    5.4344
   25.200    5.6872
   25.215    5.6135
   25.230    5.8031
   25.245    5.7399
   25.260    5.8031
   25.275    5.3607
   25.290    5.4239
   25.305    5.3081
   25.320    5.3607
   25.335    5.7715
   25.350    5.6240
   25.365    5.6977
   25.380    5.0974
   25.395    5.5398
   25.410    5.5608
   25.425    5.2449
   25.440    5.4766
   25.455    5.2765
   25.470    5.8241
   25.485    5.7925
   25.500    5.6977
   25.515    5.3081
   25.530    5.3397
   25.545    5.6029
   25.560    5.5187
   25.575    5.5398
   25.590    5.6556
   25.605    5.5398
   25.620    5.4028
   25.635    5.4660
   25.650    5.2554
   25.665    5.2975
   25.680    5.1501
   25.695    5.0342
   25.710    5.4871
   25.725    5.4555
   25.740    5.3818
   25.755    5.6872
   25.770    5.4555
   25.785    5.2027
   25.800    5.7609
   25.815    5.5398
   25.830    5.2975
   25.845    5.1501
   25.860    4.9921
   25.875    5.1711
   25.890    5.2133
   25.905    5.5503
   25.920    5.0132
   25.935    4.9816
   25.950    5.3923
   25.965    5.4344
   25.980    5.4028
   25.995    5.4450
   26.010    5.5398
   26.025    5.4134
   26.040    5.6977
   26.055    5.6451
   26.070    5.1817
   26.085    5.2659
   26.100    5.0342
   26.115    5.1817
   26.130    5.1711
   26.145    5.2133
   26.160    5.3081
   26.175    5.3186
   26.190    5.1290
   26.205    5.1501
   26.220    4.9500
   26.235    5.0974
   26.250    5.1711
   26.265    5.3186
   26.280    5.4344
   26.295    5.1501
   26.310    5.3291
   26.325    5.6977
   26.340    5.1817
   26.355    5.1501
   26.370    5.2238
   26.385    4.9184
   26.400    5.1080
   26.415    5.0026
   26.430    4.9500
   26.445    4.9500
   26.460    4.8131
   26.475    5.0974
   26.490    5.6345
   26.505    5.6345
   26.520    5.2449
   26.535    5.4660
   26.550    5.3186
   26.565    5.2449
   26.580    5.1711
   26.595    5.1501
   26.610    5.2659
   26.625    5.6661
   26.640    5.2975
   26.655    5.0237
   26.670    5.4239
   26.685    5.6872
   26.700    5.3502
   26.715    5.3712
   26.730    5.3712
   26.745    5.3291
   26.760    5.2238
   26.775    5.4555
   26.790    5.2238
   26.805    5.3607
   26.820    5.5819
   26.835    5.0974
   26.850    5.0448
   26.865    5.2343
   26.880    5.2870
   26.895    5.1922
   26.910    5.0869
   26.925    5.5503
   26.940    5.0132
   26.955    5.1606
   26.970    5.3502
   26.985    5.4344
   27.000    5.2027
   27.015    5.0237
   27.030    5.0658
   27.045    5.0237
   27.060    4.9078
   27.075    5.0764
   27.090    4.9289
   27.105    5.2343
   27.120    5.3923
   27.135    5.0342
   27.150    5.1185
   27.165    5.2449
   27.180    5.3186
   27.195    5.6240
   27.210    5.3502
   27.225    5.0132
   27.240    5.2765
   27.255    5.2343
   27.270    5.3607
   27.285    5.4766
   27.300    5.2449
   27.315    5.2659
   27.330    5.1711
   27.345    5.3397
   27.360    5.0658
   27.375    5.1922
   27.390    4.9289
   27.405    5.0764
   27.420    4.9394
   27.435    5.2449
   27.450    5.2659
   27.465    5.1711
   27.480    5.0448
   27.495    5.5398
   27.510    5.0448
   27.525    4.9605
   27.540    5.2027
   27.555    5.2975
   27.570    5.2238
   27.585    4.9605
   27.600    4.9605
   27.615    5.3397
   27.630    5.5608
   27.645    5.2975
   27.660    5.3186
   27.675    5.2975
   27.690    5.0448
   27.705    5.0237
   27.720    5.1606
   27.735    5.2343
   27.750    4.9500
   27.765    4.8763
   27.780    5.1922
   27.795    5.1606
   27.810    4.9289
   27.825    5.3712
   27.840    5.1922
   27.855    5.2554
   27.870    5.3081
   27.885    5.2659
   27.900    5.4660
   27.915    5.3818
   27.930    5.3081
   27.945    5.4344
   27.960    6.0348
   27.975    6.4350
   27.990    6.1085
   28.005    6.0453
   28.020    6.3296
   28.035    6.1295
   28.050    5.7399
   28.065    5.4871
   28.080    5.7820
   28.095    5.8557
   28.110    5.5187
   28.125    5.0764
   28.140    5.2133
   28.155    5.5292
   28.170    5.5924
   28.185    5.5398
   28.200    5.1185
   28.215    5.3502
   28.230    5.4239
   28.245    5.2133
   28.260    5.3712
   28.275    5.2027
   28.290    5.3818
   28.305    5.1817
   28.320    5.5714
   28.335    5.2238
   28.350    5.3712
   28.365    5.1501
   28.380    5.4344
   28.395    5.0448
   28.410    5.0764
   28.425    5.0764
   28.440    5.3291
   28.455    5.2765
   28.470    5.0869
   28.485    5.0658
   28.500    5.1395
   28.515    5.2238
   28.530    4.7604
   28.545    5.1290
   28.560    4.7920
   28.575    4.7288
   28.590    5.0869
   28.605    5.1711
   28.620    5.1817
   28.635    4.7920
   28.650    4.5603
   28.665    4.9184
   28.680    4.9289
   28.695    4.9394
   28.710    4.9394
   28.725    4.8131
   28.740    4.9816
   28.755    5.3818
   28.770    5.2659
   28.785    5.2870
   28.800    5.0448
   28.815    5.0764
   28.830    5.1817
   28.845    5.1501
   28.860    5.3607
   28.875    5.7083
   28.890    5.2343
   28.905    5.3818
   28.920    5.7083
   28.935    5.5503
   28.950    5.7925
   28.965    6.0874
   28.980    5.9084
   28.995    5.7293
   29.010    5.7715
   29.025    6.0558
   29.040    5.5187
   29.055    5.1922
   29.070    4.9710
   29.085    5.1185
   29.100    4.9289
   29.115    5.0026
   29.130    4.6867
   29.145    5.1080
   29.160    5.1290
   29.175    5.1606
   29.190    5.0448
   29.205    4.8552
   29.220    5.2027
   29.235    4.9921
   29.250    4.6867
   29.265    5.0974
   29.280    4.9078
   29.295    4.7815
   29.310    4.7077
   29.325    4.8447
   29.340    4.9710
   29.355    4.6656
   29.370    4.9500
   29.385    5.0764
   29.400    4.9921
   29.415    4.6445
   29.430    4.9078
   29.445    4.7077
   29.460    4.9184
   29.475    4.6972
   29.490    4.8868
   29.505    4.6761
   29.520    4.7077
   29.535    5.1501
   29.550    4.7815
   29.565    4.8025
   29.580    4.7815
   29.595    4.7604
   29.610    4.8236
   29.625    4.6235
   29.640    5.0342
   29.655    5.0026
   29.670    4.7077
   29.685    5.1817
   29.700    5.1185
   29.715    5.1711
   29.730    4.8552
   29.745    4.8131
   29.760    4.7709
   29.775    4.8341
   29.790    4.8447
   29.805    4.8763
   29.820    4.8763
   29.835    4.9816
   29.850    4.9921
   29.865    4.9500
   29.880    5.0448
   29.895    5.3818
   29.910    5.2027
   29.925    5.2133
   29.940    5.0658
   29.955    4.8763
   29.970    4.9500
   29.985    4.6972
   30.000    4.6972
   30.015    5.0132
   30.030    4.7499
   30.045    4.9289
   30.060    4.9710
   30.075    5.0448
   30.090    4.8341
   30.105    5.1080
   30.120    4.7077
   30.135    5.0026
   30.150    5.3081
   30.165    4.8131
   30.180    5.0237
   30.195    4.7499
   30.210    4.5814
   30.225    5.1290
   30.240    5.1711
   30.255    4.6761
   30.270    4.7709
   30.285    4.9605
   30.300    4.9500
   30.315    5.0553
   30.330    4.9500
   30.345    5.0342
   30.360    5.0026
   30.375    5.1080
   30.390    5.0026
   30.405    5.1606
   30.420    5.1817
   30.435    4.7709
   30.450    4.5076
   30.465    4.5814
   30.480    4.8236
   30.495    4.7288
   30.510    4.7604
   30.525    4.9184
   30.540    4.9078
   30.555    4.7499
   30.570    4.6130
   30.585    4.8131
   30.600    4.9921
   30.615    4.7815
   30.630    4.6972
   30.645    4.8657
   30.660    4.6867
   30.675    4.4550
   30.690    4.9184
   30.705    4.9500
   30.720    5.0448
   30.735    4.7815
   30.750    4.7393
   30.765    4.7920
   30.780    4.9710
   30.795    4.6340
   30.810    4.8973
   30.825    4.8236
   30.840    4.8447
   30.855    5.1185
   30.870    5.0342
   30.885    5.1080
   30.900    4.8236
   30.915    4.9500
   30.930    4.7604
   30.945    4.8657
   30.960    4.8236
   30.975    4.3602
   30.990    4.9710
   31.005    4.7920
   31.020    4.9816
   31.035    4.7499
   31.050    4.7183
   31.065    4.6024
   31.080    4.6761
   31.095    5.0658
   31.110    4.8131
   31.125    4.5814
   31.140    4.7077
   31.155    4.8131
   31.170    4.9078
   31.185    4.9289
   31.200    4.5287
   31.215    4.5603
   31.230    5.0658
   31.245    4.6445
   31.260    4.7499
   31.275    4.4128
   31.290    4.8341
   31.305    4.7183
   31.320    4.6867
   31.335    4.4760
   31.350    4.8025
   31.365    4.9289
   31.380    4.9710
   31.395    5.1290
   31.410    4.8973
   31.425    4.7604
   31.440    4.5287
   31.455    4.8552
   31.470    4.6445
   31.485    4.3918
   31.500    4.6972
   31.515    4.6551
   31.530    4.6445
   31.545    4.6445
   31.560    4.8447
   31.575    4.8341
   31.590    4.6340
   31.605    4.9289
   31.620    4.9500
   31.635    4.9289
   31.650    4.9289
   31.665    4.9605
   31.680    5.1185
   31.695    4.7288
   31.710    4.9605
   31.725    4.9605
   31.740    5.3712
   31.755    4.7499
   31.770    4.5814
   31.785    4.7393
   31.800    4.5392
   31.815    4.9605
   31.830    5.2238
   31.845    4.6972
   31.860    4.9921
   31.875    5.1395
   31.890    5.1395
   31.905    4.9921
   31.920    4.7499
   31.935    4.7920
   31.950    4.8868
   31.965    5.0869
   31.980    5.3502
   31.995    5.3818
   32.010    5.4344
   32.025    5.7504
   32.040    5.8452
   32.055    6.0874
   32.070    6.4666
   32.085    6.2138
   32.100    6.7299
   32.115    6.6140
   32.130    6.4771
   32.145    5.9400
   32.160    5.9400
   32.175    5.8662
   32.190    5.6345
   32.205    5.4028
   32.220    5.0026
   32.235    5.0026
   32.250    4.7920
   32.265    4.7288
   32.280    4.6130
   32.295    4.6024
   32.310    4.4866
   32.325    4.8552
   32.340    4.5287
   32.355    5.0448
   32.370    4.8447
   32.385    4.8763
   32.400    4.4866
   32.415    4.5814
   32.430    4.5919
   32.445    4.3602
   32.460    4.5814
   32.475    4.7077
   32.490    4.5392
   32.505    4.9394
   32.520    4.6130
   32.535    4.5392
   32.550    4.6024
   32.565    4.6130
   32.580    4.8131
   32.595    4.6761
   32.610    4.8868
   32.625    4.6656
   32.640    4.5919
   32.655    4.4550
   32.670    4.5708
   32.685    4.7288
   32.700    4.5814
   32.715    4.7288
   32.730    4.7183
   32.745    4.2338
   32.760    4.3181
   32.775    4.2654
   32.790    4.5182
   32.805    4.7393
   32.820    4.4655
   32.835    4.5182
   32.850    4.5603
   32.865    4.4234
   32.880    4.9289
   32.895    4.3707
   32.910    4.3707
   32.925    4.7920
   32.940    4.1601
   32.955    4.5182
   32.970    4.6024
   32.985    4.6445
   33.000    4.3497
   33.015    4.5919
   33.030    4.5392
   33.045    4.6551
   33.060    4.3391
   33.075    4.4866
   33.090    4.3602
   33.105    4.4655
   33.120    4.3181
   33.135    4.5708
   33.150    4.5919
   33.165    3.9389
   33.180    4.7183
   33.195    4.3286
   33.210    4.3602
   33.225    4.2549
   33.240    4.5498
   33.255    4.5708
   33.270    4.6972
   33.285    4.7815
   33.300    4.7499
   33.315    4.6340
   33.330    4.4339
   33.345    4.6761
   33.360    4.3391
   33.375    4.1601
   33.390    4.5392
   33.405    4.6340
   33.420    4.1917
   33.435    4.3391
   33.450    4.4023
   33.465    4.1811
   33.480    4.3813
   33.495    4.2865
   33.510    4.4128
   33.525    4.3707
   33.540    4.8025
   33.555    4.5287
   33.570    4.6130
   33.585    4.2970
   33.600    4.3813
   33.615    4.3181
   33.630    4.4866
   33.645    4.5708
   33.660    4.7393
   33.675    4.3391
   33.690    4.6340
   33.705    5.0448
   33.720    4.5708
   33.735    4.8025
   33.750    4.8973
   33.765    5.1817
   33.780    5.2870
   33.795    5.3397
   33.810    5.2870
   33.825    5.1290
   33.840    5.2765
   33.855    4.7920
   33.870    4.7920
   33.885    4.6972
   33.900    4.8447
   33.915    4.7077
   33.930    4.6235
   33.945    4.5603
   33.960    4.5392
   33.975    4.6867
   33.990    4.5182
   34.005    4.6130
   34.020    4.6024
   34.035    4.5814
   34.050    4.1074
   34.065    4.1601
   34.080    3.8547
   34.095    4.2443
   34.110    4.5919
   34.125    4.3286
   34.140    4.2759
   34.155    4.5076
   34.170    4.2338
   34.185    4.4234
   34.200    4.1811
   34.215    4.2654
   34.230    4.2970
   34.245    4.2233
   34.260    4.2654
   34.275    4.3286
   34.290    4.4760
   34.305    4.8552
   34.320    4.3286
   34.335    4.4128
   34.350    4.5076
   34.365    4.1180
   34.380    4.3075
   34.395    3.9705
   34.410    4.3391
   34.425    4.5076
   34.440    4.2549
   34.455    4.2970
   34.470    4.2338
   34.485    4.1601
   34.500    4.3286
   34.515    4.1811
   34.530    4.4866
   34.545    4.6130
   34.560    4.4128
   34.575    4.5182
   34.590    4.3286
   34.605    4.2443
   34.620    4.5814
   34.635    4.4550
   34.650    4.3707
   34.665    4.2443
   34.680    4.1601
   34.695    4.0548
   34.710    3.9705
   34.725    4.4760
   34.740    4.3918
   34.755    4.0548
   34.770    4.0548
   34.785    4.2549
   34.800    4.4971
   34.815    4.3181
   34.830    4.4234
   34.845    4.4234
   34.860    4.0442
   34.875    4.3075
   34.890    4.3497
   34.905    4.3497
   34.920    4.2759
   34.935    4.3181
   34.950    4.4550
   34.965    4.4550
   34.980    4.2654
   34.995    4.5603
   35.010    4.4128
   35.025    4.4550
   35.040    4.3918
   35.055    4.1390
   35.070    4.0864
   35.085    4.1390
   35.100    4.5076
   35.115    4.2233
   35.130    4.3918
   35.145    3.9389
   35.160    4.1074
   35.175    4.2443
   35.190    4.0653
   35.205    4.3181
   35.220    4.4444
   35.235    4.1074
   35.250    4.1706
   35.265    4.1390
   35.280    4.2443
   35.295    4.3707
   35.310    4.2865
   35.325    4.0232
   35.340    4.5814
   35.355    4.1180
   35.370    4.2865
   35.385    4.2338
   35.400    4.2759
   35.415    4.0548
   35.430    4.1706
   35.445    4.1811
   35.460    4.2338
   35.475    4.4444
   35.490    4.6235
   35.505    4.2127
   35.520    4.3707
   35.535    4.4550
   35.550    4.4971
   35.565    4.2233
   35.580    4.1074
   35.595    4.3813
   35.610    4.6340
   35.625    4.2549
   35.640    3.9916
   35.655    4.0864
   35.670    4.0548
   35.685    4.3918
   35.700    4.2443
   35.715    4.3707
   35.730    4.1706
   35.745    4.2233
   35.760    4.4760
   35.775    4.4760
   35.790    4.3286
   35.805    4.3181
   35.820    4.1180
   35.835    4.5392
   35.850    4.3075
   35.865    4.1706
   35.880    4.3813
   35.895    4.4655
   35.910    4.1706
   35.925    4.0126
   35.940    4.0548
   35.955    4.0548
   35.970    3.9916
   35.985    3.9073
   36.000    4.0864
   36.015    4.0232
   36.030    4.0337
   36.045    4.0969
   36.060    4.4444
   36.075    4.1180
   36.090    4.1496
   36.105    4.0758
   36.120    4.0337
   36.135    4.0337
   36.150    4.3602
   36.165    4.1811
   36.180    4.1601
   36.195    4.0442
   36.210    4.8657
   36.225    4.6130
   36.240    4.2233
   36.255    4.0758
   36.270    4.2022
   36.285    3.8547
   36.300    4.1811
   36.315    3.9600
   36.330    3.9705
   36.345    4.1285
   36.360    4.1074
   36.375    3.8968
   36.390    4.0126
   36.405    4.1917
   36.420    3.8020
   36.435    4.2759
   36.450    3.9705
   36.465    3.8125
   36.480    3.9705
   36.495    4.0021
   36.510    4.1601
   36.525    4.3918
   36.540    4.3286
   36.555    4.4866
   36.570    4.4655
   36.585    4.3707
   36.600    4.3918
   36.615    4.0232
   36.630    3.6756
   36.645    4.1706
   36.660    3.8863
   36.675    4.0021
   36.690    4.0864
   36.705    4.1496
   36.720    3.9494
   36.735    4.1811
   36.750    4.3286
   36.765    4.3181
   36.780    4.3286
   36.795    4.1496
   36.810    4.2127
   36.825    3.9389
   36.840    3.8125
   36.855    3.6862
   36.870    3.9389
   36.885    4.3075
   36.900    3.8020
   36.915    4.0126
   36.930    3.9389
   36.945    4.0126
   36.960    4.1180
   36.975    4.3075
   36.990    4.0126
   37.005    4.0337
   37.020    4.0442
   37.035    3.9705
   37.050    4.2022
   37.065    3.9073
   37.080    4.1706
   37.095    4.2338
   37.110    3.9389
   37.125    3.9179
   37.140    3.9494
   37.155    4.2865
   37.170    4.0337
   37.185    3.7809
   37.200    4.0758
   37.215    4.2233
   37.230    4.1496
   37.245    3.8863
   37.260    4.0232
   37.275    4.2233
   37.290    4.0969
   37.305    3.9600
   37.320    3.9916
   37.335    4.2022
   37.350    3.9494
   37.365    3.9389
   37.380    3.9810
   37.395    3.8652
   37.410    3.9600
   37.425    4.1285
   37.440    4.0758
   37.455    3.8863
   37.470    4.0653
   37.485    3.8547
   37.500    3.8020
   37.515    3.8125
   37.530    3.7704
   37.545    3.8757
   37.560    3.8757
   37.575    4.1180
   37.590    4.0653
   37.605    4.0653
   37.620    3.8968
   37.635    4.2865
   37.650    4.1811
   37.665    3.9600
   37.680    4.1917
   37.695    4.1706
   37.710    4.0548
   37.725    4.1601
   37.740    4.0548
   37.755    3.8968
   37.770    3.9389
   37.785    3.9916
   37.800    4.0021
   37.815    4.1074
   37.830    3.8968
   37.845    3.9600
   37.860    3.7809
   37.875    4.1917
   37.890    4.0337
   37.905    4.0337
   37.920    3.7072
   37.935    4.1706
   37.950    4.0653
   37.965    3.8441
   37.980    4.1811
   37.995    4.2338
   38.010    4.1390
   38.025    4.0969
   38.040    4.2338
   38.055    3.9389
   38.070    3.8652
   38.085    4.1601
   38.100    4.2654
   38.115    3.9600
   38.130    4.0864
   38.145    4.1706
   38.160    4.0442
   38.175    3.8336
   38.190    4.0758
   38.205    3.6756
   38.220    3.8547
   38.235    4.1706
   38.250    3.8336
   38.265    3.9494
   38.280    4.0337
   38.295    4.2549
   38.310    4.1074
   38.325    4.3497
   38.340    3.7599
   38.355    3.9389
   38.370    3.8863
   38.385    3.9179
   38.400    3.9179
   38.415    4.0337
   38.430    4.0969
   38.445    4.4128
   38.460    4.3497
   38.475    4.0864
   38.490    4.3497
   38.505    4.0548
   38.520    3.8652
   38.535    4.0337
   38.550    4.2338
   38.565    4.2443
   38.580    4.4023
   38.595    4.1917
   38.610    4.2338
   38.625    4.3918
   38.640    4.4550
   38.655    4.3497
   38.670    3.7704
   38.685    4.1390
   38.700    4.2443
   38.715    4.0969
   38.730    4.2022
   38.745    4.4128
   38.760    4.4234
   38.775    3.7388
   38.790    3.7915
   38.805    3.9389
   38.820    3.6967
   38.835    4.0442
   38.850    4.0548
   38.865    3.6124
   38.880    3.8547
   38.895    3.8547
   38.910    3.8020
   38.925    4.0337
   38.940    3.8336
   38.955    4.0021
   38.970    4.0864
   38.985    4.0232
   39.000    4.0442
   39.015    3.8125
   39.030    3.9073
   39.045    3.9916
   39.060    3.8020
   39.075    3.7283
   39.090    4.1917
   39.105    4.1074
   39.120    3.9810
   39.135    4.2970
   39.150    4.0758
   39.165    4.0653
   39.180    3.8441
   39.195    3.8757
   39.210    3.9494
   39.225    4.1601
   39.240    4.2549
   39.255    4.2022
   39.270    4.3602
   39.285    4.0548
   39.300    4.1074
   39.315    4.1285
   39.330    4.0548
   39.345    4.1601
   39.360    4.0548
   39.375    4.0969
   39.390    4.2654
   39.405    4.0337
   39.420    3.5914
   39.435    4.1706
   39.450    4.3707
   39.465    4.1601
   39.480    3.8863
   39.495    3.9073
   39.510    3.9494
   39.525    3.8968
   39.540    3.8863
   39.555    4.1811
   39.570    3.9705
   39.585    4.1496
   39.600    3.5703
   39.615    3.8863
   39.630    4.2127
   39.645    4.2549
   39.660    4.0758
   39.675    4.1180
   39.690    4.1917
   39.705    3.7809
   39.720    3.9810
   39.735    4.2127
   39.750    4.2549
   39.765    4.0442
   39.780    4.0758
   39.795    3.8547
   39.810    4.0442
   39.825    4.2022
   39.840    3.7915
   39.855    3.9284
   39.870    3.8547
   39.885    3.9916
   39.900    4.0548
   39.915    3.7809
   39.930    3.4966
   39.945    3.3807
   39.960    3.8968
   39.975    4.1180
   39.990    4.2759
