    1.500    8.6142
    1.515    9.0637
    1.530    8.1648
    1.545    8.5607
    1.560    8.1862
    1.575    7.9615
    1.590    8.1648
    1.605    8.3467
    1.620    8.3681
    1.635    8.1327
    1.650    7.9187
    1.665    8.0899
    1.680    7.9080
    1.695    7.5655
    1.710    7.1054
    1.725    7.5227
    1.740    7.6405
    1.755    7.3087
    1.770    7.5120
    1.785    7.0626
    1.800    7.0412
    1.815    7.2445
    1.830    7.0733
    1.845    6.4633
    1.860    6.6132
    1.875    7.1375
    1.890    6.8165
    1.905    6.6025
    1.920    6.5383
    1.935    6.4205
    1.950    6.3242
    1.965    6.3028
    1.980    6.3028
    1.995    5.9925
    2.010    6.3028
    2.025    6.1851
    2.040    5.7357
    2.055    5.6929
    2.070    6.1637
    2.085    6.0567
    2.100    5.9176
    2.115    5.8534
    2.130    6.0139
    2.145    5.6180
    2.160    5.2434
    2.175    5.8213
    2.190    5.4468
    2.205    5.6180
    2.220    5.3612
    2.235    5.3719
    2.250    5.2970
    2.265    5.1578
    2.280    5.4682
    2.295    5.3184
    2.310    5.0829
    2.325    4.7405
    2.340    5.0936
    2.355    4.9331
    2.370    5.2327
    2.385    4.6977
    2.400    4.3767
    2.415    4.8047
    2.430    5.0615
    2.445    4.5800
    2.460    4.6549
    2.475    4.5800
    2.490    4.7298
    2.505    4.8047
    2.520    4.6870
    2.535    4.4944
    2.550    4.6335
    2.565    4.6763
    2.580    4.2376
    2.595    4.0877
    2.610    4.2376
    2.625    4.3125
    2.640    4.4195
    2.655    4.1734
    2.670    4.1520
    2.685    4.0021
    2.700    3.8844
    2.715    4.0663
    2.730    4.0021
    2.745    3.9486
    2.760    4.0021
    2.775    4.0342
    2.790    3.8737
    2.805    3.9058
    2.820    4.1413
    2.835    4.0342
    2.850    3.9914
    2.865    3.7667
    2.880    3.5741
    2.895    3.7132
    2.910    3.8630
    2.925    3.5634
    2.940    3.7988
    2.955    4.1091
    2.970    3.5741
    2.985    3.9486
    3.000    3.8202
    3.015    3.5313
    3.030    3.8951
    3.045    3.7667
    3.060    3.7881
    3.075    3.7132
    3.090    3.7774
    3.105    3.9700
    3.120    3.5420
    3.135    3.4564
    3.150    3.4992
    3.165    3.7453
    3.180    3.8844
    3.195    4.0128
    3.210    3.8951
    3.225    3.7667
    3.240    3.6811
    3.255    3.8951
    3.270    3.7025
    3.285    3.8309
    3.300    4.0556
    3.315    3.5527
    3.330    3.8630
    3.345    4.0663
    3.360    4.1199
    3.375    3.8844
    3.390    4.0877
    3.405    4.3018
    3.420    4.2269
    3.435    4.2269
    3.450    4.3660
    3.465    4.2911
    3.480    4.1734
    3.495    4.1520
    3.510    4.4730
    3.525    4.7298
    3.540    4.6763
    3.555    4.4302
    3.570    4.6014
    3.585    4.9224
    3.600    5.0294
    3.615    4.7084
    3.630    5.6501
    3.645    5.2327
    3.660    5.4361
    3.675    5.2648
    3.690    5.0829
    3.705    5.0187
    3.720    5.4468
    3.735    5.9497
    3.750    6.1744
    3.765    6.0460
    3.780    6.1958
    3.795    6.2065
    3.810    6.8486
    3.825    6.7737
    3.840    6.7737
    3.855    7.4799
    3.870    7.2766
    3.885    7.2445
    3.900    7.7368
    3.915    7.9080
    3.930    8.1327
    3.945    8.1220
    3.960    8.7747
    3.975    8.9246
    3.990    9.4168
    4.005    9.2028
    4.020   10.2194
    4.035   10.1231
    4.050   10.9791
    4.065   10.6688
    4.080   11.3430
    4.095   12.2846
    4.110   12.1562
    4.125   13.0444
    4.140   13.4403
    4.155   13.8684
    4.170   15.1418
    4.185   15.2488
    4.200   15.4307
    4.215   16.9074
    4.230   17.9026
    4.245   19.1011
    4.260   20.4494
    4.275   20.8989
    4.290   22.9321
    4.305   23.3601
    4.320   25.7999
    4.335   27.3301
    4.350   28.4751
    4.365   30.2729
    4.380   33.0872
    4.395   35.7089
    4.410   39.8181
    4.425   42.2151
    4.440   49.1172
    4.455   53.8577
    4.470   64.6228
    4.485   76.6613
    4.500   95.9765
    4.515  120.8240
    4.530  121.3055
    4.545   68.0578
    4.560   18.6517
    4.575    5.5966
    4.590    3.3387
    4.605    2.5682
    4.620    2.0974
    4.635    1.9476
    4.650    2.0974
    4.665    2.0439
    4.680    1.9048
    4.695    1.7549
    4.710    1.7978
    4.725    1.7657
    4.740    1.6265
    4.755    1.7335
    4.770    1.7335
    4.785    1.7014
    4.800    1.7978
    4.815    1.7764
    4.830    1.7121
    4.845    1.7121
    4.860    1.3804
    4.875    1.7228
    4.890    1.6479
    4.905    1.6800
    4.920    1.3269
    4.935    1.5837
    4.950    1.4767
    4.965    1.6586
    4.980    1.4981
    4.995    1.6479
    5.010    1.6693
    5.025    1.6372
    5.040    1.4339
    5.055    1.4125
    5.070    1.7335
    5.085    1.5837
    5.100    1.4874
    5.115    1.4981
    5.130    1.5837
    5.145    1.5088
    5.160    1.4981
    5.175    1.5730
    5.190    1.5516
    5.205    1.5409
    5.220    1.4232
    5.235    1.4232
    5.250    1.4874
    5.265    1.3804
    5.280    1.5516
    5.295    1.4553
    5.310    1.3697
    5.325    1.6800
    5.340    1.5302
    5.355    1.6372
    5.370    1.4232
    5.385    1.6479
    5.400    1.6051
    5.415    1.4660
    5.430    1.4339
    5.445    1.5302
    5.460    1.5516
    5.475    1.6372
    5.490    1.5730
    5.505    1.6051
    5.520    1.6586
    5.535    1.5944
    5.550    1.6693
    5.565    1.7442
    5.580    1.6907
    5.595    1.7228
    5.610    1.7978
    5.625    1.7228
    5.640    1.6158
    5.655    1.6265
    5.670    1.5623
    5.685    1.5623
    5.700    2.0546
    5.715    1.9155
    5.730    2.0760
    5.745    2.0011
    5.760    2.1295
    5.775    2.1723
    5.790    2.1723
    5.805    2.0011
    5.820    2.0867
    5.835    2.1509
    5.850    2.3328
    5.865    2.4933
    5.880    2.7608
    5.895    2.4184
    5.910    2.5361
    5.925    2.9642
    5.940    3.1140
    5.955    2.9213
    5.970    3.0391
    5.985    3.3387
    6.000    3.3494
    6.015    3.4992
    6.030    3.5741
    6.045    3.9593
    6.060    3.9914
    6.075    4.4730
    6.090    4.2162
    6.105    4.5800
    6.120    4.7619
    6.135    5.1792
    6.150    5.4789
    6.165    5.7999
    6.180    6.4526
    6.195    6.6667
    6.210    6.7844
    6.225    7.5869
    6.240    8.6249
    6.255    9.2563
    6.270   10.2087
    6.285   11.3965
    6.300   11.7710
    6.315   13.0872
    6.330   14.8636
    6.345   17.7528
    6.360   21.0166
    6.375   26.6667
    6.390   34.7459
    6.405   37.0573
    6.420   28.6998
    6.435   13.7828
    6.450    4.2804
    6.465    2.0546
    6.480    1.6800
    6.495    1.4339
    6.510    1.4125
    6.525    1.2306
    6.540    1.2306
    6.555    1.3804
    6.570    1.1985
    6.585    1.1343
    6.600    1.1664
    6.615    1.2520
    6.630    1.0808
    6.645    1.1878
    6.660    1.2734
    6.675    1.3590
    6.690    1.2948
    6.705    1.1985
    6.720    1.1022
    6.735    1.0166
    6.750    1.2413
    6.765    1.0808
    6.780    1.2841
    6.795    1.1985
    6.810    1.2413
    6.825    1.0594
    6.840    1.0487
    6.855    1.0380
    6.870    0.9203
    6.885    1.2413
    6.900    1.1450
    6.915    1.2199
    6.930    1.3055
    6.945    1.1771
    6.960    1.0808
    6.975    1.2734
    6.990    1.2520
    7.005    1.1022
    7.020    1.1771
    7.035    1.2199
    7.050    1.1771
    7.065    1.1236
    7.080    1.3162
    7.095    1.1450
    7.110    1.2306
    7.125    1.1878
    7.140    1.1022
    7.155    1.1664
    7.170    1.2627
    7.185    1.2306
    7.200    1.2199
    7.215    1.3162
    7.230    1.2948
    7.245    1.3055
    7.260    1.1557
    7.275    1.2948
    7.290    1.3911
    7.305    1.4232
    7.320    1.3590
    7.335    1.2841
    7.350    1.1450
    7.365    1.4767
    7.380    1.4018
    7.395    1.5730
    7.410    1.4018
    7.425    1.5623
    7.440    1.4981
    7.455    1.3697
    7.470    1.4660
    7.485    1.4339
    7.500    1.4232
    7.515    1.5195
    7.530    1.6907
    7.545    1.8941
    7.560    1.7549
    7.575    1.6800
    7.590    1.9048
    7.605    2.0332
    7.620    2.2151
    7.635    2.1188
    7.650    2.2793
    7.665    2.4933
    7.680    2.4933
    7.695    2.6324
    7.710    2.6859
    7.725    2.9535
    7.740    3.4671
    7.755    3.7453
    7.770    4.3553
    7.785    4.4623
    7.800    5.4682
    7.815    6.9984
    7.830    8.8818
    7.845   10.1338
    7.860    9.1921
    7.875    5.8855
    7.890    2.5896
    7.905    1.2734
    7.920    1.1343
    7.935    1.1557
    7.950    1.2306
    7.965    1.2306
    7.980    0.9417
    7.995    1.0380
    8.010    1.1343
    8.025    1.2092
    8.040    1.2092
    8.055    1.1129
    8.070    1.1557
    8.085    1.1557
    8.100    1.2841
    8.115    1.0380
    8.130    1.0487
    8.145    0.8989
    8.160    1.0701
    8.175    0.9845
    8.190    1.0273
    8.205    0.9524
    8.220    0.9631
    8.235    0.9845
    8.250    0.9845
    8.265    1.2734
    8.280    1.0808
    8.295    0.9952
    8.310    1.0059
    8.325    1.0166
    8.340    1.0594
    8.355    1.0273
    8.370    1.1129
    8.385    1.1236
    8.400    1.1450
    8.415    1.0915
    8.430    1.0808
    8.445    1.0701
    8.460    1.1450
    8.475    1.0915
    8.490    1.0915
    8.505    0.9738
    8.520    1.1236
    8.535    1.1236
    8.550    1.2841
    8.565    1.1664
    8.580    1.1557
    8.595    1.1878
    8.610    1.3162
    8.625    1.3269
    8.640    1.1771
    8.655    1.2199
    8.670    1.2948
    8.685    1.2841
    8.700    1.4339
    8.715    1.3804
    8.730    1.0915
    8.745    1.0701
    8.760    1.3162
    8.775    1.6265
    8.790    1.5730
    8.805    1.7442
    8.820    1.7228
    8.835    1.6693
    8.850    2.2151
    8.865    1.9690
    8.880    2.0546
    8.895    2.2151
    8.910    2.3970
    8.925    2.5682
    8.940    2.6859
    8.955    2.9535
    8.970    3.1675
    8.985    3.4992
    9.000    4.3232
    9.015    4.5586
    9.030    5.4575
    9.045    6.6774
    9.060    8.2397
    9.075    7.9401
    9.090    5.5752
    9.105    3.4029
    9.120    1.5730
    9.135    1.1771
    9.150    1.1129
    9.165    1.0059
    9.180    0.8668
    9.195    0.9096
    9.210    1.0166
    9.225    1.0166
    9.240    1.1129
    9.255    1.0808
    9.270    1.1129
    9.285    1.0059
    9.300    1.0380
    9.315    0.9631
    9.330    1.0594
    9.345    0.9631
    9.360    0.9310
    9.375    0.8989
    9.390    0.9631
    9.405    0.9203
    9.420    0.9417
    9.435    0.9524
    9.450    1.0487
    9.465    1.0273
    9.480    0.9203
    9.495    0.8668
    9.510    0.8561
    9.525    0.9952
    9.540    0.9524
    9.555    0.9845
    9.570    1.0594
    9.585    0.9524
    9.600    0.8989
    9.615    0.9738
    9.630    0.9203
    9.645    0.9738
    9.660    0.9952
    9.675    1.1022
    9.690    1.1343
    9.705    1.0701
    9.720    0.9417
    9.735    0.9631
    9.750    0.9310
    9.765    0.8347
    9.780    0.8882
    9.795    0.9952
    9.810    0.8989
    9.825    1.0915
    9.840    0.8989
    9.855    0.9310
    9.870    0.9845
    9.885    0.9845
    9.900    0.9952
    9.915    1.0701
    9.930    0.9952
    9.945    1.0166
    9.960    1.0273
    9.975    1.1129
    9.990    1.0701
   10.005    1.2092
   10.020    1.1664
   10.035    1.2413
   10.050    1.1450
   10.065    1.2520
   10.080    1.3055
   10.095    1.3376
   10.110    1.7549
   10.125    2.0760
   10.140    2.0653
   10.155    1.9369
   10.170    1.7657
   10.185    1.1129
   10.200    0.9631
   10.215    0.8561
   10.230    0.9417
   10.245    0.8775
   10.260    1.0166
   10.275    0.9845
   10.290    0.8454
   10.305    0.8882
   10.320    0.8989
   10.335    1.0166
   10.350    0.8454
   10.365    0.9310
   10.380    0.8668
   10.395    0.8775
   10.410    0.8882
   10.425    0.8454
   10.440    0.9524
   10.455    0.8133
   10.470    0.8775
   10.485    0.9738
   10.500    0.8882
   10.515    0.9524
   10.530    1.0594
   10.545    0.9738
   10.560    0.8882
   10.575    0.9417
   10.590    1.0059
   10.605    1.0701
   10.620    1.0059
   10.635    1.0273
   10.650    0.8882
   10.665    1.1557
   10.680    1.0594
   10.695    1.1129
   10.710    1.2306
   10.725    1.3162
   10.740    1.3162
   10.755    1.3055
   10.770    1.2948
   10.785    1.3162
   10.800    1.4981
   10.815    1.6907
   10.830    1.6372
   10.845    1.7657
   10.860    2.0225
   10.875    1.9583
   10.890    2.1937
   10.905    2.2900
   10.920    2.3863
   10.935    2.3114
   10.950    2.8250
   10.965    3.2317
   10.980    3.4136
   10.995    3.8095
   11.010    4.5479
   11.025    5.3184
   11.040    5.9604
   11.055    6.9877
   11.070    8.7212
   11.085   11.5570
   11.100   13.7186
   11.115   14.1359
   11.130   12.1990
   11.145    7.8117
   11.160    3.7774
   11.175    1.7549
   11.190    1.1771
   11.205    1.1557
   11.220    0.9524
   11.235    1.0915
   11.250    1.0487
   11.265    0.8882
   11.280    0.9096
   11.295    0.8989
   11.310    0.9417
   11.325    0.9203
   11.340    0.9203
   11.355    0.8240
   11.370    0.8026
   11.385    0.9203
   11.400    0.7919
   11.415    0.7598
   11.430    0.8347
   11.445    0.9738
   11.460    0.9845
   11.475    0.8026
   11.490    0.8347
   11.505    0.9203
   11.520    0.8347
   11.535    0.8347
   11.550    0.9096
   11.565    0.8989
   11.580    0.7919
   11.595    1.0701
   11.610    0.8989
   11.625    0.8133
   11.640    0.9310
   11.655    0.9417
   11.670    1.0380
   11.685    1.1129
   11.700    0.9524
   11.715    0.9952
   11.730    1.0059
   11.745    1.1129
   11.760    1.1343
   11.775    1.0808
   11.790    1.1450
   11.805    1.2092
   11.820    1.3269
   11.835    1.3590
   11.850    1.5623
   11.865    1.8727
   11.880    1.7764
   11.895    1.9904
   11.910    2.0760
   11.925    2.1402
   11.940    2.6003
   11.955    2.6859
   11.970    3.6383
   11.985    4.2911
   12.000    5.1043
   12.015    4.7833
   12.030    3.8523
   12.045    3.0391
   12.060    1.7764
   12.075    1.0808
   12.090    1.0273
   12.105    0.8240
   12.120    0.6849
   12.135    0.9845
   12.150    0.8561
   12.165    0.6528
   12.180    0.8240
   12.195    0.9631
   12.210    0.9203
   12.225    0.7598
   12.240    0.8240
   12.255    0.7705
   12.270    0.9631
   12.285    0.7919
   12.300    0.7812
   12.315    0.7063
   12.330    0.7491
   12.345    0.9845
   12.360    0.7919
   12.375    0.9845
   12.390    0.8882
   12.405    0.7277
   12.420    0.8026
   12.435    0.9310
   12.450    0.8561
   12.465    0.9310
   12.480    0.9952
   12.495    1.0059
   12.510    1.0059
   12.525    0.9417
   12.540    1.1129
   12.555    1.0915
   12.570    0.9738
   12.585    0.9203
   12.600    1.1664
   12.615    1.0380
   12.630    1.0915
   12.645    1.1878
   12.660    1.2627
   12.675    1.2520
   12.690    1.4339
   12.705    1.5944
   12.720    1.5623
   12.735    1.6800
   12.750    1.8620
   12.765    2.5575
   12.780    2.8357
   12.795    3.2210
   12.810    4.1948
   12.825    5.3505
   12.840    5.2648
   12.855    4.9331
   12.870    4.1520
   12.885    2.5575
   12.900    1.3483
   12.915    0.9417
   12.930    0.7277
   12.945    0.7170
   12.960    0.7919
   12.975    0.9096
   12.990    0.8347
   13.005    0.9096
   13.020    0.7170
   13.035    0.8454
   13.050    0.8347
   13.065    0.8133
   13.080    0.9310
   13.095    0.9524
   13.110    0.8775
   13.125    0.8454
   13.140    0.8026
   13.155    0.7491
   13.170    0.8240
   13.185    1.0273
   13.200    0.9096
   13.215    0.9310
   13.230    0.6849
   13.245    0.8668
   13.260    0.8347
   13.275    0.7919
   13.290    0.8347
   13.305    0.9631
   13.320    0.9310
   13.335    0.7919
   13.350    1.0166
   13.365    1.0487
   13.380    1.0166
   13.395    1.0166
   13.410    1.0273
   13.425    1.0487
   13.440    1.3483
   13.455    1.5088
   13.470    1.6907
   13.485    1.7014
   13.500    1.8513
   13.515    2.0760
   13.530    2.0653
   13.545    2.4398
   13.560    3.0498
   13.575    3.7560
   13.590    4.4088
   13.605    5.3077
   13.620    5.6822
   13.635    5.4575
   13.650    4.1734
   13.665    3.0498
   13.680    1.7014
   13.695    0.9952
   13.710    0.7919
   13.725    0.7812
   13.740    0.7812
   13.755    0.7705
   13.770    0.7063
   13.785    0.6314
   13.800    0.8026
   13.815    0.6849
   13.830    0.7919
   13.845    0.7170
   13.860    0.8775
   13.875    0.8026
   13.890    0.9096
   13.905    0.8133
   13.920    0.8347
   13.935    0.8133
   13.950    0.8668
   13.965    0.7063
   13.980    0.8882
   13.995    0.8775
   14.010    0.8454
   14.025    0.6421
   14.040    0.7705
   14.055    0.7705
   14.070    0.7063
   14.085    0.6528
   14.100    0.5993
   14.115    0.6956
   14.130    0.8668
   14.145    0.7919
   14.160    0.8454
   14.175    0.7919
   14.190    0.6742
   14.205    0.9417
   14.220    0.7919
   14.235    0.8561
   14.250    0.8775
   14.265    0.9738
   14.280    0.9096
   14.295    1.0808
   14.310    0.9203
   14.325    1.0166
   14.340    1.1450
   14.355    1.4446
   14.370    1.4553
   14.385    1.4553
   14.400    1.1557
   14.415    0.8240
   14.430    0.8989
   14.445    0.7705
   14.460    0.8240
   14.475    0.7277
   14.490    0.6207
   14.505    0.6956
   14.520    0.7063
   14.535    0.7598
   14.550    0.8133
   14.565    0.6956
   14.580    0.7063
   14.595    0.7170
   14.610    0.8026
   14.625    0.7063
   14.640    0.7063
   14.655    0.8668
   14.670    0.7919
   14.685    0.7063
   14.700    0.7170
   14.715    0.7170
   14.730    0.8454
   14.745    0.7705
   14.760    0.7170
   14.775    0.8240
   14.790    0.7705
   14.805    0.8133
   14.820    0.8561
   14.835    0.8775
   14.850    0.8882
   14.865    0.9096
   14.880    0.8347
   14.895    0.9845
   14.910    1.0701
   14.925    1.2199
   14.940    1.1129
   14.955    1.0915
   14.970    1.2841
   14.985    1.6586
   15.000    1.6907
   15.015    2.0439
   15.030    2.5254
   15.045    3.3173
   15.060    3.2852
   15.075    3.4029
   15.090    2.8571
   15.105    2.4933
   15.120    1.7871
   15.135    1.0915
   15.150    0.8882
   15.165    0.6849
   15.180    0.8026
   15.195    0.8240
   15.210    0.7705
   15.225    0.7598
   15.240    0.7705
   15.255    0.7919
   15.270    0.7491
   15.285    0.8454
   15.300    0.5886
   15.315    0.6421
   15.330    0.7063
   15.345    0.7598
   15.360    0.7384
   15.375    0.7170
   15.390    0.8133
   15.405    0.8561
   15.420    0.7812
   15.435    0.7812
   15.450    0.7705
   15.465    0.7063
   15.480    0.6849
   15.495    0.6207
   15.510    0.6314
   15.525    0.6742
   15.540    0.7277
   15.555    0.8347
   15.570    0.9096
   15.585    0.8240
   15.600    0.7919
   15.615    0.9738
   15.630    0.8561
   15.645    1.0380
   15.660    1.1236
   15.675    1.0166
   15.690    1.3162
   15.705    1.6479
   15.720    1.8513
   15.735    1.7657
   15.750    1.9690
   15.765    1.8192
   15.780    1.4446
   15.795    1.2413
   15.810    0.9952
   15.825    0.6635
   15.840    0.8026
   15.855    0.8668
   15.870    0.9203
   15.885    0.7812
   15.900    0.6314
   15.915    0.7277
   15.930    0.7812
   15.945    0.7812
   15.960    0.7491
   15.975    0.7063
   15.990    0.7277
   16.005    0.6742
   16.020    0.7705
   16.035    0.5993
   16.050    0.8347
   16.065    0.7598
   16.080    0.7598
   16.095    0.7384
   16.110    0.7170
   16.125    0.8561
   16.140    0.9310
   16.155    0.7170
   16.170    0.6956
   16.185    0.7812
   16.200    0.8454
   16.215    1.0059
   16.230    0.9845
   16.245    1.4018
   16.260    1.1450
   16.275    1.1343
   16.290    1.0915
   16.305    1.3804
   16.320    1.7871
   16.335    1.8299
   16.350    2.1616
   16.365    2.7073
   16.380    3.1461
   16.395    3.2317
   16.410    2.9428
   16.425    2.3114
   16.440    1.8192
   16.455    1.2627
   16.470    0.8668
   16.485    0.6528
   16.500    0.6100
   16.515    0.5671
   16.530    0.7063
   16.545    0.7491
   16.560    0.6207
   16.575    0.7491
   16.590    0.7491
   16.605    0.7063
   16.620    0.5993
   16.635    0.8133
   16.650    0.8026
   16.665    0.6207
   16.680    0.8561
   16.695    0.7170
   16.710    0.8775
   16.725    0.7812
   16.740    0.7063
   16.755    0.7063
   16.770    0.6314
   16.785    0.6635
   16.800    0.5993
   16.815    0.6314
   16.830    0.7384
   16.845    0.6742
   16.860    0.7063
   16.875    0.6421
   16.890    0.7277
   16.905    0.6956
   16.920    0.7598
   16.935    0.8026
   16.950    0.7812
   16.965    0.7919
   16.980    0.7491
   16.995    0.6314
   17.010    0.6742
   17.025    0.6742
   17.040    0.8347
   17.055    0.7812
   17.070    0.6849
   17.085    0.7598
   17.100    0.5993
   17.115    0.5993
   17.130    0.6528
   17.145    0.8561
   17.160    0.7277
   17.175    0.6742
   17.190    0.6100
   17.205    0.7598
   17.220    0.6314
   17.235    0.5886
   17.250    0.6207
   17.265    0.5671
   17.280    0.6742
   17.295    0.7063
   17.310    0.7277
   17.325    0.5457
   17.340    0.7384
   17.355    0.7491
   17.370    0.5886
   17.385    0.7705
   17.400    0.8454
   17.415    0.7277
   17.430    0.6742
   17.445    0.7491
   17.460    0.7063
   17.475    0.6421
   17.490    0.7919
   17.505    0.7277
   17.520    0.7812
   17.535    0.6956
   17.550    0.9631
   17.565    0.9203
   17.580    1.0166
   17.595    1.1557
   17.610    1.3162
   17.625    1.3804
   17.640    1.4446
   17.655    1.1450
   17.670    1.0701
   17.685    0.8026
   17.700    0.6528
   17.715    0.6742
   17.730    0.6956
   17.745    0.7170
   17.760    0.7170
   17.775    0.7491
   17.790    0.7598
   17.805    0.6421
   17.820    0.6849
   17.835    0.8347
   17.850    0.6956
   17.865    0.7491
   17.880    0.7277
   17.895    0.7919
   17.910    0.5886
   17.925    0.7277
   17.940    0.6956
   17.955    0.7277
   17.970    0.5778
   17.985    0.6956
   18.000    0.8882
   18.015    0.8561
   18.030    0.6421
   18.045    0.5993
   18.060    0.8133
   18.075    0.8561
   18.090    0.5886
   18.105    0.6528
   18.120    0.7063
   18.135    0.6207
   18.150    0.6742
   18.165    0.6956
   18.180    0.6849
   18.195    0.6956
   18.210    0.7598
   18.225    0.8026
   18.240    0.6635
   18.255    0.6100
   18.270    0.6100
   18.285    0.5778
   18.300    0.6956
   18.315    0.7705
   18.330    0.6956
   18.345    0.5778
   18.360    0.6314
   18.375    0.6635
   18.390    0.6528
   18.405    0.6742
   18.420    0.7170
   18.435    0.7277
   18.450    0.7063
   18.465    0.7063
   18.480    0.6314
   18.495    0.7491
   18.510    0.7705
   18.525    0.6528
   18.540    0.7705
   18.555    0.7277
   18.570    0.9096
   18.585    0.6849
   18.600    0.7919
   18.615    0.6207
   18.630    0.7170
   18.645    0.8133
   18.660    0.8561
   18.675    0.9417
   18.690    0.8133
   18.705    1.0166
   18.720    1.1557
   18.735    1.1985
   18.750    1.1343
   18.765    1.2841
   18.780    1.1664
   18.795    1.0594
   18.810    0.9952
   18.825    0.9310
   18.840    0.7919
   18.855    0.7598
   18.870    0.7170
   18.885    0.7705
   18.900    0.6100
   18.915    0.6314
   18.930    0.7063
   18.945    0.9203
   18.960    0.6100
   18.975    0.6956
   18.990    0.6742
   19.005    0.6421
   19.020    0.6421
   19.035    0.7598
   19.050    0.7277
   19.065    0.7170
   19.080    0.7812
   19.095    0.7277
   19.110    0.8989
   19.125    0.8240
   19.140    0.8026
   19.155    0.7170
   19.170    0.7384
   19.185    0.7491
   19.200    0.7598
   19.215    0.9738
   19.230    0.9524
   19.245    0.9417
   19.260    0.9845
   19.275    1.1343
   19.290    1.2841
   19.305    1.6158
   19.320    1.3376
   19.335    1.4125
   19.350    1.2092
   19.365    1.2092
   19.380    0.8989
   19.395    0.7705
   19.410    0.6849
   19.425    0.6100
   19.440    0.6421
   19.455    0.6635
   19.470    0.6314
   19.485    0.7384
   19.500    0.9096
   19.515    0.7598
   19.530    0.7063
   19.545    0.6956
   19.560    0.7491
   19.575    0.6421
   19.590    0.6314
   19.605    0.7812
   19.620    0.8133
   19.635    0.7598
   19.650    0.8561
   19.665    0.8347
   19.680    0.8240
   19.695    0.9203
   19.710    0.9952
   19.725    0.9631
   19.740    1.1450
   19.755    1.1557
   19.770    1.3162
   19.785    1.4018
   19.800    1.6800
   19.815    2.1081
   19.830    2.3649
   19.845    2.6645
   19.860    2.5575
   19.875    2.5682
   19.890    2.1295
   19.905    1.7657
   19.920    1.4767
   19.935    0.8882
   19.950    0.6635
   19.965    0.8882
   19.980    0.8133
   19.995    0.8133
   20.010    0.6849
   20.025    0.8240
   20.040    0.7063
   20.055    0.7491
   20.070    0.6956
   20.085    0.6635
   20.100    0.7491
   20.115    0.7063
   20.130    0.7063
   20.145    0.7812
   20.160    0.8026
   20.175    0.7170
   20.190    0.8454
   20.205    0.6100
   20.220    0.7705
   20.235    0.8240
   20.250    0.8240
   20.265    0.8775
   20.280    0.8240
   20.295    0.8133
   20.310    0.8561
   20.325    0.7812
   20.340    1.1236
   20.355    1.2199
   20.370    1.3162
   20.385    1.2841
   20.400    1.0166
   20.415    0.9845
   20.430    1.0059
   20.445    0.8240
   20.460    0.6956
   20.475    0.6635
   20.490    0.6421
   20.505    0.4922
   20.520    0.6635
   20.535    0.7170
   20.550    0.7063
   20.565    0.7598
   20.580    0.6314
   20.595    0.7919
   20.610    0.7705
   20.625    0.7170
   20.640    0.7384
   20.655    0.7812
   20.670    0.5671
   20.685    0.6207
   20.700    0.5564
   20.715    0.6207
   20.730    0.8133
   20.745    0.7277
   20.760    0.8347
   20.775    0.9096
   20.790    0.9952
   20.805    1.0273
   20.820    0.9310
   20.835    1.0487
   20.850    1.1985
   20.865    1.0701
   20.880    1.0380
   20.895    1.0380
   20.910    0.9631
   20.925    0.8989
   20.940    0.9310
   20.955    0.8561
   20.970    0.6314
   20.985    0.6849
   21.000    0.5993
   21.015    0.7598
   21.030    0.9203
   21.045    0.6314
   21.060    0.6742
   21.075    0.6314
   21.090    0.7812
   21.105    0.6635
   21.120    0.6314
   21.135    0.7598
   21.150    0.7812
   21.165    0.7812
   21.180    0.8026
   21.195    0.8347
   21.210    0.8133
   21.225    0.8347
   21.240    0.7491
   21.255    0.8133
   21.270    0.9631
   21.285    0.8668
   21.300    0.7919
   21.315    0.8133
   21.330    0.8775
   21.345    0.9096
   21.360    0.9952
   21.375    1.2734
   21.390    1.0915
   21.405    1.0594
   21.420    0.9524
   21.435    1.0059
   21.450    0.8561
   21.465    0.6421
   21.480    0.7277
   21.495    0.7063
   21.510    0.7277
   21.525    0.6314
   21.540    0.6421
   21.555    0.7277
   21.570    0.7277
   21.585    0.6849
   21.600    0.8561
   21.615    0.7384
   21.630    0.5886
   21.645    0.7598
   21.660    0.6421
   21.675    0.6528
   21.690    0.6849
   21.705    0.6849
   21.720    0.7277
   21.735    0.8133
   21.750    0.7598
   21.765    0.7170
   21.780    0.6742
   21.795    0.8347
   21.810    0.7598
   21.825    0.7919
   21.840    0.9310
   21.855    0.9738
   21.870    0.9738
   21.885    0.8882
   21.900    0.8561
   21.915    0.8775
   21.930    0.8240
   21.945    0.7705
   21.960    0.7705
   21.975    0.7277
   21.990    0.7170
   22.005    0.7170
   22.020    0.5886
   22.035    0.6421
   22.050    0.7277
   22.065    0.7598
   22.080    0.8668
   22.095    0.7384
   22.110    0.7063
   22.125    0.8882
   22.140    0.7277
   22.155    0.6956
   22.170    0.6956
   22.185    0.7170
   22.200    0.6742
   22.215    0.6849
   22.230    0.5886
   22.245    0.8133
   22.260    0.7277
   22.275    0.6742
   22.290    0.8989
   22.305    0.8561
   22.320    0.7812
   22.335    0.6421
   22.350    0.7919
   22.365    0.8133
   22.380    0.7491
   22.395    0.7598
   22.410    0.6849
   22.425    0.7705
   22.440    0.7277
   22.455    0.6742
   22.470    0.6528
   22.485    0.6528
   22.500    0.7812
   22.515    0.7384
   22.530    0.6207
   22.545    0.7277
   22.560    0.7598
   22.575    0.6635
   22.590    0.6742
   22.605    0.6742
   22.620    0.5886
   22.635    0.6528
   22.650    0.7491
   22.665    0.6314
   22.680    0.6207
   22.695    0.7491
   22.710    0.8775
   22.725    0.8347
   22.740    0.7598
   22.755    0.8133
   22.770    0.8882
   22.785    1.0701
   22.800    1.1985
   22.815    1.1129
   22.830    1.1664
   22.845    1.0701
   22.860    1.0808
   22.875    0.8989
   22.890    0.7598
   22.905    0.6956
   22.920    0.5886
   22.935    0.6421
   22.950    0.7705
   22.965    0.6207
   22.980    0.6742
   22.995    0.7705
   23.010    0.6742
   23.025    0.6100
   23.040    0.6742
   23.055    0.6207
   23.070    0.5778
   23.085    0.8240
   23.100    0.7384
   23.115    0.5886
   23.130    0.6956
   23.145    0.6100
   23.160    0.5993
   23.175    0.6956
   23.190    0.5886
   23.205    0.6314
   23.220    0.6100
   23.235    0.8133
   23.250    0.6956
   23.265    0.8668
   23.280    0.8454
   23.295    0.6528
   23.310    0.7812
   23.325    0.8668
   23.340    0.7063
   23.355    0.7277
   23.370    0.7277
   23.385    0.8133
   23.400    0.6849
   23.415    0.7491
   23.430    0.6635
   23.445    0.6742
   23.460    0.6314
   23.475    0.7919
   23.490    0.7919
   23.505    0.7812
   23.520    0.8454
   23.535    0.7277
   23.550    0.9524
   23.565    0.8240
   23.580    0.7384
   23.595    0.8561
   23.610    0.9952
   23.625    1.0059
   23.640    1.1343
   23.655    1.0594
   23.670    1.4018
   23.685    1.7335
   23.700    2.0332
   23.715    2.0332
   23.730    1.8727
   23.745    1.7978
   23.760    1.6051
   23.775    1.7228
   23.790    1.3911
   23.805    1.0166
   23.820    0.6849
   23.835    0.8561
   23.850    0.8561
   23.865    0.8026
   23.880    0.6956
   23.895    0.7919
   23.910    0.8240
   23.925    0.6100
   23.940    0.5993
   23.955    0.6635
   23.970    0.6849
   23.985    0.7277
   24.000    0.6421
   24.015    0.7491
   24.030    0.7384
   24.045    0.7919
   24.060    0.8347
   24.075    0.6849
   24.090    0.6956
   24.105    0.6314
   24.120    0.7919
   24.135    0.9203
   24.150    0.6956
   24.165    0.7063
   24.180    0.7919
   24.195    0.6849
   24.210    0.7170
   24.225    0.6635
   24.240    0.6956
   24.255    0.7491
   24.270    0.7491
   24.285    0.8026
   24.300    0.8561
   24.315    0.8133
   24.330    0.7919
   24.345    0.8561
   24.360    0.8026
   24.375    0.6849
   24.390    0.6314
   24.405    0.5886
   24.420    0.7598
   24.435    0.7170
   24.450    0.6956
   24.465    0.7170
   24.480    0.8347
   24.495    0.6635
   24.510    0.6849
   24.525    0.7812
   24.540    0.7598
   24.555    0.8668
   24.570    0.7384
   24.585    0.8775
   24.600    0.9310
   24.615    0.7170
   24.630    0.7384
   24.645    0.7063
   24.660    0.7170
   24.675    0.7277
   24.690    0.7277
   24.705    0.7812
   24.720    0.7812
   24.735    0.6635
   24.750    0.7277
   24.765    0.6849
   24.780    0.7063
   24.795    0.6849
   24.810    0.6314
   24.825    0.5886
   24.840    0.7063
   24.855    0.7063
   24.870    0.6207
   24.885    0.8026
   24.900    0.7705
   24.915    0.6528
   24.930    0.7812
   24.945    0.7598
   24.960    0.6207
   24.975    0.6849
   24.990    0.6849
   25.005    0.6528
   25.020    0.6742
   25.035    0.7491
   25.050    0.7491
   25.065    0.7063
   25.080    0.5886
   25.095    0.6956
   25.110    0.6956
   25.125    0.7812
   25.140    0.7277
   25.155    0.7170
   25.170    0.6635
   25.185    0.4708
   25.200    0.5671
   25.215    0.5564
   25.230    0.6421
   25.245    0.7919
   25.260    0.8240
   25.275    0.9310
   25.290    0.8561
   25.305    0.7491
   25.320    0.8454
   25.335    0.7919
   25.350    0.7384
   25.365    0.7384
   25.380    0.8989
   25.395    0.8882
   25.410    0.9524
   25.425    1.2948
   25.440    1.3911
   25.455    1.2734
   25.470    1.2092
   25.485    1.1878
   25.500    1.0594
   25.515    0.9096
   25.530    0.9417
   25.545    0.8668
   25.560    0.8026
   25.575    0.7170
   25.590    0.7705
   25.605    0.8133
   25.620    0.7063
   25.635    0.6314
   25.650    0.6742
   25.665    0.7384
   25.680    0.7277
   25.695    0.8240
   25.710    0.9096
   25.725    0.8026
   25.740    0.8347
   25.755    0.7812
   25.770    0.7277
   25.785    0.8347
   25.800    0.8882
   25.815    0.9845
   25.830    1.0273
   25.845    0.9631
   25.860    1.1664
   25.875    1.0808
   25.890    1.2520
   25.905    1.0487
   25.920    1.1129
   25.935    0.8133
   25.950    0.8026
   25.965    0.7598
   25.980    0.7598
   25.995    0.6100
   26.010    0.7384
   26.025    0.8989
   26.040    0.8133
   26.055    0.6207
   26.070    0.6742
   26.085    0.7812
   26.100    0.7812
   26.115    0.8133
   26.130    0.7705
   26.145    0.8668
   26.160    0.8454
   26.175    1.0701
   26.190    1.0380
   26.205    1.2520
   26.220    1.4874
   26.235    1.6479
   26.250    2.0760
   26.265    2.0760
   26.280    2.0225
   26.295    2.0867
   26.310    1.8085
   26.325    1.9583
   26.340    1.7228
   26.355    1.1450
   26.370    0.9203
   26.385    0.7705
   26.400    0.7170
   26.415    0.6849
   26.430    0.7491
   26.445    0.7598
   26.460    0.6421
   26.475    0.7705
   26.490    0.7919
   26.505    0.8668
   26.520    0.9417
   26.535    0.8133
   26.550    0.8454
   26.565    0.9631
   26.580    1.0915
   26.595    1.1664
   26.610    1.5944
   26.625    1.7657
   26.640    1.9583
   26.655    1.9690
   26.670    2.3114
   26.685    2.1081
   26.700    2.0011
   26.715    1.8192
   26.730    1.7228
   26.745    1.6586
   26.760    1.3697
   26.775    0.9845
   26.790    0.8989
   26.805    0.7812
   26.820    0.7277
   26.835    0.6742
   26.850    0.5993
   26.865    0.7277
   26.880    0.7277
   26.895    0.7598
   26.910    0.8026
   26.925    0.8561
   26.940    0.7598
   26.955    0.8668
   26.970    0.8668
   26.985    0.9417
   27.000    0.9738
   27.015    1.0487
   27.030    1.0594
   27.045    1.1557
   27.060    1.2306
   27.075    1.1236
   27.090    1.1129
   27.105    1.2306
   27.120    1.1236
   27.135    0.9952
   27.150    0.8775
   27.165    0.8454
   27.180    0.8668
   27.195    0.7919
   27.210    0.9738
   27.225    0.9203
   27.240    0.6528
   27.255    0.7384
   27.270    0.7384
   27.285    0.8240
   27.300    0.7170
   27.315    0.8240
   27.330    0.7812
   27.345    0.7170
   27.360    0.7277
   27.375    0.8561
   27.390    0.7705
   27.405    0.8561
   27.420    0.7812
   27.435    0.7919
   27.450    0.6849
   27.465    0.9631
   27.480    0.9524
   27.495    0.9310
   27.510    0.7812
   27.525    0.6849
   27.540    0.8347
   27.555    0.8240
   27.570    0.7919
   27.585    0.7598
   27.600    0.6849
   27.615    0.6742
   27.630    0.6742
   27.645    0.7063
   27.660    0.6635
   27.675    0.7812
   27.690    0.9096
   27.705    0.6849
   27.720    0.7277
   27.735    0.8347
   27.750    0.7063
   27.765    0.8026
   27.780    0.8026
   27.795    1.0380
   27.810    1.0380
   27.825    0.9096
   27.840    0.9952
   27.855    0.9310
   27.870    0.9203
   27.885    0.9845
   27.900    1.0380
   27.915    0.9310
   27.930    0.9738
   27.945    0.7277
   27.960    0.6207
   27.975    0.6528
   27.990    0.6849
   28.005    0.7812
   28.020    0.8133
   28.035    0.5778
   28.050    0.5564
   28.065    0.7170
   28.080    0.7277
   28.095    0.6956
   28.110    0.7598
   28.125    0.7384
   28.140    0.6528
   28.155    0.6421
   28.170    0.7170
   28.185    0.7812
   28.200    0.7812
   28.215    0.8347
   28.230    0.7384
   28.245    0.6742
   28.260    0.8026
   28.275    0.7919
   28.290    0.8240
   28.305    0.6421
   28.320    0.7277
   28.335    0.6635
   28.350    0.7277
   28.365    0.6635
   28.380    0.7919
   28.395    0.7812
   28.410    0.7384
   28.425    0.6742
   28.440    0.5671
   28.455    0.7919
   28.470    0.6528
   28.485    0.6849
   28.500    0.7705
   28.515    0.7170
   28.530    0.6849
   28.545    0.6742
   28.560    0.6956
   28.575    0.6956
   28.590    0.7705
   28.605    0.8668
   28.620    0.7919
   28.635    0.8347
   28.650    0.7812
   28.665    0.8668
   28.680    0.7812
   28.695    0.7063
   28.710    0.6742
   28.725    0.8240
   28.740    0.7598
   28.755    0.8026
   28.770    0.5029
   28.785    0.6635
   28.800    0.5350
   28.815    0.5778
   28.830    0.6207
   28.845    0.6314
   28.860    0.6635
   28.875    0.6635
   28.890    0.6742
   28.905    0.8347
   28.920    0.7598
   28.935    0.7598
   28.950    0.7384
   28.965    0.5993
   28.980    0.6956
   28.995    0.6956
   29.010    0.8668
   29.025    0.7812
   29.040    0.9096
   29.055    0.7491
   29.070    0.8454
   29.085    0.7384
   29.100    0.6528
   29.115    0.6849
   29.130    0.5671
   29.145    0.6100
   29.160    0.6956
   29.175    0.7063
   29.190    0.6742
   29.205    0.7491
   29.220    0.6849
   29.235    0.7491
   29.250    0.6849
   29.265    0.6956
   29.280    0.6956
   29.295    0.6742
   29.310    0.5993
   29.325    0.8775
   29.340    0.8561
   29.355    0.7598
   29.370    0.9096
   29.385    0.9310
   29.400    0.8347
   29.415    0.7491
   29.430    0.5993
   29.445    0.6742
   29.460    0.6528
   29.475    0.7384
   29.490    0.6421
   29.505    0.6956
   29.520    0.5136
   29.535    0.6421
   29.550    0.6956
   29.565    0.6207
   29.580    0.6635
   29.595    0.7491
   29.610    0.6742
   29.625    0.7277
   29.640    0.6956
   29.655    0.5886
   29.670    0.7491
   29.685    0.7277
   29.700    0.6635
   29.715    0.8133
   29.730    0.8240
   29.745    0.6956
   29.760    0.7277
   29.775    0.7598
   29.790    0.8775
   29.805    0.7812
   29.820    0.5136
   29.835    0.7063
   29.850    0.7277
   29.865    0.6849
   29.880    0.6742
   29.895    0.6528
   29.910    0.7063
   29.925    0.8133
   29.940    0.7491
   29.955    0.7705
   29.970    0.7705
   29.985    0.7598
   30.000    1.0487
   30.015    1.0701
   30.030    1.3162
   30.045    1.6158
   30.060    1.4553
   30.075    1.6800
   30.090    1.6158
   30.105    1.5944
   30.120    1.7228
   30.135    1.4232
   30.150    1.2520
   30.165    1.1450
   30.180    0.9310
   30.195    0.8347
   30.210    0.6207
   30.225    0.7598
   30.240    0.7384
   30.255    0.6635
   30.270    0.6100
   30.285    0.6314
   30.300    0.6314
   30.315    0.6100
   30.330    0.5993
   30.345    0.7491
   30.360    0.6956
   30.375    0.5778
   30.390    0.7812
   30.405    0.5993
   30.420    0.6314
   30.435    0.8240
   30.450    0.7919
   30.465    0.8026
   30.480    0.5886
   30.495    0.5457
   30.510    0.6635
   30.525    0.5993
   30.540    0.7277
   30.555    0.4922
   30.570    0.5671
   30.585    0.7063
   30.600    0.6314
   30.615    0.5243
   30.630    0.7384
   30.645    0.6528
   30.660    0.6635
   30.675    0.7277
   30.690    0.6956
   30.705    0.7170
   30.720    0.7063
   30.735    0.7598
   30.750    0.8668
   30.765    0.9524
   30.780    0.8668
   30.795    1.0594
   30.810    1.1022
   30.825    0.9096
   30.840    0.9310
   30.855    0.8026
   30.870    0.8668
   30.885    0.7277
   30.900    0.5778
   30.915    0.6100
   30.930    0.6314
   30.945    0.5886
   30.960    0.5457
   30.975    0.5886
   30.990    0.6742
   31.005    0.6528
   31.020    0.5671
   31.035    0.6314
   31.050    0.5886
   31.065    0.5136
   31.080    0.5993
   31.095    0.6421
   31.110    0.7063
   31.125    0.7812
   31.140    0.6100
   31.155    0.6528
   31.170    0.5671
   31.185    0.6635
   31.200    0.5136
   31.215    0.5029
   31.230    0.5778
   31.245    0.6207
   31.260    0.5886
   31.275    0.6956
   31.290    0.5886
   31.305    0.6635
   31.320    0.7384
   31.335    0.6528
   31.350    0.6314
   31.365    0.6742
   31.380    0.6849
   31.395    0.7170
   31.410    0.8347
   31.425    0.7919
   31.440    0.8347
   31.455    1.1450
   31.470    0.9845
   31.485    1.1557
   31.500    1.0808
   31.515    0.9203
   31.530    1.0166
   31.545    0.8989
   31.560    0.9417
   31.575    0.7170
   31.590    0.6956
   31.605    0.6635
   31.620    0.5993
   31.635    0.7063
   31.650    0.6207
   31.665    0.5993
   31.680    0.5671
   31.695    0.6207
   31.710    0.5136
   31.725    0.6956
   31.740    0.6849
   31.755    0.6956
   31.770    0.6207
   31.785    0.5886
   31.800    0.4601
   31.815    0.6849
   31.830    0.6528
   31.845    0.6421
   31.860    0.5457
   31.875    0.6421
   31.890    0.5886
   31.905    0.6207
   31.920    0.6421
   31.935    0.6528
   31.950    0.5886
   31.965    0.7063
   31.980    0.5564
   31.995    0.5886
   32.010    0.5350
   32.025    0.5671
   32.040    0.6314
   32.055    0.6849
   32.070    0.7277
   32.085    0.5778
   32.100    0.6956
   32.115    0.7919
   32.130    0.8454
   32.145    0.7598
   32.160    0.8026
   32.175    0.9203
   32.190    0.7598
   32.205    0.7170
   32.220    0.6742
   32.235    0.7277
   32.250    0.6849
   32.265    0.4815
   32.280    0.5671
   32.295    0.6100
   32.310    0.6207
   32.325    0.6207
   32.340    0.6956
   32.355    0.4922
   32.370    0.5136
   32.385    0.6421
   32.400    0.6207
   32.415    0.5886
   32.430    0.7598
   32.445    0.6100
   32.460    0.7063
   32.475    0.8240
   32.490    0.7170
   32.505    0.7491
   32.520    0.8133
   32.535    0.6849
   32.550    0.7598
   32.565    0.6100
   32.580    0.7384
   32.595    0.7598
   32.610    0.7063
   32.625    0.6849
   32.640    0.6849
   32.655    0.6314
   32.670    0.6528
   32.685    0.5993
   32.700    0.6956
   32.715    0.7277
   32.730    0.7491
   32.745    0.7384
   32.760    0.7705
   32.775    0.8240
   32.790    1.0059
   32.805    0.8347
   32.820    0.9524
   32.835    0.9203
   32.850    0.9631
   32.865    1.0166
   32.880    1.0059
   32.895    1.0701
   32.910    0.7384
   32.925    0.8026
   32.940    0.8240
   32.955    0.6956
   32.970    0.7598
   32.985    0.5778
   33.000    0.6421
   33.015    0.6849
   33.030    0.5886
   33.045    0.4922
   33.060    0.7063
   33.075    0.7277
   33.090    0.6956
   33.105    0.9417
   33.120    0.9096
   33.135    0.7598
   33.150    0.9310
   33.165    0.9417
   33.180    0.9631
   33.195    0.8882
   33.210    0.8668
   33.225    0.9203
   33.240    0.6849
   33.255    0.8561
   33.270    0.7170
   33.285    0.6207
   33.300    0.6742
   33.315    0.6314
   33.330    0.4601
   33.345    0.6421
   33.360    0.6100
   33.375    0.5350
   33.390    0.6421
   33.405    0.6314
   33.420    0.5778
   33.435    0.5029
   33.450    0.5350
   33.465    0.4708
   33.480    0.4922
   33.495    0.5671
   33.510    0.5886
   33.525    0.6742
   33.540    0.5671
   33.555    0.5671
   33.570    0.6207
   33.585    0.7170
   33.600    0.6421
   33.615    0.5886
   33.630    0.4387
   33.645    0.5564
   33.660    0.5993
   33.675    0.4601
   33.690    0.5350
   33.705    0.5136
   33.720    0.6100
   33.735    0.6849
   33.750    0.6956
   33.765    0.7170
   33.780    0.8668
   33.795    0.8668
   33.810    0.7705
   33.825    0.5671
   33.840    0.5778
   33.855    0.6314
   33.870    0.6421
   33.885    0.5136
   33.900    0.6207
   33.915    0.5243
   33.930    0.5457
   33.945    0.6849
   33.960    0.4601
   33.975    0.5564
   33.990    0.4815
   34.005    0.6207
   34.020    0.5671
   34.035    0.5350
   34.050    0.6742
   34.065    0.7812
   34.080    0.8026
   34.095    0.7491
   34.110    0.8240
   34.125    0.8240
   34.140    0.9310
   34.155    0.9203
   34.170    0.8668
   34.185    0.9952
   34.200    0.8454
   34.215    0.7705
   34.230    0.7170
   34.245    0.6635
   34.260    0.6314
   34.275    0.5564
   34.290    0.5671
   34.305    0.4601
   34.320    0.4922
   34.335    0.4601
   34.350    0.6100
   34.365    0.5136
   34.380    0.4601
   34.395    0.6100
   34.410    0.5886
   34.425    0.5564
   34.440    0.4708
   34.455    0.6100
   34.470    0.7170
   34.485    0.5671
   34.500    0.5778
   34.515    0.5457
   34.530    0.5886
   34.545    0.5671
   34.560    0.5671
   34.575    0.4922
   34.590    0.5029
   34.605    0.5457
   34.620    0.6207
   34.635    0.4922
   34.650    0.5457
   34.665    0.5886
   34.680    0.5886
   34.695    0.5136
   34.710    0.5886
   34.725    0.6314
   34.740    0.6421
   34.755    0.5993
   34.770    0.6956
   34.785    0.6528
   34.800    0.6207
   34.815    0.7170
   34.830    0.6528
   34.845    0.5778
   34.860    0.5564
   34.875    0.6528
   34.890    0.5350
   34.905    0.4922
   34.920    0.6528
   34.935    0.5350
   34.950    0.5671
   34.965    0.5886
   34.980    0.5993
   34.995    0.6207
   35.010    0.5564
   35.025    0.6849
   35.040    0.5778
   35.055    0.6528
   35.070    0.5136
   35.085    0.5671
   35.100    0.5457
   35.115    0.6849
   35.130    0.5029
   35.145    0.5243
   35.160    0.5457
   35.175    0.5350
   35.190    0.5350
   35.205    0.5778
   35.220    0.5243
   35.235    0.5350
   35.250    0.5350
   35.265    0.6528
   35.280    0.5778
   35.295    0.5778
   35.310    0.6742
   35.325    0.5886
   35.340    0.5243
   35.355    0.6207
   35.370    0.5243
   35.385    0.5457
   35.400    0.5457
   35.415    0.5350
   35.430    0.5457
   35.445    0.6207
   35.460    0.5564
   35.475    0.5350
   35.490    0.5993
   35.505    0.6314
   35.520    0.5136
   35.535    0.4922
   35.550    0.5457
   35.565    0.5778
   35.580    0.5243
   35.595    0.4815
   35.610    0.5029
   35.625    0.4387
   35.640    0.5457
   35.655    0.6421
   35.670    0.5886
   35.685    0.6421
   35.700    0.6207
   35.715    0.6528
   35.730    0.6956
   35.745    0.6100
   35.760    0.5350
   35.775    0.6421
   35.790    0.5671
   35.805    0.5457
   35.820    0.6100
   35.835    0.5136
   35.850    0.5136
   35.865    0.5136
   35.880    0.5564
   35.895    0.4922
   35.910    0.4387
   35.925    0.4173
   35.940    0.5457
   35.955    0.4601
   35.970    0.5457
   35.985    0.5671
   36.000    0.5243
   36.015    0.5350
   36.030    0.6956
   36.045    0.4922
   36.060    0.4494
   36.075    0.4922
   36.090    0.5457
   36.105    0.5671
   36.120    0.5778
   36.135    0.5564
   36.150    0.5029
   36.165    0.5136
   36.180    0.4708
   36.195    0.4387
   36.210    0.5029
   36.225    0.5671
   36.240    0.5243
   36.255    0.4280
   36.270    0.4815
   36.285    0.5457
   36.300    0.5029
   36.315    0.6314
   36.330    0.4922
   36.345    0.3959
   36.360    0.4708
   36.375    0.4708
   36.390    0.4173
   36.405    0.4494
   36.420    0.5029
   36.435    0.4815
   36.450    0.4173
   36.465    0.4173
   36.480    0.3745
   36.495    0.4601
   36.510    0.5457
   36.525    0.5671
   36.540    0.4494
   36.555    0.5993
   36.570    0.5671
   36.585    0.5564
   36.600    0.5993
   36.615    0.7598
   36.630    0.6314
   36.645    0.7277
   36.660    0.6421
   36.675    0.8133
   36.690    0.6956
   36.705    0.7384
   36.720    0.5243
   36.735    0.5243
   36.750    0.4922
   36.765    0.4601
   36.780    0.5136
   36.795    0.5993
   36.810    0.4601
   36.825    0.5350
   36.840    0.4066
   36.855    0.4494
   36.870    0.4922
   36.885    0.4815
   36.900    0.5029
   36.915    0.5564
   36.930    0.5671
   36.945    0.5778
   36.960    0.5457
   36.975    0.4815
   36.990    0.3959
   37.005    0.4922
   37.020    0.5029
   37.035    0.5457
   37.050    0.5457
   37.065    0.5136
   37.080    0.5778
   37.095    0.5671
   37.110    0.5564
   37.125    0.5564
   37.140    0.6100
   37.155    0.7063
   37.170    0.7063
   37.185    0.6742
   37.200    0.6528
   37.215    0.7063
   37.230    0.7063
   37.245    0.5564
   37.260    0.5457
   37.275    0.5029
   37.290    0.5457
   37.305    0.5136
   37.320    0.4922
   37.335    0.5564
   37.350    0.5564
   37.365    0.5886
   37.380    0.6314
   37.395    0.6956
   37.410    0.5993
   37.425    0.7277
   37.440    0.6100
   37.455    0.5136
   37.470    0.4922
   37.485    0.5671
   37.500    0.6635
   37.515    0.7812
   37.530    0.7170
   37.545    0.5564
   37.560    0.5671
   37.575    0.5243
   37.590    0.5886
   37.605    0.5993
   37.620    0.4815
   37.635    0.5564
   37.650    0.4494
   37.665    0.3959
   37.680    0.3959
   37.695    0.4066
   37.710    0.5457
   37.725    0.5886
   37.740    0.5564
   37.755    0.4494
   37.770    0.3852
   37.785    0.4066
   37.800    0.4280
   37.815    0.4387
   37.830    0.5029
   37.845    0.4494
   37.860    0.4494
   37.875    0.5136
   37.890    0.3959
   37.905    0.4815
   37.920    0.4922
   37.935    0.5564
   37.950    0.3745
   37.965    0.3852
   37.980    0.4708
   37.995    0.4173
   38.010    0.5243
   38.025    0.4601
   38.040    0.4066
   38.055    0.4066
   38.070    0.5564
   38.085    0.4922
   38.100    0.4494
   38.115    0.3745
   38.130    0.3638
   38.145    0.4815
   38.160    0.4601
   38.175    0.5243
   38.190    0.5029
   38.205    0.4173
   38.220    0.3424
   38.235    0.4173
   38.250    0.5243
   38.265    0.5457
   38.280    0.4173
   38.295    0.4708
   38.310    0.5350
   38.325    0.4280
   38.340    0.5136
   38.355    0.4815
   38.370    0.6635
   38.385    0.6100
   38.400    0.5457
   38.415    0.6314
   38.430    0.6421
   38.445    0.5671
   38.460    0.6849
   38.475    0.5457
   38.490    0.4922
   38.505    0.5243
   38.520    0.5243
   38.535    0.4173
   38.550    0.3638
   38.565    0.4173
   38.580    0.3638
   38.595    0.4280
   38.610    0.4494
   38.625    0.4173
   38.640    0.5564
   38.655    0.6207
   38.670    0.5029
   38.685    0.4173
   38.700    0.3210
   38.715    0.2889
   38.730    0.4494
   38.745    0.4173
   38.760    0.4494
   38.775    0.3852
   38.790    0.3852
   38.805    0.3103
   38.820    0.3852
   38.835    0.4601
   38.850    0.3745
   38.865    0.3103
   38.880    0.4922
   38.895    0.3210
   38.910    0.2996
   38.925    0.5243
   38.940    0.2675
   38.955    0.4601
   38.970    0.4280
   38.985    0.4280
   39.000    0.4066
   39.015    0.5136
   39.030    0.4173
   39.045    0.3638
   39.060    0.3531
   39.075    0.4280
   39.090    0.2996
   39.105    0.4173
   39.120    0.4815
   39.135    0.4280
   39.150    0.3852
   39.165    0.3745
   39.180    0.5029
   39.195    0.4280
   39.210    0.5136
   39.225    0.5886
   39.240    0.4708
   39.255    0.4601
   39.270    0.5029
   39.285    0.5029
   39.300    0.6314
   39.315    0.4494
   39.330    0.4066
   39.345    0.3959
   39.360    0.4066
   39.375    0.4708
   39.390    0.5243
   39.405    0.4601
   39.420    0.4280
   39.435    0.4815
   39.450    0.4815
   39.465    0.5778
   39.480    0.5671
   39.495    0.5243
   39.510    0.5564
   39.525    0.5350
   39.540    0.6314
   39.555    0.7063
   39.570    0.6314
   39.585    0.6421
   39.600    0.5457
   39.615    0.4708
   39.630    0.4387
   39.645    0.4815
   39.660    0.5136
   39.675    0.4280
   39.690    0.4387
   39.705    0.5029
   39.720    0.4601
   39.735    0.3745
   39.750    0.5993
   39.765    0.5886
   39.780    0.5136
   39.795    0.4173
   39.810    0.4173
   39.825    0.4280
   39.840    0.4280
   39.855    0.5778
   39.870    0.5778
   39.885    0.4601
   39.900    0.4387
   39.915    0.3638
   39.930    0.3424
   39.945    0.3852
   39.960    0.3317
   39.975    0.4173
   39.990    0.3745
