    1.500    3.5527
    1.515    3.5848
    1.530    3.5206
    1.545    3.3387
    1.560    3.3280
    1.575    3.2531
    1.590    3.0819
    1.605    3.0712
    1.620    3.0926
    1.635    2.8999
    1.650    2.9106
    1.665    2.5896
    1.680    2.7394
    1.695    2.7073
    1.710    2.4719
    1.725    2.4719
    1.740    2.3863
    1.755    2.4826
    1.770    2.5040
    1.785    2.4612
    1.800    2.1402
    1.815    2.4077
    1.830    2.2365
    1.845    2.4184
    1.860    1.9583
    1.875    2.1723
    1.890    2.2793
    1.905    2.0974
    1.920    1.9155
    1.935    2.1295
    1.950    1.8727
    1.965    1.7442
    1.980    1.8727
    1.995    1.9262
    2.010    1.6158
    2.025    1.8085
    2.040    1.7978
    2.055    1.8727
    2.070    1.6479
    2.085    1.7121
    2.100    1.6158
    2.115    1.5837
    2.130    1.7657
    2.145    1.7764
    2.160    1.5516
    2.175    1.5409
    2.190    1.5516
    2.205    1.6693
    2.220    1.4339
    2.235    1.4767
    2.250    1.5623
    2.265    1.4232
    2.280    1.4018
    2.295    1.5730
    2.310    1.4446
    2.325    1.4874
    2.340    1.5516
    2.355    1.3590
    2.370    1.4446
    2.385    1.5409
    2.400    1.4874
    2.415    1.2306
    2.430    1.1878
    2.445    1.3590
    2.460    1.2199
    2.475    1.2734
    2.490    1.2841
    2.505    1.1985
    2.520    1.3162
    2.535    1.2948
    2.550    1.2092
    2.565    1.1664
    2.580    1.2092
    2.595    1.1878
    2.610    1.1878
    2.625    1.2627
    2.640    1.1985
    2.655    1.1664
    2.670    1.0594
    2.685    1.1557
    2.700    1.1985
    2.715    1.2841
    2.730    1.2092
    2.745    1.2199
    2.760    1.1878
    2.775    1.1664
    2.790    1.1236
    2.805    1.2306
    2.820    1.1557
    2.835    1.1343
    2.850    1.2627
    2.865    1.1343
    2.880    1.1557
    2.895    1.1236
    2.910    1.1129
    2.925    1.0487
    2.940    1.0701
    2.955    1.0059
    2.970    0.9524
    2.985    1.0808
    3.000    1.1236
    3.015    1.1450
    3.030    1.0273
    3.045    1.0808
    3.060    1.0701
    3.075    1.1664
    3.090    1.1236
    3.105    1.1450
    3.120    1.1557
    3.135    1.0380
    3.150    1.0059
    3.165    0.9952
    3.180    1.1343
    3.195    1.1343
    3.210    1.1129
    3.225    0.9096
    3.240    0.9952
    3.255    0.9631
    3.270    0.9096
    3.285    1.0808
    3.300    0.8668
    3.315    0.9524
    3.330    1.0380
    3.345    1.0273
    3.360    1.0701
    3.375    0.9845
    3.390    1.0487
    3.405    1.0380
    3.420    1.0059
    3.435    1.1557
    3.450    0.8668
    3.465    0.8026
    3.480    1.0273
    3.495    0.9631
    3.510    0.8775
    3.525    1.0808
    3.540    0.9738
    3.555    1.0915
    3.570    0.9845
    3.585    1.2520
    3.600    0.9952
    3.615    1.1129
    3.630    1.0808
    3.645    0.9952
    3.660    1.1557
    3.675    0.9417
    3.690    0.9524
    3.705    0.9096
    3.720    1.0273
    3.735    1.0059
    3.750    1.0059
    3.765    1.0701
    3.780    1.0380
    3.795    0.8882
    3.810    1.0059
    3.825    1.0273
    3.840    0.9845
    3.855    1.0380
    3.870    0.9096
    3.885    0.9203
    3.900    0.9524
    3.915    1.0059
    3.930    0.9096
    3.945    0.9310
    3.960    0.9524
    3.975    1.0808
    3.990    0.8347
    4.005    1.0915
    4.020    0.9417
    4.035    0.9417
    4.050    1.0487
    4.065    0.9845
    4.080    1.0487
    4.095    0.9845
    4.110    1.1771
    4.125    1.1022
    4.140    0.8454
    4.155    0.8775
    4.170    0.9096
    4.185    0.9631
    4.200    1.0166
    4.215    1.0380
    4.230    0.8561
    4.245    1.0059
    4.260    1.0059
    4.275    1.1022
    4.290    1.0273
    4.305    0.8882
    4.320    0.8989
    4.335    0.9203
    4.350    0.9203
    4.365    0.9631
    4.380    0.9310
    4.395    0.9417
    4.410    0.9524
    4.425    0.7812
    4.440    0.8133
    4.455    1.0808
    4.470    1.0059
    4.485    1.0594
    4.500    0.9845
    4.515    0.9524
    4.530    1.1878
    4.545    1.0915
    4.560    0.9096
    4.575    0.9310
    4.590    0.8989
    4.605    1.0273
    4.620    1.0701
    4.635    0.9310
    4.650    0.8561
    4.665    0.8561
    4.680    0.8989
    4.695    1.0273
    4.710    1.0380
    4.725    1.2092
    4.740    0.9417
    4.755    0.9310
    4.770    0.9845
    4.785    1.1557
    4.800    1.0487
    4.815    1.0487
    4.830    0.9524
    4.845    1.0059
    4.860    0.9631
    4.875    1.0059
    4.890    1.1129
    4.905    0.9417
    4.920    0.9845
    4.935    0.9738
    4.950    1.0808
    4.965    0.9417
    4.980    1.0808
    4.995    0.9417
    5.010    0.9310
    5.025    0.8026
    5.040    0.9417
    5.055    0.9096
    5.070    0.8668
    5.085    0.8775
    5.100    1.0273
    5.115    0.9738
    5.130    0.8561
    5.145    0.8989
    5.160    0.8240
    5.175    0.9524
    5.190    0.9845
    5.205    0.8454
    5.220    0.8026
    5.235    0.9631
    5.250    0.9845
    5.265    1.0701
    5.280    0.9417
    5.295    1.0594
    5.310    1.0808
    5.325    1.0059
    5.340    0.8026
    5.355    0.9524
    5.370    0.8882
    5.385    0.8668
    5.400    0.8454
    5.415    0.9845
    5.430    0.8561
    5.445    0.8454
    5.460    0.9952
    5.475    1.0594
    5.490    1.0380
    5.505    0.7705
    5.520    0.8882
    5.535    0.9738
    5.550    0.9631
    5.565    0.7919
    5.580    1.0701
    5.595    0.9417
    5.610    0.8882
    5.625    0.8775
    5.640    0.8026
    5.655    0.8775
    5.670    0.8026
    5.685    1.0166
    5.700    0.8347
    5.715    0.9203
    5.730    0.9417
    5.745    0.9203
    5.760    1.0487
    5.775    1.0059
    5.790    1.0166
    5.805    0.8133
    5.820    0.7812
    5.835    0.8989
    5.850    1.0059
    5.865    1.1343
    5.880    1.1664
    5.895    1.0273
    5.910    0.9738
    5.925    0.8561
    5.940    0.8989
    5.955    0.9417
    5.970    0.9524
    5.985    0.9524
    6.000    1.0273
    6.015    0.9631
    6.030    0.9845
    6.045    0.9203
    6.060    0.9203
    6.075    0.8668
    6.090    0.9952
    6.105    0.9417
    6.120    0.9203
    6.135    0.8347
    6.150    0.9203
    6.165    1.0166
    6.180    0.8989
    6.195    0.9524
    6.210    0.9631
    6.225    1.0915
    6.240    1.0166
    6.255    0.7919
    6.270    0.7491
    6.285    1.0487
    6.300    0.9631
    6.315    0.8882
    6.330    0.8775
    6.345    0.8561
    6.360    0.9203
    6.375    1.0059
    6.390    1.0380
    6.405    0.9203
    6.420    0.8882
    6.435    0.9203
    6.450    0.8668
    6.465    0.8561
    6.480    0.9631
    6.495    0.9952
    6.510    0.8775
    6.525    0.9738
    6.540    0.9203
    6.555    0.9310
    6.570    0.9203
    6.585    0.9845
    6.600    1.0808
    6.615    1.0273
    6.630    0.9310
    6.645    0.8347
    6.660    0.9738
    6.675    0.8989
    6.690    0.7598
    6.705    0.8133
    6.720    0.9096
    6.735    0.7919
    6.750    0.7812
    6.765    0.8240
    6.780    1.0059
    6.795    0.8561
    6.810    0.9096
    6.825    0.8775
    6.840    0.8989
    6.855    0.8668
    6.870    0.9845
    6.885    0.8989
    6.900    0.7705
    6.915    0.7705
    6.930    0.9417
    6.945    0.9096
    6.960    0.8668
    6.975    0.8882
    6.990    1.0166
    7.005    0.9310
    7.020    0.8668
    7.035    0.9524
    7.050    0.8775
    7.065    0.9310
    7.080    1.0487
    7.095    0.8347
    7.110    0.8561
    7.125    1.0594
    7.140    0.8882
    7.155    0.8347
    7.170    0.9738
    7.185    0.9417
    7.200    0.9417
    7.215    1.0701
    7.230    0.8561
    7.245    1.0273
    7.260    0.8989
    7.275    1.0059
    7.290    0.7491
    7.305    1.0166
    7.320    1.1557
    7.335    1.0915
    7.350    1.0701
    7.365    0.9845
    7.380    0.8668
    7.395    0.9417
    7.410    0.9310
    7.425    0.9524
    7.440    1.0059
    7.455    0.8775
    7.470    0.7919
    7.485    0.8026
    7.500    0.7598
    7.515    0.8561
    7.530    0.9952
    7.545    0.9845
    7.560    0.8347
    7.575    1.0487
    7.590    1.0273
    7.605    0.9631
    7.620    0.8989
    7.635    0.8989
    7.650    0.9631
    7.665    0.9096
    7.680    0.9631
    7.695    1.0380
    7.710    1.0701
    7.725    0.9845
    7.740    0.8347
    7.755    0.9096
    7.770    0.8133
    7.785    1.0380
    7.800    0.8775
    7.815    0.9096
    7.830    1.0487
    7.845    0.8561
    7.860    0.9631
    7.875    0.9524
    7.890    1.2092
    7.905    1.0915
    7.920    1.1022
    7.935    0.8989
    7.950    0.9310
    7.965    0.8026
    7.980    0.9203
    7.995    0.9952
    8.010    1.0701
    8.025    0.9845
    8.040    0.8240
    8.055    0.8775
    8.070    0.9417
    8.085    1.0059
    8.100    0.8775
    8.115    0.9631
    8.130    1.1236
    8.145    1.0594
    8.160    0.9631
    8.175    1.0487
    8.190    0.9203
    8.205    0.8989
    8.220    0.9845
    8.235    0.9096
    8.250    0.8240
    8.265    1.0594
    8.280    0.8240
    8.295    0.9738
    8.310    0.9738
    8.325    1.0273
    8.340    0.7491
    8.355    0.9417
    8.370    1.0701
    8.385    0.9417
    8.400    0.9203
    8.415    1.0701
    8.430    1.0059
    8.445    1.0166
    8.460    1.0273
    8.475    0.9310
    8.490    0.9203
    8.505    1.0166
    8.520    1.0915
    8.535    1.0701
    8.550    0.9631
    8.565    0.8561
    8.580    0.8775
    8.595    1.0808
    8.610    1.0594
    8.625    1.1129
    8.640    1.1771
    8.655    1.0487
    8.670    0.8882
    8.685    0.9310
    8.700    1.0487
    8.715    1.0594
    8.730    1.1236
    8.745    0.8240
    8.760    0.9524
    8.775    0.9952
    8.790    1.0059
    8.805    1.0915
    8.820    1.0808
    8.835    1.0166
    8.850    1.1022
    8.865    1.0594
    8.880    0.9417
    8.895    1.1022
    8.910    1.1129
    8.925    1.0380
    8.940    1.0273
    8.955    0.9417
    8.970    1.0166
    8.985    1.1664
    9.000    1.1129
    9.015    1.2948
    9.030    0.9310
    9.045    0.9952
    9.060    0.9203
    9.075    1.0701
    9.090    1.0166
    9.105    1.0166
    9.120    1.0701
    9.135    1.0701
    9.150    1.1557
    9.165    0.9952
    9.180    0.9952
    9.195    1.0059
    9.210    0.9310
    9.225    1.0808
    9.240    1.1343
    9.255    1.0059
    9.270    1.1664
    9.285    1.2199
    9.300    1.0059
    9.315    0.8882
    9.330    0.9417
    9.345    1.0487
    9.360    0.8989
    9.375    0.9417
    9.390    0.9631
    9.405    0.9203
    9.420    1.1343
    9.435    0.9417
    9.450    0.9524
    9.465    1.0273
    9.480    1.0701
    9.495    1.0594
    9.510    1.0915
    9.525    1.0701
    9.540    1.0380
    9.555    1.0166
    9.570    1.0059
    9.585    1.0915
    9.600    1.1985
    9.615    1.1236
    9.630    0.9310
    9.645    1.1771
    9.660    1.2948
    9.675    1.0487
    9.690    1.0273
    9.705    1.0059
    9.720    1.1664
    9.735    1.0273
    9.750    1.1664
    9.765    1.2413
    9.780    1.2092
    9.795    1.1450
    9.810    1.1664
    9.825    1.1343
    9.840    1.1343
    9.855    0.9631
    9.870    1.0380
    9.885    1.2306
    9.900    1.2841
    9.915    1.1878
    9.930    0.9845
    9.945    1.1129
    9.960    1.1236
    9.975    1.1557
    9.990    1.1022
   10.005    1.2199
   10.020    1.2841
   10.035    1.2734
   10.050    1.2520
   10.065    1.0808
   10.080    1.1129
   10.095    1.1985
   10.110    1.0166
   10.125    1.2092
   10.140    1.2199
   10.155    1.0166
   10.170    1.1557
   10.185    1.0487
   10.200    1.0808
   10.215    1.1129
   10.230    1.1129
   10.245    1.1129
   10.260    1.1129
   10.275    1.1557
   10.290    1.0166
   10.305    0.9952
   10.320    1.2734
   10.335    1.0915
   10.350    1.1343
   10.365    1.1343
   10.380    1.1236
   10.395    1.0059
   10.410    1.0380
   10.425    1.2199
   10.440    1.0808
   10.455    1.0380
   10.470    1.0166
   10.485    1.0166
   10.500    1.2306
   10.515    1.2306
   10.530    1.1985
   10.545    1.2306
   10.560    1.1557
   10.575    1.2413
   10.590    1.2092
   10.605    1.2627
   10.620    1.2092
   10.635    1.2413
   10.650    1.1557
   10.665    1.1985
   10.680    1.1771
   10.695    1.1664
   10.710    1.3483
   10.725    1.1878
   10.740    1.1985
   10.755    1.1343
   10.770    1.2092
   10.785    1.1557
   10.800    1.2841
   10.815    1.3697
   10.830    1.1343
   10.845    1.2734
   10.860    1.1985
   10.875    1.3911
   10.890    1.1343
   10.905    1.1236
   10.920    1.3590
   10.935    1.1343
   10.950    1.1236
   10.965    1.2199
   10.980    1.0808
   10.995    1.2092
   11.010    1.2520
   11.025    1.1985
   11.040    1.1022
   11.055    1.1343
   11.070    1.0808
   11.085    1.1878
   11.100    1.1557
   11.115    1.1557
   11.130    1.1664
   11.145    1.2520
   11.160    1.4125
   11.175    1.2841
   11.190    1.3697
   11.205    1.2627
   11.220    1.2734
   11.235    1.3269
   11.250    1.2413
   11.265    1.2199
   11.280    1.1450
   11.295    1.1557
   11.310    1.1022
   11.325    1.4446
   11.340    1.3055
   11.355    1.2199
   11.370    1.1771
   11.385    1.1557
   11.400    1.1450
   11.415    1.0915
   11.430    1.0487
   11.445    1.0380
   11.460    1.1878
   11.475    1.0915
   11.490    1.0915
   11.505    1.0701
   11.520    1.1022
   11.535    1.3162
   11.550    1.0594
   11.565    1.2306
   11.580    1.2841
   11.595    1.2627
   11.610    1.1343
   11.625    1.3162
   11.640    1.2841
   11.655    1.1557
   11.670    0.9417
   11.685    1.1343
   11.700    1.2627
   11.715    1.1343
   11.730    1.2306
   11.745    1.1985
   11.760    1.1557
   11.775    1.1236
   11.790    1.2413
   11.805    1.1343
   11.820    1.0594
   11.835    1.0701
   11.850    1.1557
   11.865    1.4767
   11.880    1.3055
   11.895    1.1236
   11.910    1.0701
   11.925    1.2627
   11.940    1.3055
   11.955    1.1450
   11.970    1.2092
   11.985    1.2199
   12.000    1.0273
   12.015    1.1022
   12.030    1.1771
   12.045    1.1771
   12.060    1.1129
   12.075    1.1985
   12.090    1.2306
   12.105    1.0166
   12.120    1.0915
   12.135    0.8989
   12.150    1.1985
   12.165    1.1129
   12.180    1.1022
   12.195    0.9417
   12.210    1.1878
   12.225    1.0487
   12.240    1.1985
   12.255    1.3162
   12.270    1.2948
   12.285    1.2841
   12.300    1.1450
   12.315    1.1664
   12.330    1.2413
   12.345    1.2092
   12.360    1.1878
   12.375    1.2306
   12.390    1.1236
   12.405    1.1557
   12.420    0.9738
   12.435    1.0166
   12.450    1.1664
   12.465    1.1557
   12.480    1.1450
   12.495    1.0487
   12.510    1.0166
   12.525    1.2734
   12.540    1.2520
   12.555    1.3162
   12.570    1.1343
   12.585    1.0059
   12.600    1.0915
   12.615    1.0915
   12.630    1.0594
   12.645    1.2306
   12.660    1.1450
   12.675    1.0701
   12.690    0.9524
   12.705    0.8882
   12.720    1.1664
   12.735    1.2199
   12.750    1.0808
   12.765    1.1557
   12.780    1.3269
   12.795    1.1129
   12.810    1.0273
   12.825    1.0059
   12.840    1.1022
   12.855    0.9738
   12.870    1.1022
   12.885    1.0808
   12.900    1.2306
   12.915    1.1771
   12.930    1.1985
   12.945    1.1236
   12.960    1.0915
   12.975    1.1129
   12.990    0.9952
   13.005    1.1343
   13.020    1.1878
   13.035    1.2734
   13.050    1.1022
   13.065    1.0594
   13.080    1.1557
   13.095    1.2841
   13.110    1.0701
   13.125    1.0915
   13.140    0.8989
   13.155    1.0380
   13.170    1.0594
   13.185    0.9738
   13.200    0.9952
   13.215    1.1450
   13.230    1.1236
   13.245    0.9738
   13.260    1.0273
   13.275    1.0701
   13.290    1.1022
   13.305    0.9952
   13.320    1.0166
   13.335    1.0487
   13.350    1.0059
   13.365    1.1343
   13.380    1.1129
   13.395    1.0273
   13.410    1.1236
   13.425    1.0273
   13.440    0.9845
   13.455    1.0594
   13.470    0.9417
   13.485    1.0808
   13.500    0.8561
   13.515    0.9417
   13.530    1.0380
   13.545    0.9524
   13.560    0.9952
   13.575    0.9845
   13.590    1.0915
   13.605    0.8882
   13.620    0.9738
   13.635    1.1664
   13.650    1.0701
   13.665    0.8454
   13.680    0.8668
   13.695    0.9631
   13.710    1.0380
   13.725    0.9631
   13.740    1.0273
   13.755    1.0380
   13.770    1.0380
   13.785    0.9952
   13.800    0.9845
   13.815    0.9417
   13.830    0.8775
   13.845    1.0380
   13.860    0.9417
   13.875    0.9952
   13.890    1.3269
   13.905    1.0701
   13.920    1.1985
   13.935    0.9417
   13.950    0.9952
   13.965    1.1129
   13.980    1.0059
   13.995    0.9845
   14.010    1.0380
   14.025    1.1129
   14.040    1.0915
   14.055    0.9845
   14.070    0.9417
   14.085    0.9845
   14.100    0.8882
   14.115    1.0487
   14.130    1.0059
   14.145    0.9952
   14.160    0.8454
   14.175    0.9738
   14.190    0.9845
   14.205    1.0594
   14.220    1.0594
   14.235    1.0915
   14.250    1.1236
   14.265    0.9096
   14.280    1.0273
   14.295    0.9310
   14.310    1.1129
   14.325    0.8989
   14.340    1.1450
   14.355    0.9631
   14.370    0.9738
   14.385    0.9631
   14.400    0.9631
   14.415    0.8561
   14.430    0.9524
   14.445    0.7705
   14.460    0.8454
   14.475    0.8454
   14.490    0.8454
   14.505    0.7491
   14.520    1.0166
   14.535    0.8668
   14.550    0.9203
   14.565    1.0273
   14.580    1.1557
   14.595    1.0059
   14.610    0.9096
   14.625    1.0380
   14.640    0.9524
   14.655    0.8133
   14.670    0.8133
   14.685    0.9096
   14.700    1.0166
   14.715    0.8240
   14.730    0.9417
   14.745    0.9417
   14.760    0.8775
   14.775    0.8668
   14.790    0.9524
   14.805    0.8240
   14.820    0.8882
   14.835    0.9203
   14.850    1.1129
   14.865    0.8989
   14.880    0.9631
   14.895    0.9952
   14.910    0.8775
   14.925    0.8989
   14.940    0.8882
   14.955    0.8882
   14.970    0.7170
   14.985    0.8133
   15.000    0.8347
   15.015    0.8561
   15.030    0.8989
   15.045    0.8454
   15.060    0.8775
   15.075    0.9096
   15.090    0.7919
   15.105    0.8026
   15.120    0.9096
   15.135    0.9203
   15.150    0.8775
   15.165    0.8668
   15.180    1.0273
   15.195    0.9738
   15.210    0.9096
   15.225    0.7384
   15.240    0.8775
   15.255    0.9096
   15.270    1.0701
   15.285    1.0380
   15.300    1.0380
   15.315    0.9845
   15.330    0.8561
   15.345    0.8133
   15.360    0.8882
   15.375    1.0059
   15.390    0.8561
   15.405    0.7812
   15.420    0.7919
   15.435    0.7170
   15.450    0.8347
   15.465    0.8668
   15.480    0.8775
   15.495    0.8454
   15.510    0.8989
   15.525    0.7277
   15.540    0.7598
   15.555    1.0059
   15.570    0.8882
   15.585    0.8133
   15.600    0.7491
   15.615    0.9738
   15.630    0.8454
   15.645    0.8561
   15.660    0.8561
   15.675    0.9310
   15.690    0.8347
   15.705    0.8454
   15.720    0.9738
   15.735    0.9310
   15.750    0.9203
   15.765    0.9417
   15.780    0.9203
   15.795    0.8133
   15.810    0.8026
   15.825    0.7705
   15.840    0.8454
   15.855    0.8561
   15.870    0.9417
   15.885    0.7384
   15.900    0.8133
   15.915    0.7491
   15.930    0.8240
   15.945    0.7812
   15.960    0.7277
   15.975    0.8347
   15.990    0.9417
   16.005    0.8026
   16.020    0.8133
   16.035    0.8561
   16.050    0.8347
   16.065    0.7919
   16.080    0.7705
   16.095    0.9310
   16.110    0.7812
   16.125    0.9845
   16.140    0.8347
   16.155    0.9310
   16.170    0.9417
   16.185    0.8454
   16.200    0.8133
   16.215    0.9096
   16.230    0.7919
   16.245    0.7063
   16.260    0.8240
   16.275    1.0273
   16.290    1.0487
   16.305    0.8133
   16.320    0.8454
   16.335    0.7919
   16.350    0.8026
   16.365    0.9310
   16.380    0.8026
   16.395    0.8347
   16.410    0.8454
   16.425    0.9417
   16.440    0.8026
   16.455    0.8668
   16.470    0.8882
   16.485    0.8668
   16.500    0.8989
   16.515    0.7919
   16.530    0.8454
   16.545    0.8454
   16.560    0.8561
   16.575    0.7170
   16.590    0.7705
   16.605    0.8668
   16.620    0.7277
   16.635    0.9096
   16.650    0.8454
   16.665    0.8454
   16.680    1.0487
   16.695    0.8454
   16.710    0.7063
   16.725    0.6421
   16.740    0.8133
   16.755    0.8026
   16.770    0.8668
   16.785    0.6849
   16.800    0.8989
   16.815    0.8026
   16.830    0.8026
   16.845    0.8668
   16.860    0.7919
   16.875    0.9203
   16.890    0.8454
   16.905    0.6421
   16.920    0.9096
   16.935    0.8026
   16.950    0.9096
   16.965    0.8347
   16.980    0.8882
   16.995    0.8561
   17.010    0.8026
   17.025    0.7812
   17.040    0.7598
   17.055    0.7812
   17.070    0.8347
   17.085    0.9203
   17.100    0.8454
   17.115    0.8454
   17.130    0.7705
   17.145    0.8775
   17.160    1.0059
   17.175    1.0380
   17.190    0.9310
   17.205    0.6100
   17.220    0.7812
   17.235    0.8882
   17.250    0.7491
   17.265    0.8133
   17.280    0.8561
   17.295    0.8347
   17.310    0.8240
   17.325    0.8989
   17.340    0.7705
   17.355    0.8347
   17.370    0.7705
   17.385    0.8882
   17.400    0.9310
   17.415    0.8561
   17.430    0.8133
   17.445    0.8454
   17.460    0.9631
   17.475    0.8561
   17.490    0.7812
   17.505    0.8026
   17.520    0.6528
   17.535    0.6742
   17.550    0.8561
   17.565    0.8989
   17.580    0.7705
   17.595    0.7277
   17.610    0.8133
   17.625    0.7384
   17.640    0.9310
   17.655    0.7919
   17.670    0.6956
   17.685    0.7384
   17.700    0.7705
   17.715    0.6849
   17.730    0.6956
   17.745    0.7705
   17.760    0.8989
   17.775    0.8026
   17.790    0.8882
   17.805    0.8668
   17.820    0.7491
   17.835    0.8989
   17.850    0.8240
   17.865    0.8454
   17.880    0.8882
   17.895    0.7384
   17.910    0.8775
   17.925    0.8240
   17.940    1.0059
   17.955    0.8989
   17.970    0.8775
   17.985    0.8561
   18.000    0.8989
   18.015    0.8882
   18.030    0.6742
   18.045    0.8133
   18.060    0.8240
   18.075    0.7919
   18.090    0.8454
   18.105    0.8668
   18.120    0.8026
   18.135    0.8882
   18.150    0.7812
   18.165    0.8882
   18.180    0.7919
   18.195    0.8989
   18.210    0.8026
   18.225    0.8347
   18.240    0.8989
   18.255    0.8347
   18.270    0.8775
   18.285    0.9096
   18.300    0.8347
   18.315    0.9203
   18.330    0.8240
   18.345    0.7812
   18.360    0.7812
   18.375    0.7919
   18.390    0.8989
   18.405    0.9310
   18.420    0.8989
   18.435    0.7919
   18.450    0.7598
   18.465    0.8989
   18.480    0.8133
   18.495    0.7812
   18.510    0.8026
   18.525    0.8882
   18.540    0.8668
   18.555    0.8240
   18.570    0.7384
   18.585    0.8561
   18.600    0.7919
   18.615    0.9096
   18.630    0.9845
   18.645    0.8133
   18.660    0.8347
   18.675    0.8668
   18.690    0.7705
   18.705    0.7598
   18.720    0.6956
   18.735    0.6956
   18.750    0.7491
   18.765    0.8347
   18.780    0.7598
   18.795    0.8454
   18.810    0.8240
   18.825    0.8133
   18.840    0.8668
   18.855    0.7919
   18.870    0.7491
   18.885    0.7705
   18.900    0.9096
   18.915    0.8133
   18.930    0.7063
   18.945    0.8133
   18.960    0.8240
   18.975    0.9845
   18.990    0.8561
   19.005    0.8454
   19.020    0.9524
   19.035    0.8989
   19.050    1.0166
   19.065    0.8882
   19.080    0.7812
   19.095    0.8133
   19.110    0.7705
   19.125    0.9524
   19.140    0.8989
   19.155    0.8347
   19.170    0.8775
   19.185    0.7705
   19.200    0.7170
   19.215    0.7277
   19.230    0.9738
   19.245    0.7919
   19.260    0.8561
   19.275    0.8989
   19.290    0.8668
   19.305    0.7705
   19.320    0.7705
   19.335    0.9845
   19.350    1.0915
   19.365    0.9096
   19.380    0.8454
   19.395    0.7491
   19.410    0.8882
   19.425    0.9096
   19.440    0.7170
   19.455    0.8989
   19.470    0.8775
   19.485    0.8882
   19.500    0.8561
   19.515    0.9203
   19.530    0.7919
   19.545    0.8454
   19.560    0.7277
   19.575    0.8989
   19.590    0.8026
   19.605    0.9524
   19.620    0.7384
   19.635    0.7491
   19.650    0.8989
   19.665    0.7384
   19.680    0.7598
   19.695    0.6528
   19.710    0.8026
   19.725    0.8989
   19.740    0.8026
   19.755    0.6742
   19.770    0.7384
   19.785    0.7598
   19.800    0.9738
   19.815    0.7170
   19.830    0.8775
   19.845    0.7277
   19.860    0.7812
   19.875    0.9738
   19.890    0.8347
   19.905    0.9310
   19.920    0.8668
   19.935    0.7491
   19.950    0.9524
   19.965    0.8775
   19.980    0.7384
   19.995    0.7063
   20.010    0.6528
   20.025    0.7919
   20.040    0.8989
   20.055    0.9096
   20.070    0.8240
   20.085    0.7705
   20.100    0.8882
   20.115    0.8347
   20.130    0.8882
   20.145    0.9310
   20.160    0.8561
   20.175    0.8989
   20.190    0.7812
   20.205    0.6421
   20.220    0.7705
   20.235    0.8026
   20.250    0.8454
   20.265    0.7384
   20.280    0.7277
   20.295    0.7598
   20.310    0.8668
   20.325    0.6849
   20.340    0.8026
   20.355    0.8133
   20.370    0.7812
   20.385    0.6956
   20.400    0.8240
   20.415    0.7919
   20.430    0.8347
   20.445    0.8454
   20.460    0.8454
   20.475    0.8668
   20.490    0.9203
   20.505    0.8882
   20.520    0.8668
   20.535    0.9952
   20.550    0.9631
   20.565    0.7812
   20.580    0.8240
   20.595    0.7491
   20.610    0.8133
   20.625    0.8561
   20.640    0.8240
   20.655    0.9417
   20.670    0.8989
   20.685    0.8133
   20.700    0.8454
   20.715    0.8240
   20.730    0.8989
   20.745    0.8347
   20.760    0.7812
   20.775    0.7812
   20.790    0.7598
   20.805    0.7170
   20.820    0.8454
   20.835    0.7491
   20.850    0.7812
   20.865    0.8989
   20.880    0.8454
   20.895    0.8775
   20.910    0.8775
   20.925    0.9738
   20.940    0.8454
   20.955    0.7277
   20.970    0.8454
   20.985    1.0166
   21.000    0.8882
   21.015    0.8133
   21.030    0.7812
   21.045    0.7384
   21.060    0.7919
   21.075    0.9524
   21.090    0.8882
   21.105    0.7812
   21.120    0.8882
   21.135    0.9096
   21.150    0.8989
   21.165    0.8454
   21.180    0.6849
   21.195    0.9845
   21.210    0.8989
   21.225    0.9203
   21.240    0.8561
   21.255    0.8454
   21.270    0.8133
   21.285    0.7705
   21.300    0.6956
   21.315    0.8668
   21.330    0.8668
   21.345    0.9417
   21.360    0.8775
   21.375    0.8347
   21.390    0.7812
   21.405    0.8026
   21.420    0.8454
   21.435    0.7812
   21.450    0.7491
   21.465    0.7812
   21.480    0.9096
   21.495    0.8240
   21.510    0.8561
   21.525    0.9203
   21.540    0.8240
   21.555    0.7705
   21.570    0.7598
   21.585    0.8882
   21.600    0.9845
   21.615    0.8882
   21.630    0.8668
   21.645    0.9096
   21.660    0.7705
   21.675    0.8454
   21.690    0.8561
   21.705    0.9096
   21.720    0.9631
   21.735    0.8989
   21.750    0.9631
   21.765    0.8668
   21.780    0.7170
   21.795    0.7384
   21.810    0.7384
   21.825    0.9417
   21.840    0.7491
   21.855    0.6635
   21.870    0.8240
   21.885    0.8347
   21.900    1.0487
   21.915    0.9310
   21.930    0.9952
   21.945    0.7598
   21.960    0.7812
   21.975    0.9631
   21.990    1.0059
   22.005    1.1129
   22.020    1.1985
   22.035    1.1450
   22.050    1.1450
   22.065    1.4339
   22.080    1.3483
   22.095    1.5409
   22.110    1.3590
   22.125    1.4553
   22.140    1.2627
   22.155    1.1129
   22.170    1.1450
   22.185    1.1022
   22.200    0.8882
   22.215    0.8026
   22.230    1.0059
   22.245    0.8775
   22.260    0.8133
   22.275    0.8989
   22.290    0.9203
   22.305    0.8347
   22.320    0.7705
   22.335    0.7812
   22.350    0.8240
   22.365    0.9417
   22.380    0.8347
   22.395    1.0808
   22.410    0.8026
   22.425    0.7919
   22.440    0.7277
   22.455    0.8454
   22.470    1.0166
   22.485    1.0059
   22.500    0.7705
   22.515    0.8133
   22.530    0.9417
   22.545    0.8561
   22.560    0.8775
   22.575    0.9631
   22.590    0.9096
   22.605    0.7919
   22.620    0.8882
   22.635    0.8026
   22.650    0.8133
   22.665    0.7919
   22.680    0.8882
   22.695    0.8989
   22.710    0.9096
   22.725    0.8882
   22.740    0.9417
   22.755    0.8775
   22.770    1.0059
   22.785    0.9631
   22.800    0.8454
   22.815    0.9310
   22.830    0.8133
   22.845    0.8347
   22.860    0.7491
   22.875    0.8454
   22.890    0.8668
   22.905    0.9096
   22.920    1.0059
   22.935    0.9417
   22.950    0.9738
   22.965    0.9203
   22.980    0.8882
   22.995    0.8882
   23.010    0.9203
   23.025    0.7812
   23.040    0.7705
   23.055    0.7919
   23.070    0.8454
   23.085    0.9738
   23.100    0.8882
   23.115    0.9631
   23.130    1.0059
   23.145    0.8454
   23.160    0.8561
   23.175    0.8668
   23.190    0.8347
   23.205    0.8347
   23.220    0.7705
   23.235    0.8026
   23.250    0.9845
   23.265    0.8668
   23.280    1.0059
   23.295    0.8668
   23.310    0.8775
   23.325    0.8668
   23.340    0.6956
   23.355    0.8347
   23.370    0.8561
   23.385    0.9845
   23.400    0.9631
   23.415    0.7919
   23.430    0.9203
   23.445    0.8775
   23.460    0.8775
   23.475    0.8989
   23.490    0.7919
   23.505    0.8026
   23.520    0.9096
   23.535    0.8454
   23.550    0.9952
   23.565    0.8882
   23.580    0.7705
   23.595    0.8133
   23.610    0.8989
   23.625    0.8668
   23.640    0.9417
   23.655    0.7598
   23.670    0.8668
   23.685    0.8347
   23.700    0.9203
   23.715    0.9738
   23.730    0.8668
   23.745    0.7598
   23.760    0.7812
   23.775    0.8989
   23.790    1.0808
   23.805    0.9417
   23.820    1.0166
   23.835    0.8454
   23.850    0.9203
   23.865    0.8561
   23.880    0.8454
   23.895    1.0487
   23.910    0.9203
   23.925    0.8668
   23.940    0.9631
   23.955    0.8989
   23.970    0.8775
   23.985    0.9096
   24.000    0.9417
   24.015    0.8133
   24.030    0.7170
   24.045    0.8240
   24.060    0.9631
   24.075    0.9738
   24.090    0.9310
   24.105    0.8026
   24.120    0.8668
   24.135    0.7384
   24.150    0.7170
   24.165    0.8133
   24.180    0.9417
   24.195    1.0380
   24.210    0.8454
   24.225    0.8882
   24.240    0.9524
   24.255    0.9631
   24.270    0.8347
   24.285    0.8133
   24.300    0.9845
   24.315    0.9417
   24.330    0.7919
   24.345    0.9738
   24.360    0.9952
   24.375    0.8561
   24.390    0.9417
   24.405    0.7812
   24.420    0.9631
   24.435    0.9203
   24.450    1.0166
   24.465    0.9524
   24.480    0.7812
   24.495    0.7705
   24.510    0.8882
   24.525    0.9310
   24.540    0.8989
   24.555    0.9203
   24.570    1.0059
   24.585    0.8561
   24.600    0.8133
   24.615    0.7705
   24.630    0.8989
   24.645    0.8240
   24.660    0.9203
   24.675    0.8026
   24.690    0.9310
   24.705    0.9524
   24.720    0.9738
   24.735    0.8882
   24.750    0.9845
   24.765    0.8133
   24.780    0.8561
   24.795    0.9845
   24.810    1.0915
   24.825    0.7384
   24.840    0.7919
   24.855    0.7491
   24.870    0.7170
   24.885    0.8882
   24.900    0.8989
   24.915    0.8989
   24.930    0.9524
   24.945    0.7812
   24.960    0.9310
   24.975    0.9310
   24.990    0.9417
   25.005    0.9952
   25.020    0.9096
   25.035    0.8668
   25.050    0.8775
   25.065    0.8561
   25.080    0.8454
   25.095    0.8882
   25.110    0.9631
   25.125    0.8347
   25.140    0.9524
   25.155    0.8240
   25.170    0.7491
   25.185    0.8454
   25.200    0.8882
   25.215    0.9310
   25.230    0.9631
   25.245    0.9631
   25.260    0.8882
   25.275    0.7919
   25.290    0.7705
   25.305    0.8026
   25.320    0.7705
   25.335    0.7812
   25.350    0.7491
   25.365    1.0059
   25.380    1.0487
   25.395    1.0166
   25.410    0.8454
   25.425    0.9738
   25.440    1.0380
   25.455    0.9203
   25.470    1.0273
   25.485    0.8775
   25.500    0.8668
   25.515    0.9524
   25.530    0.9738
   25.545    0.8133
   25.560    0.8989
   25.575    0.9631
   25.590    0.8133
   25.605    1.2092
   25.620    0.9845
   25.635    0.9417
   25.650    1.0808
   25.665    0.8989
   25.680    0.9738
   25.695    0.9631
   25.710    0.8668
   25.725    0.9738
   25.740    0.9203
   25.755    0.8026
   25.770    0.8989
   25.785    0.9096
   25.800    0.8989
   25.815    0.8668
   25.830    0.8133
   25.845    0.8561
   25.860    0.8561
   25.875    0.8347
   25.890    1.0273
   25.905    0.9310
   25.920    0.7919
   25.935    0.8775
   25.950    0.8561
   25.965    0.9952
   25.980    0.9417
   25.995    0.9952
   26.010    0.7812
   26.025    0.8668
   26.040    0.9203
   26.055    0.8668
   26.070    0.7705
   26.085    0.8561
   26.100    1.0594
   26.115    1.0059
   26.130    1.1236
   26.145    0.8882
   26.160    1.0808
   26.175    0.9524
   26.190    0.9845
   26.205    0.9952
   26.220    1.1129
   26.235    0.8454
   26.250    1.0059
   26.265    1.0701
   26.280    1.0273
   26.295    1.0808
   26.310    0.9631
   26.325    0.9952
   26.340    0.9417
   26.355    0.8668
   26.370    1.0701
   26.385    0.9310
   26.400    0.8882
   26.415    0.9631
   26.430    0.9524
   26.445    1.0487
   26.460    0.9524
   26.475    1.0059
   26.490    0.9738
   26.505    0.9096
   26.520    0.8775
   26.535    0.7598
   26.550    0.7598
   26.565    0.9952
   26.580    1.1450
   26.595    0.8882
   26.610    0.9203
   26.625    0.9310
   26.640    0.8133
   26.655    0.7170
   26.670    0.9738
   26.685    1.0701
   26.700    0.8454
   26.715    0.9738
   26.730    0.9310
   26.745    0.8026
   26.760    0.9524
   26.775    0.9845
   26.790    0.8133
   26.805    0.9631
   26.820    0.9845
   26.835    1.0380
   26.850    1.0273
   26.865    0.9845
   26.880    0.9524
   26.895    1.1236
   26.910    0.9631
   26.925    0.9417
   26.940    1.0059
   26.955    1.0380
   26.970    0.9845
   26.985    0.8989
   27.000    0.9203
   27.015    1.0059
   27.030    0.9524
   27.045    1.0166
   27.060    0.9738
   27.075    0.8240
   27.090    0.7919
   27.105    1.0059
   27.120    0.9631
   27.135    0.9524
   27.150    0.9096
   27.165    0.8668
   27.180    1.0273
   27.195    0.6849
   27.210    0.7598
   27.225    0.6528
   27.240    0.8775
   27.255    0.9096
   27.270    0.9203
   27.285    0.8775
   27.300    0.9310
   27.315    0.7812
   27.330    0.8989
   27.345    1.0273
   27.360    0.9203
   27.375    0.7919
   27.390    0.9310
   27.405    1.0273
   27.420    0.9096
   27.435    1.0166
   27.450    0.9417
   27.465    0.8026
   27.480    0.8454
   27.495    0.9203
   27.510    0.9524
   27.525    0.8882
   27.540    1.0487
   27.555    0.9952
   27.570    0.7919
   27.585    0.7919
   27.600    0.8775
   27.615    0.8775
   27.630    0.8454
   27.645    0.9417
   27.660    0.8989
   27.675    0.8668
   27.690    0.9417
   27.705    0.7812
   27.720    0.8026
   27.735    0.8668
   27.750    0.9417
   27.765    0.8668
   27.780    0.7598
   27.795    0.8133
   27.810    0.9203
   27.825    0.8668
   27.840    0.9524
   27.855    0.7919
   27.870    0.7491
   27.885    0.7812
   27.900    0.9417
   27.915    0.9203
   27.930    1.0487
   27.945    0.8454
   27.960    0.9096
   27.975    0.9524
   27.990    0.6742
   28.005    0.9203
   28.020    0.8775
   28.035    0.7919
   28.050    0.6421
   28.065    0.7384
   28.080    0.8240
   28.095    1.0166
   28.110    0.7919
   28.125    0.8775
   28.140    0.9417
   28.155    0.9096
   28.170    0.8775
   28.185    0.7384
   28.200    0.8026
   28.215    0.8133
   28.230    0.8775
   28.245    0.7705
   28.260    0.7919
   28.275    0.9417
   28.290    0.9524
   28.305    0.8347
   28.320    0.8882
   28.335    0.8882
   28.350    0.8026
   28.365    0.8561
   28.380    0.9096
   28.395    0.7812
   28.410    0.8561
   28.425    0.9952
   28.440    0.8775
   28.455    0.9310
   28.470    0.7170
   28.485    0.8347
   28.500    0.8882
   28.515    0.7705
   28.530    0.8240
   28.545    0.8561
   28.560    0.7705
   28.575    0.8775
   28.590    0.7919
   28.605    0.8454
   28.620    0.8347
   28.635    0.7277
   28.650    0.9203
   28.665    0.9203
   28.680    0.8240
   28.695    0.9631
   28.710    0.8133
   28.725    0.9096
   28.740    0.8989
   28.755    0.7812
   28.770    0.6849
   28.785    0.8454
   28.800    0.8882
   28.815    0.8347
   28.830    0.7170
   28.845    0.8240
   28.860    0.6207
   28.875    0.8561
   28.890    0.8775
   28.905    0.8240
   28.920    0.7705
   28.935    0.8026
   28.950    0.8454
   28.965    0.8454
   28.980    0.7919
   28.995    0.8133
   29.010    0.8240
   29.025    0.9096
   29.040    0.6742
   29.055    0.7491
   29.070    0.8668
   29.085    0.7598
   29.100    1.0166
   29.115    1.0701
   29.130    0.7705
   29.145    0.7812
   29.160    0.8240
   29.175    0.8561
   29.190    0.8989
   29.205    0.9203
   29.220    0.8133
   29.235    0.8240
   29.250    0.7705
   29.265    0.7277
   29.280    0.9310
   29.295    0.8775
   29.310    0.7598
   29.325    0.8026
   29.340    0.7812
   29.355    0.8668
   29.370    0.8240
   29.385    0.7812
   29.400    0.7812
   29.415    0.8240
   29.430    0.7598
   29.445    0.7491
   29.460    0.8347
   29.475    0.8347
   29.490    0.7170
   29.505    0.7384
   29.520    0.7812
   29.535    0.8882
   29.550    0.8240
   29.565    0.8454
   29.580    0.8026
   29.595    0.7812
   29.610    0.7812
   29.625    0.7919
   29.640    0.7705
   29.655    0.8240
   29.670    0.8454
   29.685    0.9203
   29.700    0.9631
   29.715    0.9524
   29.730    0.8668
   29.745    0.7812
   29.760    0.8561
   29.775    0.8133
   29.790    0.8347
   29.805    0.6742
   29.820    0.8882
   29.835    0.7170
   29.850    0.7705
   29.865    0.6956
   29.880    0.8454
   29.895    0.7598
   29.910    0.8240
   29.925    0.7170
   29.940    0.7705
   29.955    0.8240
   29.970    0.7598
   29.985    0.6956
   30.000    0.7705
   30.015    0.7812
   30.030    0.7598
   30.045    0.7277
   30.060    0.8026
   30.075    0.8561
   30.090    0.7063
   30.105    0.8561
   30.120    0.7598
   30.135    0.6635
   30.150    0.7812
   30.165    0.7491
   30.180    0.6742
   30.195    0.8882
   30.210    0.8775
   30.225    0.6956
   30.240    0.8454
   30.255    0.5993
   30.270    0.7919
   30.285    0.8026
   30.300    0.7919
   30.315    0.8454
   30.330    0.9310
   30.345    0.8347
   30.360    0.9631
   30.375    0.7491
   30.390    0.8240
   30.405    0.8133
   30.420    0.7705
   30.435    0.8668
   30.450    0.8347
   30.465    0.7170
   30.480    0.7384
   30.495    0.8026
   30.510    0.6314
   30.525    0.7598
   30.540    0.8240
   30.555    0.8026
   30.570    0.6207
   30.585    0.6956
   30.600    0.7812
   30.615    0.8026
   30.630    0.7812
   30.645    0.7812
   30.660    0.8347
   30.675    0.8347
   30.690    0.8240
   30.705    0.8561
   30.720    0.9203
   30.735    0.7598
   30.750    0.7491
   30.765    0.6849
   30.780    0.7919
   30.795    0.7277
   30.810    0.7598
   30.825    0.7170
   30.840    0.8989
   30.855    0.8240
   30.870    0.7277
   30.885    0.7384
   30.900    0.8026
   30.915    0.8240
   30.930    0.7384
   30.945    0.7384
   30.960    0.7705
   30.975    0.7384
   30.990    0.6849
   31.005    0.7063
   31.020    0.7384
   31.035    0.8240
   31.050    0.6528
   31.065    0.7384
   31.080    0.7812
   31.095    0.6742
   31.110    0.6849
   31.125    0.6956
   31.140    0.6528
   31.155    0.7170
   31.170    0.8561
   31.185    0.6528
   31.200    0.7705
   31.215    0.7812
   31.230    0.7491
   31.245    0.6742
   31.260    0.8454
   31.275    0.7170
   31.290    0.6314
   31.305    0.7170
   31.320    0.7919
   31.335    0.7598
   31.350    0.6956
   31.365    0.6314
   31.380    0.6635
   31.395    0.7491
   31.410    0.7812
   31.425    0.7705
   31.440    0.7170
   31.455    0.7063
   31.470    0.8240
   31.485    0.7705
   31.500    0.7598
   31.515    0.6635
   31.530    0.7384
   31.545    0.7705
   31.560    0.7705
   31.575    0.6956
   31.590    0.7170
   31.605    0.6314
   31.620    0.8133
   31.635    0.7919
   31.650    0.7063
   31.665    0.6956
   31.680    0.7384
   31.695    0.7277
   31.710    0.7384
   31.725    0.7384
   31.740    0.6100
   31.755    0.6314
   31.770    0.7063
   31.785    0.6314
   31.800    0.8561
   31.815    0.9738
   31.830    0.8026
   31.845    0.7491
   31.860    0.6849
   31.875    0.7277
   31.890    0.7598
   31.905    0.5243
   31.920    0.6956
   31.935    0.9096
   31.950    0.8347
   31.965    0.7384
   31.980    0.6421
   31.995    0.5993
   32.010    0.6956
   32.025    0.6421
   32.040    0.6742
   32.055    0.6421
   32.070    0.6528
   32.085    0.6314
   32.100    0.6314
   32.115    0.7919
   32.130    0.7598
   32.145    0.5564
   32.160    0.6100
   32.175    0.5886
   32.190    0.6207
   32.205    0.6635
   32.220    0.7063
   32.235    0.6421
   32.250    0.7063
   32.265    0.8133
   32.280    0.6528
   32.295    0.6314
   32.310    0.7170
   32.325    0.7705
   32.340    0.8240
   32.355    0.6100
   32.370    0.6528
   32.385    0.7277
   32.400    0.7063
   32.415    0.6956
   32.430    0.6742
   32.445    0.7277
   32.460    0.7063
   32.475    0.6635
   32.490    0.7063
   32.505    0.7705
   32.520    0.7705
   32.535    0.7384
   32.550    0.8240
   32.565    0.9203
   32.580    0.9417
   32.595    0.9845
   32.610    1.0166
   32.625    1.0380
   32.640    1.1343
   32.655    1.0915
   32.670    1.0059
   32.685    1.0808
   32.700    1.0487
   32.715    0.8240
   32.730    0.8561
   32.745    0.7063
   32.760    0.7277
   32.775    0.7277
   32.790    0.6207
   32.805    0.8561
   32.820    0.6742
   32.835    0.6635
   32.850    0.6528
   32.865    0.5886
   32.880    0.6635
   32.895    0.6100
   32.910    0.6956
   32.925    0.6956
   32.940    0.7277
   32.955    0.6635
   32.970    0.8347
   32.985    0.6849
   33.000    0.7598
   33.015    0.6207
   33.030    0.5564
   33.045    0.6849
   33.060    0.6849
   33.075    0.6956
   33.090    0.8026
   33.105    0.6742
   33.120    0.6742
   33.135    0.6207
   33.150    0.7170
   33.165    0.5778
   33.180    0.6100
   33.195    0.7277
   33.210    0.6100
   33.225    0.5993
   33.240    0.8133
   33.255    0.6849
   33.270    0.5564
   33.285    0.6421
   33.300    0.5993
   33.315    0.6207
   33.330    0.7063
   33.345    0.7277
   33.360    0.5778
   33.375    0.6100
   33.390    0.8347
   33.405    0.7170
   33.420    0.5671
   33.435    0.5457
   33.450    0.5993
   33.465    0.5564
   33.480    0.6956
   33.495    0.6635
   33.510    0.6956
   33.525    0.7063
   33.540    0.6528
   33.555    0.6314
   33.570    0.5993
   33.585    0.6849
   33.600    0.5993
   33.615    0.6314
   33.630    0.5457
   33.645    0.6956
   33.660    0.7063
   33.675    0.8026
   33.690    0.7812
   33.705    0.9845
   33.720    1.0059
   33.735    0.8347
   33.750    1.0915
   33.765    1.0487
   33.780    1.0059
   33.795    0.9096
   33.810    0.8133
   33.825    0.9203
   33.840    0.8775
   33.855    0.8347
   33.870    0.6956
   33.885    0.7277
   33.900    0.6635
   33.915    0.6314
   33.930    0.6207
   33.945    0.5457
   33.960    0.6956
   33.975    0.7063
   33.990    0.7170
   34.005    0.5886
   34.020    0.6742
   34.035    0.6421
   34.050    0.6421
   34.065    0.7170
   34.080    0.5886
   34.095    0.6421
   34.110    0.6635
   34.125    0.6314
   34.140    0.6207
   34.155    0.6849
   34.170    0.5243
   34.185    0.6742
   34.200    0.6528
   34.215    0.6635
   34.230    0.6635
   34.245    0.5136
   34.260    0.6635
   34.275    0.7170
   34.290    0.5993
   34.305    0.5671
   34.320    0.7277
   34.335    0.6742
   34.350    0.6956
   34.365    0.6421
   34.380    0.7384
   34.395    0.6635
   34.410    0.5564
   34.425    0.6100
   34.440    0.5564
   34.455    0.5671
   34.470    0.5993
   34.485    0.5993
   34.500    0.5350
   34.515    0.6635
   34.530    0.5350
   34.545    0.6635
   34.560    0.5993
   34.575    0.5886
   34.590    0.5243
   34.605    0.7170
   34.620    0.6314
   34.635    0.5136
   34.650    0.4815
   34.665    0.5993
   34.680    0.6421
   34.695    0.5243
   34.710    0.7919
   34.725    0.5778
   34.740    0.6100
   34.755    0.5243
   34.770    0.6207
   34.785    0.6635
   34.800    0.4708
   34.815    0.5886
   34.830    0.5778
   34.845    0.5778
   34.860    0.5350
   34.875    0.6956
   34.890    0.6635
   34.905    0.5671
   34.920    0.6635
   34.935    0.7384
   34.950    0.6635
   34.965    0.4601
   34.980    0.5029
   34.995    0.7170
   35.010    0.6207
   35.025    0.7063
   35.040    0.5457
   35.055    0.5671
   35.070    0.6314
   35.085    0.4387
   35.100    0.4708
   35.115    0.5886
   35.130    0.4494
   35.145    0.6528
   35.160    0.6207
   35.175    0.5993
   35.190    0.5350
   35.205    0.6207
   35.220    0.5564
   35.235    0.5029
   35.250    0.5457
   35.265    0.6742
   35.280    0.7170
   35.295    0.5671
   35.310    0.6207
   35.325    0.4280
   35.340    0.5564
   35.355    0.5243
   35.370    0.4815
   35.385    0.5993
   35.400    0.5564
   35.415    0.4922
   35.430    0.4280
   35.445    0.5243
   35.460    0.5243
   35.475    0.5243
   35.490    0.6528
   35.505    0.5671
   35.520    0.5136
   35.535    0.5350
   35.550    0.5243
   35.565    0.5671
   35.580    0.4494
   35.595    0.5993
   35.610    0.5993
   35.625    0.5564
   35.640    0.5886
   35.655    0.6100
   35.670    0.6528
   35.685    0.5457
   35.700    0.4815
   35.715    0.6742
   35.730    0.5993
   35.745    0.5457
   35.760    0.5243
   35.775    0.5778
   35.790    0.5457
   35.805    0.5778
   35.820    0.5564
   35.835    0.4922
   35.850    0.6100
   35.865    0.6100
   35.880    0.4066
   35.895    0.5029
   35.910    0.4922
   35.925    0.4922
   35.940    0.4922
   35.955    0.5671
   35.970    0.6100
   35.985    0.6742
   36.000    0.5993
   36.015    0.4387
   36.030    0.4922
   36.045    0.6207
   36.060    0.5136
   36.075    0.5564
   36.090    0.5778
   36.105    0.4815
   36.120    0.5564
   36.135    0.4708
   36.150    0.5029
   36.165    0.4922
   36.180    0.4601
   36.195    0.4387
   36.210    0.4494
   36.225    0.4387
   36.240    0.4922
   36.255    0.4922
   36.270    0.5993
   36.285    0.5671
   36.300    0.5350
   36.315    0.4387
   36.330    0.4815
   36.345    0.6100
   36.360    0.5778
   36.375    0.5886
   36.390    0.5886
   36.405    0.5029
   36.420    0.5993
   36.435    0.5243
   36.450    0.4173
   36.465    0.5243
   36.480    0.5350
   36.495    0.5671
   36.510    0.4708
   36.525    0.6421
   36.540    0.5029
   36.555    0.4601
   36.570    0.5564
   36.585    0.4815
   36.600    0.4494
   36.615    0.5350
   36.630    0.6100
   36.645    0.5350
   36.660    0.5136
   36.675    0.5993
   36.690    0.5457
   36.705    0.5778
   36.720    0.5671
   36.735    0.5029
   36.750    0.4601
   36.765    0.4922
   36.780    0.5136
   36.795    0.4601
   36.810    0.5350
   36.825    0.5457
   36.840    0.5993
   36.855    0.5671
   36.870    0.5243
   36.885    0.4601
   36.900    0.5671
   36.915    0.6100
   36.930    0.5136
   36.945    0.5993
   36.960    0.4494
   36.975    0.5243
   36.990    0.6207
   37.005    0.6207
   37.020    0.7919
   37.035    0.5993
   37.050    0.6528
   37.065    0.5886
   37.080    0.6528
   37.095    0.7384
   37.110    0.6849
   37.125    0.7705
   37.140    0.5993
   37.155    0.7277
   37.170    0.6849
   37.185    0.4922
   37.200    0.5136
   37.215    0.7277
   37.230    0.5136
   37.245    0.4815
   37.260    0.5136
   37.275    0.5243
   37.290    0.5350
   37.305    0.6956
   37.320    0.7277
   37.335    0.7491
   37.350    0.7598
   37.365    0.9524
   37.380    1.2520
   37.395    1.3162
   37.410    1.3055
   37.425    1.2092
   37.440    1.2306
   37.455    1.1129
   37.470    1.2841
   37.485    1.1985
   37.500    1.3162
   37.515    1.2199
   37.530    1.1236
   37.545    1.1664
   37.560    1.0701
   37.575    0.6742
   37.590    0.5136
   37.605    0.5457
   37.620    0.5886
   37.635    0.6528
   37.650    0.5243
   37.665    0.5350
   37.680    0.5778
   37.695    0.5136
   37.710    0.5886
   37.725    0.5457
   37.740    0.5564
   37.755    0.5886
   37.770    0.5243
   37.785    0.4708
   37.800    0.4280
   37.815    0.5029
   37.830    0.4494
   37.845    0.4815
   37.860    0.5350
   37.875    0.4815
   37.890    0.5350
   37.905    0.5243
   37.920    0.4815
   37.935    0.4815
   37.950    0.5029
   37.965    0.4601
   37.980    0.5029
   37.995    0.5350
   38.010    0.4922
   38.025    0.3959
   38.040    0.5457
   38.055    0.5136
   38.070    0.4815
   38.085    0.4280
   38.100    0.5350
   38.115    0.4815
   38.130    0.4601
   38.145    0.5457
   38.160    0.3745
   38.175    0.4494
   38.190    0.4601
   38.205    0.5350
   38.220    0.5029
   38.235    0.5564
   38.250    0.5350
   38.265    0.6100
   38.280    0.4708
   38.295    0.4494
   38.310    0.3852
   38.325    0.4708
   38.340    0.4066
   38.355    0.3852
   38.370    0.4173
   38.385    0.3959
   38.400    0.5029
   38.415    0.4815
   38.430    0.4601
   38.445    0.4280
   38.460    0.4815
   38.475    0.5029
   38.490    0.4280
   38.505    0.4815
   38.520    0.4173
   38.535    0.4815
   38.550    0.4494
   38.565    0.3852
   38.580    0.5136
   38.595    0.3959
   38.610    0.4280
   38.625    0.4494
   38.640    0.6421
   38.655    0.4708
   38.670    0.4387
   38.685    0.4173
   38.700    0.5457
   38.715    0.4280
   38.730    0.4066
   38.745    0.4173
   38.760    0.3424
   38.775    0.5243
   38.790    0.5457
   38.805    0.5243
   38.820    0.4922
   38.835    0.3852
   38.850    0.4066
   38.865    0.3852
   38.880    0.5029
   38.895    0.4494
   38.910    0.4494
   38.925    0.4173
   38.940    0.3852
   38.955    0.3959
   38.970    0.3959
   38.985    0.3210
   39.000    0.3424
   39.015    0.3852
   39.030    0.4280
   39.045    0.3959
   39.060    0.3959
   39.075    0.4494
   39.090    0.3210
   39.105    0.3959
   39.120    0.4173
   39.135    0.4815
   39.150    0.3959
   39.165    0.3745
   39.180    0.4494
   39.195    0.4601
   39.210    0.3959
   39.225    0.3638
   39.240    0.4066
   39.255    0.3638
   39.270    0.3959
   39.285    0.4280
   39.300    0.4922
   39.315    0.6314
   39.330    0.4601
   39.345    0.4815
   39.360    0.5993
   39.375    0.5564
   39.390    0.6207
   39.405    0.6956
   39.420    0.5671
   39.435    0.7598
   39.450    0.6314
   39.465    0.6100
   39.480    0.6421
   39.495    0.5564
   39.510    0.7063
   39.525    0.7170
   39.540    0.7063
   39.555    0.6635
   39.570    0.7598
   39.585    0.5993
   39.600    0.5136
   39.615    0.5136
   39.630    0.4922
   39.645    0.5136
   39.660    0.5029
   39.675    0.6314
   39.690    0.5457
   39.705    0.4601
   39.720    0.4922
   39.735    0.4815
   39.750    0.5778
   39.765    0.4494
   39.780    0.4922
   39.795    0.4922
   39.810    0.3852
   39.825    0.4601
   39.840    0.6100
   39.855    0.5029
   39.870    0.5671
   39.885    0.4387
   39.900    0.4922
   39.915    0.4387
   39.930    0.3852
   39.945    0.3852
   39.960    0.5029
   39.975    0.4708
   39.990    0.4494
