    1.500    8.8104
    1.515    9.1314
    1.530    8.4894
    1.545    8.3467
    1.560    7.9722
    1.575    7.6333
    1.590    7.9187
    1.605    7.1874
    1.620    7.0626
    1.635    6.8486
    1.650    6.8664
    1.665    6.4384
    1.680    6.6702
    1.695    6.0282
    1.710    5.8142
    1.725    5.8855
    1.740    6.1530
    1.755    5.7607
    1.770    5.6893
    1.785    5.2434
    1.800    5.3683
    1.815    5.1721
    1.830    5.1008
    1.845    5.2791
    1.860    4.7976
    1.875    4.9759
    1.890    4.9403
    1.905    4.7262
    1.920    4.6014
    1.935    5.0116
    1.950    4.7084
    1.965    4.4587
    1.980    4.3517
    1.995    4.2090
    2.010    4.0307
    2.025    3.9772
    2.040    4.3517
    2.055    4.1555
    2.070    3.7988
    2.085    4.0128
    2.100    4.0842
    2.115    3.9058
    2.130    3.6740
    2.145    3.9950
    2.160    3.1746
    2.175    3.8167
    2.190    3.3530
    2.205    3.4778
    2.220    3.7096
    2.235    3.5491
    2.250    3.0676
    2.265    3.7096
    2.280    3.4600
    2.295    3.5848
    2.310    3.3530
    2.325    3.0854
    2.340    2.9963
    2.355    3.1746
    2.370    3.2638
    2.385    2.8536
    2.400    2.8714
    2.415    3.0676
    2.430    3.1568
    2.445    2.6574
    2.460    2.6931
    2.475    2.5682
    2.490    2.7644
    2.505    2.9071
    2.520    2.6039
    2.535    2.4434
    2.550    2.7466
    2.565    2.6396
    2.580    2.4077
    2.595    2.4612
    2.610    2.6217
    2.625    2.8179
    2.640    2.9428
    2.655    2.5504
    2.670    2.6574
    2.685    2.2472
    2.700    2.5861
    2.715    2.2115
    2.730    2.4434
    2.745    2.2115
    2.760    2.5325
    2.775    2.3007
    2.790    2.1759
    2.805    2.3185
    2.820    2.1223
    2.835    2.3185
    2.850    2.3007
    2.865    2.4255
    2.880    2.3899
    2.895    2.1223
    2.910    2.1759
    2.925    2.2650
    2.940    2.0510
    2.955    2.2294
    2.970    2.0688
    2.985    1.8192
    3.000    2.1402
    3.015    1.9262
    3.030    1.9797
    3.045    2.1223
    3.060    2.1402
    3.075    2.0510
    3.090    1.8548
    3.105    1.8192
    3.120    1.8905
    3.135    1.8548
    3.150    1.9440
    3.165    2.1402
    3.180    2.1759
    3.195    1.7478
    3.210    1.8727
    3.225    1.7478
    3.240    1.6408
    3.255    1.6586
    3.270    1.5516
    3.285    1.4803
    3.300    1.7478
    3.315    1.7300
    3.330    1.8013
    3.345    1.7300
    3.360    1.8013
    3.375    1.8727
    3.390    2.2115
    3.405    1.6408
    3.420    1.6051
    3.435    1.9797
    3.450    1.9975
    3.465    1.8013
    3.480    1.6230
    3.495    1.7300
    3.510    1.4803
    3.525    1.5873
    3.540    1.4981
    3.555    1.8013
    3.570    1.8192
    3.585    1.7121
    3.600    1.8013
    3.615    1.4625
    3.630    1.6408
    3.645    1.6765
    3.660    1.9440
    3.675    1.7478
    3.690    1.7657
    3.705    1.6586
    3.720    1.6765
    3.735    1.7478
    3.750    1.8548
    3.765    1.8548
    3.780    1.5873
    3.795    1.6765
    3.810    1.7300
    3.825    1.7121
    3.840    1.6408
    3.855    1.5695
    3.870    1.5338
    3.885    1.7300
    3.900    1.6051
    3.915    1.6943
    3.930    1.6230
    3.945    1.6943
    3.960    1.8370
    3.975    1.5695
    3.990    1.6051
    4.005    1.5695
    4.020    1.7300
    4.035    1.6586
    4.050    1.5160
    4.065    1.6408
    4.080    1.4446
    4.095    1.4803
    4.110    1.4625
    4.125    1.4625
    4.140    1.6051
    4.155    1.6943
    4.170    1.5516
    4.185    1.7835
    4.200    1.7300
    4.215    1.5873
    4.230    1.5516
    4.245    1.6408
    4.260    1.6230
    4.275    1.5695
    4.290    1.3911
    4.305    1.5695
    4.320    1.3733
    4.335    1.4446
    4.350    1.3198
    4.365    1.4446
    4.380    1.5695
    4.395    1.4090
    4.410    1.5516
    4.425    1.5160
    4.440    1.4981
    4.455    1.6230
    4.470    1.6408
    4.485    1.7835
    4.500    1.4803
    4.515    1.4981
    4.530    1.4981
    4.545    1.6051
    4.560    1.4446
    4.575    1.4981
    4.590    1.4446
    4.605    1.5338
    4.620    1.3911
    4.635    1.4981
    4.650    1.6586
    4.665    1.5516
    4.680    1.5160
    4.695    1.6051
    4.710    1.6943
    4.725    1.4803
    4.740    1.6765
    4.755    1.7657
    4.770    1.4268
    4.785    1.4268
    4.800    1.4090
    4.815    1.3733
    4.830    1.5160
    4.845    1.6765
    4.860    1.4268
    4.875    1.6943
    4.890    1.3376
    4.905    1.3376
    4.920    1.4625
    4.935    1.4446
    4.950    1.4268
    4.965    1.5695
    4.980    1.4803
    4.995    1.3554
    5.010    1.4625
    5.025    1.2306
    5.040    1.4446
    5.055    1.1236
    5.070    1.4446
    5.085    1.1949
    5.100    1.6051
    5.115    1.7835
    5.130    1.4268
    5.145    1.7300
    5.160    1.6765
    5.175    1.4268
    5.190    1.5873
    5.205    1.4090
    5.220    1.5873
    5.235    1.6586
    5.250    1.4803
    5.265    1.5695
    5.280    1.3733
    5.295    1.4090
    5.310    1.5873
    5.325    1.6230
    5.340    1.6230
    5.355    1.3554
    5.370    1.5338
    5.385    1.5516
    5.400    1.2306
    5.415    1.3554
    5.430    1.4268
    5.445    1.4803
    5.460    1.4446
    5.475    1.4268
    5.490    1.4268
    5.505    1.6408
    5.520    1.4268
    5.535    1.3911
    5.550    1.7657
    5.565    1.5516
    5.580    1.3733
    5.595    1.4090
    5.610    1.5338
    5.625    1.6586
    5.640    1.4803
    5.655    1.4625
    5.670    1.4625
    5.685    1.6408
    5.700    1.5873
    5.715    1.6408
    5.730    1.5873
    5.745    1.5160
    5.760    1.5873
    5.775    1.6408
    5.790    1.6586
    5.805    1.4268
    5.820    1.5516
    5.835    1.5873
    5.850    1.8013
    5.865    1.5695
    5.880    1.5695
    5.895    1.7300
    5.910    1.7300
    5.925    1.6943
    5.940    1.7121
    5.955    1.6943
    5.970    1.6051
    5.985    1.5695
    6.000    1.8370
    6.015    1.6051
    6.030    1.7300
    6.045    1.7478
    6.060    1.4625
    6.075    1.7478
    6.090    1.4268
    6.105    1.5873
    6.120    1.7657
    6.135    1.9797
    6.150    1.7121
    6.165    1.9797
    6.180    1.7835
    6.195    1.8727
    6.210    1.8192
    6.225    1.8370
    6.240    1.8905
    6.255    1.8727
    6.270    1.8192
    6.285    1.9797
    6.300    1.8013
    6.315    2.0867
    6.330    1.9440
    6.345    1.7478
    6.360    1.9440
    6.375    2.1580
    6.390    1.9262
    6.405    1.7121
    6.420    1.8727
    6.435    1.7478
    6.450    2.0332
    6.465    2.1759
    6.480    2.1223
    6.495    1.8905
    6.510    1.8370
    6.525    2.0153
    6.540    2.0332
    6.555    2.1223
    6.570    1.9440
    6.585    1.9975
    6.600    1.9975
    6.615    2.1223
    6.630    1.8548
    6.645    1.9083
    6.660    1.9083
    6.675    1.5516
    6.690    1.8013
    6.705    1.8370
    6.720    2.0153
    6.735    1.7478
    6.750    1.4625
    6.765    1.7478
    6.780    1.8370
    6.795    1.7121
    6.810    1.7300
    6.825    1.8905
    6.840    1.6051
    6.855    1.9440
    6.870    1.7835
    6.885    1.8370
    6.900    1.7657
    6.915    1.9440
    6.930    1.5160
    6.945    1.4981
    6.960    1.4090
    6.975    1.4981
    6.990    1.4446
    7.005    1.3911
    7.020    1.4625
    7.035    1.3911
    7.050    1.6051
    7.065    1.5516
    7.080    1.6765
    7.095    1.3376
    7.110    1.4268
    7.125    1.4803
    7.140    1.4981
    7.155    1.3911
    7.170    1.3554
    7.185    1.4446
    7.200    1.5338
    7.215    1.3733
    7.230    1.3733
    7.245    1.1949
    7.260    1.6765
    7.275    1.3911
    7.290    1.5516
    7.305    1.3554
    7.320    1.3198
    7.335    1.4090
    7.350    1.6765
    7.365    1.4981
    7.380    1.6765
    7.395    1.2841
    7.410    1.3019
    7.425    1.7300
    7.440    1.5338
    7.455    1.4446
    7.470    1.5160
    7.485    1.4446
    7.500    1.3911
    7.515    1.6408
    7.530    1.4625
    7.545    1.3198
    7.560    1.4090
    7.575    1.2841
    7.590    1.4625
    7.605    1.4090
    7.620    1.1949
    7.635    1.4446
    7.650    1.4625
    7.665    1.4446
    7.680    1.1414
    7.695    1.1949
    7.710    1.3198
    7.725    1.3198
    7.740    1.1058
    7.755    1.4268
    7.770    1.3911
    7.785    1.4803
    7.800    1.2484
    7.815    1.3911
    7.830    1.4268
    7.845    1.4268
    7.860    1.2841
    7.875    1.3198
    7.890    1.3911
    7.905    1.3911
    7.920    1.1236
    7.935    1.3376
    7.950    1.2484
    7.965    1.2841
    7.980    1.3554
    7.995    1.2663
    8.010    1.3376
    8.025    1.1771
    8.040    1.3376
    8.055    1.5695
    8.070    1.2484
    8.085    1.1236
    8.100    1.1771
    8.115    1.1771
    8.130    1.2306
    8.145    1.3198
    8.160    1.4090
    8.175    1.2306
    8.190    1.1771
    8.205    1.0701
    8.220    1.3019
    8.235    1.3733
    8.250    1.2484
    8.265    1.3198
    8.280    1.4268
    8.295    1.1949
    8.310    1.2841
    8.325    1.2484
    8.340    1.2128
    8.355    1.1949
    8.370    1.3376
    8.385    1.0701
    8.400    1.1058
    8.415    1.0523
    8.430    1.0701
    8.445    1.2484
    8.460    0.9096
    8.475    1.0879
    8.490    1.2484
    8.505    1.2841
    8.520    1.1949
    8.535    1.1949
    8.550    1.0344
    8.565    1.1058
    8.580    1.4803
    8.595    1.2306
    8.610    1.1058
    8.625    1.0879
    8.640    1.1949
    8.655    0.9809
    8.670    1.3733
    8.685    1.0166
    8.700    1.0523
    8.715    1.0701
    8.730    1.1414
    8.745    0.8917
    8.760    0.9274
    8.775    1.0166
    8.790    1.2128
    8.805    1.1236
    8.820    0.9631
    8.835    1.1771
    8.850    1.3376
    8.865    1.0701
    8.880    1.1771
    8.895    1.0879
    8.910    0.9809
    8.925    1.0166
    8.940    1.1593
    8.955    1.1771
    8.970    1.0344
    8.985    0.8382
    9.000    0.8204
    9.015    0.9096
    9.030    1.1058
    9.045    1.1771
    9.060    0.9988
    9.075    0.9809
    9.090    0.9631
    9.105    0.9096
    9.120    1.2663
    9.135    1.1593
    9.150    0.9809
    9.165    1.0523
    9.180    1.1593
    9.195    1.1414
    9.210    1.1593
    9.225    1.1414
    9.240    1.0344
    9.255    1.0523
    9.270    1.1414
    9.285    0.9274
    9.300    0.9274
    9.315    0.9452
    9.330    1.1771
    9.345    1.0523
    9.360    1.2306
    9.375    1.0523
    9.390    0.9274
    9.405    0.9988
    9.420    1.0166
    9.435    0.9096
    9.450    0.9452
    9.465    0.9809
    9.480    1.2128
    9.495    1.0166
    9.510    1.0701
    9.525    1.1236
    9.540    1.2128
    9.555    1.1058
    9.570    0.9631
    9.585    1.0344
    9.600    1.1593
    9.615    1.1058
    9.630    0.8917
    9.645    0.8026
    9.660    0.8917
    9.675    0.9096
    9.690    0.8917
    9.705    0.9274
    9.720    0.9988
    9.735    1.0523
    9.750    0.9809
    9.765    1.1058
    9.780    0.9452
    9.795    0.9988
    9.810    1.0344
    9.825    1.0523
    9.840    1.2484
    9.855    1.0879
    9.870    1.1771
    9.885    1.0879
    9.900    0.9988
    9.915    1.1058
    9.930    1.0523
    9.945    1.0166
    9.960    1.0701
    9.975    0.9096
    9.990    0.9452
   10.005    0.7847
   10.020    1.0166
   10.035    1.0879
   10.050    0.9452
   10.065    0.9631
   10.080    0.7847
   10.095    0.9096
   10.110    1.1593
   10.125    1.1771
   10.140    0.8561
   10.155    0.9452
   10.170    1.0523
   10.185    0.8561
   10.200    0.8382
   10.215    0.9631
   10.230    0.9988
   10.245    0.7491
   10.260    0.6956
   10.275    1.0344
   10.290    1.1236
   10.305    0.9809
   10.320    0.9631
   10.335    0.8561
   10.350    0.9274
   10.365    0.9631
   10.380    0.8561
   10.395    0.9274
   10.410    1.1414
   10.425    0.8917
   10.440    0.9096
   10.455    1.0344
   10.470    0.9452
   10.485    0.8026
   10.500    0.8917
   10.515    1.0166
   10.530    0.9809
   10.545    1.0879
   10.560    1.2306
   10.575    0.8382
   10.590    0.7491
   10.605    0.7847
   10.620    1.0166
   10.635    0.7491
   10.650    0.7847
   10.665    0.8561
   10.680    0.8204
   10.695    1.0523
   10.710    0.9452
   10.725    0.8561
   10.740    0.7491
   10.755    0.6599
   10.770    0.9096
   10.785    0.9274
   10.800    0.9452
   10.815    0.9809
   10.830    0.9988
   10.845    0.8382
   10.860    0.8917
   10.875    0.8917
   10.890    0.8739
   10.905    1.0344
   10.920    1.1058
   10.935    1.0523
   10.950    0.9631
   10.965    0.9988
   10.980    0.9452
   10.995    0.8204
   11.010    0.7669
   11.025    0.7491
   11.040    0.8204
   11.055    1.0523
   11.070    1.0879
   11.085    0.9631
   11.100    0.6777
   11.115    0.7669
   11.130    0.7847
   11.145    0.9809
   11.160    1.0523
   11.175    0.8204
   11.190    0.7669
   11.205    0.9631
   11.220    0.9096
   11.235    1.0701
   11.250    1.0701
   11.265    0.9988
   11.280    0.9274
   11.295    0.8026
   11.310    0.9096
   11.325    0.7669
   11.340    1.0166
   11.355    0.9809
   11.370    0.8382
   11.385    0.8561
   11.400    0.9096
   11.415    1.1414
   11.430    0.8561
   11.445    0.7847
   11.460    0.6242
   11.475    1.1414
   11.490    0.9452
   11.505    1.0701
   11.520    1.1236
   11.535    0.8382
   11.550    0.7847
   11.565    0.7669
   11.580    0.7847
   11.595    0.9988
   11.610    0.8917
   11.625    0.8917
   11.640    0.8382
   11.655    0.7669
   11.670    0.8382
   11.685    1.1058
   11.700    0.9452
   11.715    0.7669
   11.730    0.9274
   11.745    0.8382
   11.760    0.6956
   11.775    0.8026
   11.790    0.8739
   11.805    1.0344
   11.820    0.7847
   11.835    0.9096
   11.850    0.8204
   11.865    0.8204
   11.880    1.0523
   11.895    0.8917
   11.910    0.7669
   11.925    0.8382
   11.940    0.9096
   11.955    0.7491
   11.970    1.1058
   11.985    0.8382
   12.000    0.8739
   12.015    0.9988
   12.030    0.7669
   12.045    0.9809
   12.060    0.8917
   12.075    0.8026
   12.090    0.9988
   12.105    0.8382
   12.120    0.9988
   12.135    0.9096
   12.150    0.9631
   12.165    1.0344
   12.180    0.8382
   12.195    0.8382
   12.210    0.8917
   12.225    0.9096
   12.240    0.9452
   12.255    1.0344
   12.270    0.9988
   12.285    0.8026
   12.300    0.9274
   12.315    0.9274
   12.330    0.8739
   12.345    0.9988
   12.360    1.0701
   12.375    0.9274
   12.390    0.9452
   12.405    0.7669
   12.420    0.9096
   12.435    1.0523
   12.450    0.8026
   12.465    0.6421
   12.480    0.9096
   12.495    0.9631
   12.510    1.0879
   12.525    1.0701
   12.540    1.1949
   12.555    1.0166
   12.570    0.9631
   12.585    1.0166
   12.600    0.9452
   12.615    1.0344
   12.630    0.9452
   12.645    1.0701
   12.660    0.8917
   12.675    1.0166
   12.690    1.0166
   12.705    0.8026
   12.720    0.9631
   12.735    0.8561
   12.750    0.8917
   12.765    0.8026
   12.780    0.8026
   12.795    0.6777
   12.810    0.7312
   12.825    0.8739
   12.840    1.0523
   12.855    0.8561
   12.870    0.7847
   12.885    0.8917
   12.900    1.0166
   12.915    1.0344
   12.930    0.8382
   12.945    1.0523
   12.960    0.9274
   12.975    1.0166
   12.990    1.0523
   13.005    1.0879
   13.020    0.8561
   13.035    0.7669
   13.050    0.8204
   13.065    0.6777
   13.080    1.0879
   13.095    0.8917
   13.110    0.8917
   13.125    0.9452
   13.140    1.1236
   13.155    0.7491
   13.170    0.9452
   13.185    1.0523
   13.200    0.9274
   13.215    0.8382
   13.230    0.8739
   13.245    0.8561
   13.260    1.0344
   13.275    0.9809
   13.290    0.9452
   13.305    0.8026
   13.320    0.8739
   13.335    0.9274
   13.350    0.9274
   13.365    0.8561
   13.380    0.8204
   13.395    0.9452
   13.410    0.8561
   13.425    0.9096
   13.440    0.7312
   13.455    0.9452
   13.470    0.8739
   13.485    0.8561
   13.500    0.9096
   13.515    0.7847
   13.530    0.8026
   13.545    0.8739
   13.560    0.9096
   13.575    0.8382
   13.590    0.8382
   13.605    0.9452
   13.620    0.7491
   13.635    0.8917
   13.650    0.9274
   13.665    0.6777
   13.680    0.9096
   13.695    0.8026
   13.710    0.8026
   13.725    0.8204
   13.740    0.8204
   13.755    0.8917
   13.770    0.8204
   13.785    1.1058
   13.800    0.9452
   13.815    0.9096
   13.830    0.9631
   13.845    0.7669
   13.860    0.9274
   13.875    0.7847
   13.890    0.8739
   13.905    0.9631
   13.920    0.8917
   13.935    0.9452
   13.950    0.8561
   13.965    0.8917
   13.980    0.8382
   13.995    0.7669
   14.010    0.8382
   14.025    0.7669
   14.040    0.7491
   14.055    0.8204
   14.070    0.9452
   14.085    0.8561
   14.100    0.8204
   14.115    0.9988
   14.130    0.8204
   14.145    0.6956
   14.160    0.7312
   14.175    0.6777
   14.190    0.9274
   14.205    0.8026
   14.220    0.6777
   14.235    0.7669
   14.250    0.8026
   14.265    0.7134
   14.280    0.9631
   14.295    0.8204
   14.310    0.7669
   14.325    0.7669
   14.340    0.8026
   14.355    0.8561
   14.370    0.8561
   14.385    0.8026
   14.400    0.8561
   14.415    0.7669
   14.430    0.8204
   14.445    0.8204
   14.460    0.9452
   14.475    0.8739
   14.490    0.8561
   14.505    0.8561
   14.520    0.7491
   14.535    0.7134
   14.550    0.7669
   14.565    0.7312
   14.580    0.7491
   14.595    0.9452
   14.610    0.8917
   14.625    0.8739
   14.640    0.7847
   14.655    0.8204
   14.670    0.7847
   14.685    0.9452
   14.700    0.9274
   14.715    0.8382
   14.730    0.9988
   14.745    0.8917
   14.760    0.8204
   14.775    0.8026
   14.790    0.9096
   14.805    0.8026
   14.820    0.8382
   14.835    0.6956
   14.850    0.6421
   14.865    0.7847
   14.880    0.7669
   14.895    0.9274
   14.910    0.7134
   14.925    0.6599
   14.940    1.0344
   14.955    0.8204
   14.970    0.8917
   14.985    0.7669
   15.000    0.8561
   15.015    0.9274
   15.030    0.8561
   15.045    0.8204
   15.060    0.8561
   15.075    0.8026
   15.090    0.7312
   15.105    0.9631
   15.120    0.8026
   15.135    0.6956
   15.150    0.9274
   15.165    1.1058
   15.180    0.8561
   15.195    0.8561
   15.210    0.7312
   15.225    0.7847
   15.240    0.8382
   15.255    0.6242
   15.270    0.7312
   15.285    0.9988
   15.300    0.8739
   15.315    0.8739
   15.330    0.8382
   15.345    0.8739
   15.360    0.9096
   15.375    0.8382
   15.390    0.8739
   15.405    0.9452
   15.420    0.9809
   15.435    0.9096
   15.450    0.8739
   15.465    0.7669
   15.480    0.9096
   15.495    0.8739
   15.510    0.8561
   15.525    0.9988
   15.540    0.8739
   15.555    0.8204
   15.570    0.8382
   15.585    0.9809
   15.600    0.7312
   15.615    0.9452
   15.630    0.9274
   15.645    0.7847
   15.660    0.9452
   15.675    0.7491
   15.690    0.9096
   15.705    0.8917
   15.720    0.7669
   15.735    0.8204
   15.750    0.8739
   15.765    0.9452
   15.780    0.8204
   15.795    0.7491
   15.810    0.6956
   15.825    0.9809
   15.840    0.7491
   15.855    0.9274
   15.870    0.8561
   15.885    0.9631
   15.900    0.7847
   15.915    0.8026
   15.930    0.9274
   15.945    0.8204
   15.960    0.7491
   15.975    0.8561
   15.990    0.8382
   16.005    0.9096
   16.020    0.7491
   16.035    0.9452
   16.050    0.9809
   16.065    0.8917
   16.080    0.8561
   16.095    0.8561
   16.110    0.8026
   16.125    0.8739
   16.140    0.7312
   16.155    0.7491
   16.170    0.9988
   16.185    0.9096
   16.200    0.8561
   16.215    0.9096
   16.230    0.7669
   16.245    0.7847
   16.260    0.8739
   16.275    0.8739
   16.290    0.8561
   16.305    0.9809
   16.320    0.9096
   16.335    0.9096
   16.350    0.7134
   16.365    0.8026
   16.380    0.9809
   16.395    1.0879
   16.410    0.8917
   16.425    0.7669
   16.440    0.8739
   16.455    0.9809
   16.470    0.8204
   16.485    0.7312
   16.500    0.9988
   16.515    0.9452
   16.530    0.8917
   16.545    0.9988
   16.560    1.1058
   16.575    0.8739
   16.590    0.8917
   16.605    0.9274
   16.620    1.0166
   16.635    0.9452
   16.650    0.9631
   16.665    0.9452
   16.680    0.9096
   16.695    0.8026
   16.710    0.9809
   16.725    0.9096
   16.740    0.8561
   16.755    0.9274
   16.770    0.9096
   16.785    0.8739
   16.800    0.7312
   16.815    0.8561
   16.830    0.8026
   16.845    0.8382
   16.860    0.9274
   16.875    0.9274
   16.890    1.0879
   16.905    1.0344
   16.920    0.9452
   16.935    0.9096
   16.950    0.9096
   16.965    0.8739
   16.980    1.0166
   16.995    0.9631
   17.010    0.8026
   17.025    0.9274
   17.040    0.9809
   17.055    1.1058
   17.070    0.9452
   17.085    0.7847
   17.100    0.8204
   17.115    1.0344
   17.130    0.9096
   17.145    0.9631
   17.160    0.9809
   17.175    0.9809
   17.190    0.8917
   17.205    0.9096
   17.220    0.9452
   17.235    0.8561
   17.250    0.7491
   17.265    0.9631
   17.280    0.8917
   17.295    0.8739
   17.310    1.0344
   17.325    0.9631
   17.340    0.9631
   17.355    0.8561
   17.370    0.8561
   17.385    0.8382
   17.400    0.7312
   17.415    0.7669
   17.430    0.9096
   17.445    0.8917
   17.460    0.7134
   17.475    0.7491
   17.490    0.9631
   17.505    0.8917
   17.520    0.8026
   17.535    1.0523
   17.550    0.9452
   17.565    0.8382
   17.580    0.8026
   17.595    0.7134
   17.610    0.8204
   17.625    0.8382
   17.640    0.6421
   17.655    0.6421
   17.670    0.7847
   17.685    0.8561
   17.700    1.0166
   17.715    0.9988
   17.730    0.9096
   17.745    0.8739
   17.760    1.0166
   17.775    0.8561
   17.790    0.7669
   17.805    0.6956
   17.820    0.7134
   17.835    0.8561
   17.850    0.8561
   17.865    0.8382
   17.880    0.9274
   17.895    0.9452
   17.910    0.9631
   17.925    0.8204
   17.940    0.6956
   17.955    0.8026
   17.970    0.6956
   17.985    0.8917
   18.000    0.8204
   18.015    0.8026
   18.030    0.7669
   18.045    0.5886
   18.060    0.7134
   18.075    0.7669
   18.090    0.9096
   18.105    0.7491
   18.120    0.9274
   18.135    0.7312
   18.150    0.8739
   18.165    0.8739
   18.180    0.7669
   18.195    0.8561
   18.210    0.6421
   18.225    0.7491
   18.240    0.7847
   18.255    0.8204
   18.270    0.7847
   18.285    0.8561
   18.300    0.8561
   18.315    0.8739
   18.330    0.9274
   18.345    0.8917
   18.360    0.7491
   18.375    0.7669
   18.390    0.6956
   18.405    0.8204
   18.420    0.9274
   18.435    0.9096
   18.450    0.8382
   18.465    0.7669
   18.480    0.7134
   18.495    0.6777
   18.510    0.7669
   18.525    0.7312
   18.540    0.6956
   18.555    0.6064
   18.570    0.8561
   18.585    0.8204
   18.600    0.8026
   18.615    0.8561
   18.630    0.6956
   18.645    0.7669
   18.660    0.7134
   18.675    0.9452
   18.690    0.8561
   18.705    0.6956
   18.720    0.6599
   18.735    0.8026
   18.750    0.8739
   18.765    0.8026
   18.780    0.8561
   18.795    0.6956
   18.810    0.9452
   18.825    0.8561
   18.840    0.7669
   18.855    0.7134
   18.870    0.8204
   18.885    1.0344
   18.900    0.9809
   18.915    0.9809
   18.930    0.8917
   18.945    0.8026
   18.960    0.7847
   18.975    0.8026
   18.990    0.8739
   19.005    0.8026
   19.020    0.8026
   19.035    0.9274
   19.050    0.9274
   19.065    0.6777
   19.080    0.8204
   19.095    0.7312
   19.110    0.7134
   19.125    0.6599
   19.140    0.7491
   19.155    0.6777
   19.170    0.8382
   19.185    0.9096
   19.200    0.7847
   19.215    0.8917
   19.230    0.9274
   19.245    0.7847
   19.260    0.6242
   19.275    0.8026
   19.290    1.1414
   19.305    0.9631
   19.320    0.8026
   19.335    0.7491
   19.350    0.6956
   19.365    1.0166
   19.380    0.7847
   19.395    0.8917
   19.410    0.8739
   19.425    0.8917
   19.440    0.7312
   19.455    0.6421
   19.470    0.6242
   19.485    0.8382
   19.500    0.9631
   19.515    0.8204
   19.530    0.7134
   19.545    0.8026
   19.560    0.8739
   19.575    0.9274
   19.590    0.8917
   19.605    0.7491
   19.620    0.7847
   19.635    0.6242
   19.650    0.7669
   19.665    0.7134
   19.680    0.8382
   19.695    0.8026
   19.710    0.8917
   19.725    0.8561
   19.740    0.7669
   19.755    0.9096
   19.770    1.0344
   19.785    0.8382
   19.800    0.7669
   19.815    0.7134
   19.830    0.8204
   19.845    0.6599
   19.860    0.9274
   19.875    0.7491
   19.890    0.9631
   19.905    0.7847
   19.920    0.9452
   19.935    0.9988
   19.950    0.7669
   19.965    0.7847
   19.980    0.8382
   19.995    0.8917
   20.010    0.6599
   20.025    0.8026
   20.040    0.8561
   20.055    0.8382
   20.070    0.6956
   20.085    0.7312
   20.100    0.8026
   20.115    0.7134
   20.130    0.9096
   20.145    0.9274
   20.160    0.8739
   20.175    0.8204
   20.190    0.9096
   20.205    0.7669
   20.220    0.7491
   20.235    0.8204
   20.250    0.8917
   20.265    0.7669
   20.280    0.8026
   20.295    0.7847
   20.310    0.9452
   20.325    0.8917
   20.340    0.7134
   20.355    0.6777
   20.370    0.9274
   20.385    0.8026
   20.400    0.8739
   20.415    0.8026
   20.430    0.8204
   20.445    0.7669
   20.460    0.9274
   20.475    1.2306
   20.490    0.8026
   20.505    0.8382
   20.520    0.8204
   20.535    0.6956
   20.550    0.6777
   20.565    0.7312
   20.580    0.8739
   20.595    0.9096
   20.610    0.8561
   20.625    0.6777
   20.640    0.7669
   20.655    0.8382
   20.670    0.6956
   20.685    0.9096
   20.700    0.8204
   20.715    0.6956
   20.730    0.7669
   20.745    0.8382
   20.760    0.8917
   20.775    0.7847
   20.790    0.6956
   20.805    0.7847
   20.820    0.7847
   20.835    0.9452
   20.850    0.8382
   20.865    0.7134
   20.880    0.6956
   20.895    0.7847
   20.910    0.7847
   20.925    0.8204
   20.940    0.9274
   20.955    0.8026
   20.970    0.8204
   20.985    1.1593
   21.000    0.6956
   21.015    0.8739
   21.030    0.6064
   21.045    0.8026
   21.060    0.8026
   21.075    0.7847
   21.090    0.8026
   21.105    0.8382
   21.120    0.7491
   21.135    0.7669
   21.150    0.7669
   21.165    0.8739
   21.180    0.9988
   21.195    1.0166
   21.210    0.6777
   21.225    0.8561
   21.240    0.8204
   21.255    0.8204
   21.270    0.6421
   21.285    0.7669
   21.300    0.7847
   21.315    0.5707
   21.330    0.7491
   21.345    0.9452
   21.360    0.8382
   21.375    0.7847
   21.390    0.6777
   21.405    0.8561
   21.420    0.6599
   21.435    0.8026
   21.450    0.7847
   21.465    0.7491
   21.480    0.6956
   21.495    0.7312
   21.510    0.6777
   21.525    0.7669
   21.540    0.8739
   21.555    0.8026
   21.570    0.8026
   21.585    0.9096
   21.600    0.7847
   21.615    0.8204
   21.630    0.8204
   21.645    0.7134
   21.660    0.8026
   21.675    0.8739
   21.690    0.7669
   21.705    0.9096
   21.720    0.7847
   21.735    0.9809
   21.750    0.9274
   21.765    0.7491
   21.780    0.6956
   21.795    0.7491
   21.810    0.9096
   21.825    0.9096
   21.840    0.8382
   21.855    0.9631
   21.870    0.5886
   21.885    0.8561
   21.900    0.7669
   21.915    0.7312
   21.930    0.6064
   21.945    0.7847
   21.960    0.7134
   21.975    0.8561
   21.990    0.9988
   22.005    0.8739
   22.020    0.8026
   22.035    0.6777
   22.050    0.9809
   22.065    0.7847
   22.080    0.6421
   22.095    0.7134
   22.110    0.6956
   22.125    0.6956
   22.140    0.7847
   22.155    0.7669
   22.170    0.9274
   22.185    0.8382
   22.200    0.8382
   22.215    0.4994
   22.230    0.7312
   22.245    0.8561
   22.260    0.8026
   22.275    0.6599
   22.290    0.7491
   22.305    0.7312
   22.320    0.6421
   22.335    0.8382
   22.350    0.6777
   22.365    0.6599
   22.380    0.6956
   22.395    0.9452
   22.410    0.5529
   22.425    0.7669
   22.440    0.8739
   22.455    0.8204
   22.470    0.7847
   22.485    0.8026
   22.500    0.8026
   22.515    0.7134
   22.530    0.8917
   22.545    0.8382
   22.560    0.9631
   22.575    0.7669
   22.590    0.8917
   22.605    0.6421
   22.620    0.5707
   22.635    0.6421
   22.650    0.7669
   22.665    0.7312
   22.680    0.7134
   22.695    0.7847
   22.710    0.8382
   22.725    0.8382
   22.740    0.6421
   22.755    0.7134
   22.770    0.7847
   22.785    0.8204
   22.800    0.7312
   22.815    0.6242
   22.830    0.7312
   22.845    0.7847
   22.860    0.8382
   22.875    0.7847
   22.890    1.0523
   22.905    0.8739
   22.920    0.8561
   22.935    0.8917
   22.950    0.8561
   22.965    0.7312
   22.980    0.6777
   22.995    0.6956
   23.010    0.7669
   23.025    0.7312
   23.040    0.8382
   23.055    0.8739
   23.070    0.7134
   23.085    0.6599
   23.100    0.8917
   23.115    0.7491
   23.130    0.8204
   23.145    0.7847
   23.160    0.7312
   23.175    0.8561
   23.190    0.7669
   23.205    0.7491
   23.220    0.7312
   23.235    0.5886
   23.250    0.6242
   23.265    0.5707
   23.280    0.6421
   23.295    0.6777
   23.310    0.7134
   23.325    0.6777
   23.340    0.6599
   23.355    0.7134
   23.370    0.6064
   23.385    0.6242
   23.400    0.6777
   23.415    0.8382
   23.430    0.6421
   23.445    0.5707
   23.460    0.7312
   23.475    0.6956
   23.490    0.5350
   23.505    0.7847
   23.520    0.7491
   23.535    0.6064
   23.550    0.5886
   23.565    0.6599
   23.580    0.7491
   23.595    0.6777
   23.610    0.7669
   23.625    0.7669
   23.640    0.8204
   23.655    0.8204
   23.670    0.6242
   23.685    0.8739
   23.700    0.6064
   23.715    0.7491
   23.730    0.6956
   23.745    0.7491
   23.760    0.6956
   23.775    0.7847
   23.790    0.6242
   23.805    0.8026
   23.820    0.6421
   23.835    0.6421
   23.850    0.6777
   23.865    0.6421
   23.880    0.6956
   23.895    0.6956
   23.910    0.7134
   23.925    0.8026
   23.940    0.7134
   23.955    0.7669
   23.970    0.7312
   23.985    0.8204
   24.000    0.9452
   24.015    0.8739
   24.030    0.7312
   24.045    0.8204
   24.060    0.6599
   24.075    0.6421
   24.090    0.7491
   24.105    0.8026
   24.120    0.5886
   24.135    0.8561
   24.150    0.7669
   24.165    0.8026
   24.180    0.8026
   24.195    0.8204
   24.210    0.7847
   24.225    0.6777
   24.240    0.8739
   24.255    0.7312
   24.270    0.7847
   24.285    0.8739
   24.300    0.5886
   24.315    0.7312
   24.330    0.8382
   24.345    0.7134
   24.360    0.7134
   24.375    0.8561
   24.390    0.7847
   24.405    0.7491
   24.420    0.6777
   24.435    0.6777
   24.450    0.8026
   24.465    0.6956
   24.480    0.7491
   24.495    0.6599
   24.510    0.6956
   24.525    0.9096
   24.540    0.9096
   24.555    0.7491
   24.570    0.5350
   24.585    0.5529
   24.600    0.6064
   24.615    0.7312
   24.630    0.6242
   24.645    0.6599
   24.660    0.6777
   24.675    0.8382
   24.690    0.8204
   24.705    0.7669
   24.720    0.9631
   24.735    0.9096
   24.750    0.7312
   24.765    0.8382
   24.780    0.8026
   24.795    0.7312
   24.810    0.7134
   24.825    0.6956
   24.840    0.8561
   24.855    0.6421
   24.870    0.7491
   24.885    0.7134
   24.900    0.6777
   24.915    0.6777
   24.930    0.6956
   24.945    0.8204
   24.960    0.7491
   24.975    0.6421
   24.990    0.8739
   25.005    0.6242
   25.020    0.7134
   25.035    0.6777
   25.050    0.6064
   25.065    0.6421
   25.080    0.6242
   25.095    0.5707
   25.110    0.6777
   25.125    0.6777
   25.140    0.6777
   25.155    0.7491
   25.170    0.7847
   25.185    0.6421
   25.200    0.4994
   25.215    0.6242
   25.230    0.7847
   25.245    0.6956
   25.260    0.6242
   25.275    0.8739
   25.290    0.6064
   25.305    0.8026
   25.320    0.7847
   25.335    0.6421
   25.350    0.6242
   25.365    0.7312
   25.380    0.7134
   25.395    0.5707
   25.410    0.7312
   25.425    0.6064
   25.440    0.5707
   25.455    0.5172
   25.470    0.6421
   25.485    0.6777
   25.500    0.7847
   25.515    0.8204
   25.530    0.7134
   25.545    0.6064
   25.560    0.6242
   25.575    0.5886
   25.590    0.6956
   25.605    0.7491
   25.620    0.6064
   25.635    0.6777
   25.650    0.7134
   25.665    0.6242
   25.680    0.7491
   25.695    0.7491
   25.710    0.7669
   25.725    0.9452
   25.740    0.7312
   25.755    0.6599
   25.770    0.8026
   25.785    0.5707
   25.800    0.6064
   25.815    0.6064
   25.830    0.6242
   25.845    0.6242
   25.860    0.7491
   25.875    0.7312
   25.890    0.6777
   25.905    0.7134
   25.920    0.5707
   25.935    0.7312
   25.950    0.8561
   25.965    0.7847
   25.980    0.6242
   25.995    0.6599
   26.010    0.8382
   26.025    0.6599
   26.040    0.6599
   26.055    0.5172
   26.070    0.5529
   26.085    0.6421
   26.100    0.6064
   26.115    0.7134
   26.130    0.6599
   26.145    0.5172
   26.160    0.5529
   26.175    0.6421
   26.190    0.8382
   26.205    0.6777
   26.220    0.7312
   26.235    0.8382
   26.250    0.6599
   26.265    0.6956
   26.280    0.5707
   26.295    0.6242
   26.310    0.6777
   26.325    0.6421
   26.340    0.6421
   26.355    0.7134
   26.370    0.5707
   26.385    0.6242
   26.400    0.4280
   26.415    0.4280
   26.430    0.6421
   26.445    0.6242
   26.460    0.6421
   26.475    0.6421
   26.490    0.6599
   26.505    0.6777
   26.520    0.8204
   26.535    0.6599
   26.550    0.6599
   26.565    0.6777
   26.580    0.8204
   26.595    0.6956
   26.610    0.5886
   26.625    0.5886
   26.640    0.6242
   26.655    0.6777
   26.670    0.8026
   26.685    0.5707
   26.700    0.6599
   26.715    0.6064
   26.730    0.5529
   26.745    0.5886
   26.760    0.4459
   26.775    0.6599
   26.790    0.6777
   26.805    0.7669
   26.820    0.5886
   26.835    0.6777
   26.850    0.5172
   26.865    0.6421
   26.880    0.6064
   26.895    0.5886
   26.910    0.5350
   26.925    0.6956
   26.940    0.6421
   26.955    0.5707
   26.970    0.5529
   26.985    0.5886
   27.000    0.7669
   27.015    0.6242
   27.030    0.5529
   27.045    0.5172
   27.060    0.5707
   27.075    0.6956
   27.090    0.8561
   27.105    0.6777
   27.120    0.6777
   27.135    0.6421
   27.150    0.5529
   27.165    0.5886
   27.180    0.5707
   27.195    0.6421
   27.210    0.5886
   27.225    0.5707
   27.240    0.6956
   27.255    0.7134
   27.270    0.8739
   27.285    0.8382
   27.300    0.8382
   27.315    0.6777
   27.330    0.5172
   27.345    0.5350
   27.360    0.6599
   27.375    0.8204
   27.390    0.7312
   27.405    0.6599
   27.420    0.5350
   27.435    0.6599
   27.450    0.5886
   27.465    0.6421
   27.480    0.8026
   27.495    0.7669
   27.510    0.7491
   27.525    0.5350
   27.540    0.4994
   27.555    0.7312
   27.570    0.6064
   27.585    0.5886
   27.600    0.6956
   27.615    0.7134
   27.630    0.6599
   27.645    0.7491
   27.660    0.7134
   27.675    0.5529
   27.690    0.6064
   27.705    0.5350
   27.720    0.5350
   27.735    0.5707
   27.750    0.5886
   27.765    0.6956
   27.780    0.6064
   27.795    0.5707
   27.810    0.6242
   27.825    0.5707
   27.840    0.3745
   27.855    0.5707
   27.870    0.5529
   27.885    0.6599
   27.900    0.7847
   27.915    0.8382
   27.930    0.5886
   27.945    0.6421
   27.960    0.5707
   27.975    0.5707
   27.990    0.7134
   28.005    0.7134
   28.020    0.6956
   28.035    0.5707
   28.050    0.6064
   28.065    0.4637
   28.080    0.4102
   28.095    0.5707
   28.110    0.7312
   28.125    0.7134
   28.140    0.5529
   28.155    0.4994
   28.170    0.5886
   28.185    0.7491
   28.200    0.6956
   28.215    0.5350
   28.230    0.6064
   28.245    0.7134
   28.260    0.6421
   28.275    0.6599
   28.290    0.6064
   28.305    0.4994
   28.320    0.4280
   28.335    0.5529
   28.350    0.4637
   28.365    0.4459
   28.380    0.4637
   28.395    0.4994
   28.410    0.6064
   28.425    0.6064
   28.440    0.6421
   28.455    0.6599
   28.470    0.6064
   28.485    0.7312
   28.500    0.6956
   28.515    0.6242
   28.530    0.6956
   28.545    0.5707
   28.560    0.6777
   28.575    0.5172
   28.590    0.6064
   28.605    0.7134
   28.620    0.6242
   28.635    0.6777
   28.650    0.6956
   28.665    0.6242
   28.680    0.6242
   28.695    0.7134
   28.710    0.5350
   28.725    0.5172
   28.740    0.4637
   28.755    0.6064
   28.770    0.6777
   28.785    0.7491
   28.800    0.6599
   28.815    0.4102
   28.830    0.3745
   28.845    0.4994
   28.860    0.7134
   28.875    0.5529
   28.890    0.4994
   28.905    0.5350
   28.920    0.6599
   28.935    0.5886
   28.950    0.5172
   28.965    0.6777
   28.980    0.5529
   28.995    0.6421
   29.010    0.6777
   29.025    0.8917
   29.040    0.6599
   29.055    0.6777
   29.070    0.6599
   29.085    0.6777
   29.100    0.6599
   29.115    0.5886
   29.130    0.6599
   29.145    0.5172
   29.160    0.5707
   29.175    0.7669
   29.190    0.4637
   29.205    0.4102
   29.220    0.5172
   29.235    0.3745
   29.250    0.6064
   29.265    0.5886
   29.280    0.4637
   29.295    0.4280
   29.310    0.4459
   29.325    0.5529
   29.340    0.7312
   29.355    0.5529
   29.370    0.4459
   29.385    0.4280
   29.400    0.6242
   29.415    0.5172
   29.430    0.5172
   29.445    0.5172
   29.460    0.5886
   29.475    0.4815
   29.490    0.4815
   29.505    0.6777
   29.520    0.6956
   29.535    0.6777
   29.550    0.6777
   29.565    0.4637
   29.580    0.6242
   29.595    0.5529
   29.610    0.4815
   29.625    0.4102
   29.640    0.4459
   29.655    0.4994
   29.670    0.5172
   29.685    0.5707
   29.700    0.5350
   29.715    0.5172
   29.730    0.6421
   29.745    0.6956
   29.760    0.6421
   29.775    0.7669
   29.790    0.6242
   29.805    0.5172
   29.820    0.3924
   29.835    0.6421
   29.850    0.5886
   29.865    0.4637
   29.880    0.4994
   29.895    0.5886
   29.910    0.5886
   29.925    0.6421
   29.940    0.5350
   29.955    0.4994
   29.970    0.5707
   29.985    0.5350
   30.000    0.5350
   30.015    0.4280
   30.030    0.5529
   30.045    0.6421
   30.060    0.5529
   30.075    0.5886
   30.090    0.7134
   30.105    0.6064
   30.120    0.5529
   30.135    0.4459
   30.150    0.5172
   30.165    0.3032
   30.180    0.5707
   30.195    0.4994
   30.210    0.5350
   30.225    0.6777
   30.240    0.5529
   30.255    0.6777
   30.270    0.4459
   30.285    0.4102
   30.300    0.5707
   30.315    0.5172
   30.330    0.4815
   30.345    0.5172
   30.360    0.4815
   30.375    0.4280
   30.390    0.5172
   30.405    0.5529
   30.420    0.5172
   30.435    0.5172
   30.450    0.5529
   30.465    0.4994
   30.480    0.4815
   30.495    0.5172
   30.510    0.4815
   30.525    0.5886
   30.540    0.4994
   30.555    0.5529
   30.570    0.4815
   30.585    0.3389
   30.600    0.4637
   30.615    0.3924
   30.630    0.4459
   30.645    0.4994
   30.660    0.5172
   30.675    0.6064
   30.690    0.5350
   30.705    0.4815
   30.720    0.5350
   30.735    0.5350
   30.750    0.4637
   30.765    0.5172
   30.780    0.5707
   30.795    0.7134
   30.810    0.6777
   30.825    0.5172
   30.840    0.5707
   30.855    0.5886
   30.870    0.6421
   30.885    0.5529
   30.900    0.4994
   30.915    0.5529
   30.930    0.6242
   30.945    0.5172
   30.960    0.4459
   30.975    0.6242
   30.990    0.5886
   31.005    0.4280
   31.020    0.6064
   31.035    0.7134
   31.050    0.4280
   31.065    0.5529
   31.080    0.7491
   31.095    0.4994
   31.110    0.4815
   31.125    0.5172
   31.140    0.5886
   31.155    0.4102
   31.170    0.4459
   31.185    0.5529
   31.200    0.3745
   31.215    0.5350
   31.230    0.6421
   31.245    0.6421
   31.260    0.5350
   31.275    0.5886
   31.290    0.4994
   31.305    0.4102
   31.320    0.4459
   31.335    0.4815
   31.350    0.5886
   31.365    0.5529
   31.380    0.5172
   31.395    0.5707
   31.410    0.5886
   31.425    0.5529
   31.440    0.5886
   31.455    0.4815
   31.470    0.4459
   31.485    0.4459
   31.500    0.5350
   31.515    0.4815
   31.530    0.5886
   31.545    0.4637
   31.560    0.5529
   31.575    0.5707
   31.590    0.5172
   31.605    0.4815
   31.620    0.4102
   31.635    0.3389
   31.650    0.4280
   31.665    0.5529
   31.680    0.5707
   31.695    0.5172
   31.710    0.5707
   31.725    0.6064
   31.740    0.4102
   31.755    0.4102
   31.770    0.5172
   31.785    0.4815
   31.800    0.5350
   31.815    0.5172
   31.830    0.4637
   31.845    0.5172
   31.860    0.4994
   31.875    0.4815
   31.890    0.4815
   31.905    0.4459
   31.920    0.3924
   31.935    0.4280
   31.950    0.4459
   31.965    0.4459
   31.980    0.4815
   31.995    0.5529
   32.010    0.5172
   32.025    0.4280
   32.040    0.4994
   32.055    0.3924
   32.070    0.4815
   32.085    0.5350
   32.100    0.5886
   32.115    0.4637
   32.130    0.6421
   32.145    0.5172
   32.160    0.5172
   32.175    0.4459
   32.190    0.3745
   32.205    0.5529
   32.220    0.4459
   32.235    0.4459
   32.250    0.5529
   32.265    0.4637
   32.280    0.5529
   32.295    0.5529
   32.310    0.3745
   32.325    0.4102
   32.340    0.4994
   32.355    0.4280
   32.370    0.3389
   32.385    0.3567
   32.400    0.4280
   32.415    0.5350
   32.430    0.5172
   32.445    0.4459
   32.460    0.4994
   32.475    0.4815
   32.490    0.3924
   32.505    0.4102
   32.520    0.4637
   32.535    0.5529
   32.550    0.5707
   32.565    0.5172
   32.580    0.3032
   32.595    0.4459
   32.610    0.4637
   32.625    0.4102
   32.640    0.4637
   32.655    0.5172
   32.670    0.4637
   32.685    0.3567
   32.700    0.4280
   32.715    0.5707
   32.730    0.5886
   32.745    0.4280
   32.760    0.3389
   32.775    0.5529
   32.790    0.4280
   32.805    0.5350
   32.820    0.5172
   32.835    0.4994
   32.850    0.4280
   32.865    0.4280
   32.880    0.4637
   32.895    0.4994
   32.910    0.5172
   32.925    0.5529
   32.940    0.4815
   32.955    0.5707
   32.970    0.6242
   32.985    0.5350
   33.000    0.3924
   33.015    0.3389
   33.030    0.3924
   33.045    0.4102
   33.060    0.5529
   33.075    0.3924
   33.090    0.4637
   33.105    0.5707
   33.120    0.4815
   33.135    0.5529
   33.150    0.4459
   33.165    0.4280
   33.180    0.4459
   33.195    0.4637
   33.210    0.6242
   33.225    0.5350
   33.240    0.4459
   33.255    0.3567
   33.270    0.2854
   33.285    0.3745
   33.300    0.3924
   33.315    0.4280
   33.330    0.3567
   33.345    0.4994
   33.360    0.7134
   33.375    0.4637
   33.390    0.4280
   33.405    0.3924
   33.420    0.2675
   33.435    0.4637
   33.450    0.4280
   33.465    0.3210
   33.480    0.3924
   33.495    0.4459
   33.510    0.5529
   33.525    0.3924
   33.540    0.4280
   33.555    0.4102
   33.570    0.4102
   33.585    0.4815
   33.600    0.4459
   33.615    0.5172
   33.630    0.4102
   33.645    0.4815
   33.660    0.2675
   33.675    0.4815
   33.690    0.3924
   33.705    0.4815
   33.720    0.3210
   33.735    0.4637
   33.750    0.4994
   33.765    0.3567
   33.780    0.4815
   33.795    0.4815
   33.810    0.5707
   33.825    0.5707
   33.840    0.5886
   33.855    0.4459
   33.870    0.4994
   33.885    0.3745
   33.900    0.3389
   33.915    0.3745
   33.930    0.5707
   33.945    0.4280
   33.960    0.5886
   33.975    0.4994
   33.990    0.5707
   34.005    0.5886
   34.020    0.4280
   34.035    0.4102
   34.050    0.4459
   34.065    0.3924
   34.080    0.3567
   34.095    0.3032
   34.110    0.3389
   34.125    0.5172
   34.140    0.4459
   34.155    0.3745
   34.170    0.3745
   34.185    0.2854
   34.200    0.3924
   34.215    0.4102
   34.230    0.4459
   34.245    0.2854
   34.260    0.3745
   34.275    0.3389
   34.290    0.4815
   34.305    0.3567
   34.320    0.3924
   34.335    0.4815
   34.350    0.4815
   34.365    0.4994
   34.380    0.3745
   34.395    0.3567
   34.410    0.3389
   34.425    0.3389
   34.440    0.3924
   34.455    0.4102
   34.470    0.3210
   34.485    0.3567
   34.500    0.2497
   34.515    0.3924
   34.530    0.4280
   34.545    0.4459
   34.560    0.3389
   34.575    0.3924
   34.590    0.4459
   34.605    0.3389
   34.620    0.4102
   34.635    0.4280
   34.650    0.3389
   34.665    0.3567
   34.680    0.3567
   34.695    0.4280
   34.710    0.3924
   34.725    0.3567
   34.740    0.3924
   34.755    0.3389
   34.770    0.3745
   34.785    0.3924
   34.800    0.3924
   34.815    0.3389
   34.830    0.3745
   34.845    0.3567
   34.860    0.3924
   34.875    0.4102
   34.890    0.3389
   34.905    0.4994
   34.920    0.3389
   34.935    0.3389
   34.950    0.4280
   34.965    0.4102
   34.980    0.3924
   34.995    0.4994
   35.010    0.3924
   35.025    0.2319
   35.040    0.3389
   35.055    0.3567
   35.070    0.3745
   35.085    0.3567
   35.100    0.4102
   35.115    0.3924
   35.130    0.3567
   35.145    0.3745
   35.160    0.3389
   35.175    0.2675
   35.190    0.3924
   35.205    0.4102
   35.220    0.4280
   35.235    0.4280
   35.250    0.4459
   35.265    0.3745
   35.280    0.4280
   35.295    0.3210
   35.310    0.3389
   35.325    0.3745
   35.340    0.3567
   35.355    0.6242
   35.370    0.3924
   35.385    0.4102
   35.400    0.3389
   35.415    0.3210
   35.430    0.3745
   35.445    0.3924
   35.460    0.4994
   35.475    0.3567
   35.490    0.3389
   35.505    0.2319
   35.520    0.4102
   35.535    0.4637
   35.550    0.3567
   35.565    0.3567
   35.580    0.3567
   35.595    0.3389
   35.610    0.3567
   35.625    0.4637
   35.640    0.4280
   35.655    0.3745
   35.670    0.3389
   35.685    0.3210
   35.700    0.3210
   35.715    0.3745
   35.730    0.4459
   35.745    0.3924
   35.760    0.3567
   35.775    0.4459
   35.790    0.2319
   35.805    0.2140
   35.820    0.2497
   35.835    0.2675
   35.850    0.3567
   35.865    0.2497
   35.880    0.3567
   35.895    0.3210
   35.910    0.3745
   35.925    0.2854
   35.940    0.3032
   35.955    0.2140
   35.970    0.2675
   35.985    0.3210
   36.000    0.3032
   36.015    0.2854
   36.030    0.2675
   36.045    0.4102
   36.060    0.3032
   36.075    0.2854
   36.090    0.3745
   36.105    0.3567
   36.120    0.2854
   36.135    0.2854
   36.150    0.3032
   36.165    0.3567
   36.180    0.4280
   36.195    0.3389
   36.210    0.2854
   36.225    0.2854
   36.240    0.2854
   36.255    0.3389
   36.270    0.2854
   36.285    0.2854
   36.300    0.2140
   36.315    0.3567
   36.330    0.4459
   36.345    0.3210
   36.360    0.2854
   36.375    0.2497
   36.390    0.2497
   36.405    0.3032
   36.420    0.3745
   36.435    0.2854
   36.450    0.3032
   36.465    0.3210
   36.480    0.3567
   36.495    0.2854
   36.510    0.4280
   36.525    0.4815
   36.540    0.3567
   36.555    0.3210
   36.570    0.3924
   36.585    0.3745
   36.600    0.2319
   36.615    0.3567
   36.630    0.3567
   36.645    0.2140
   36.660    0.2497
   36.675    0.2497
   36.690    0.2497
   36.705    0.2854
   36.720    0.3032
   36.735    0.3210
   36.750    0.2854
   36.765    0.3745
   36.780    0.2319
   36.795    0.2675
   36.810    0.1962
   36.825    0.3567
   36.840    0.4815
   36.855    0.3745
   36.870    0.3567
   36.885    0.4637
   36.900    0.3567
   36.915    0.3567
   36.930    0.3745
   36.945    0.3745
   36.960    0.3745
   36.975    0.3389
   36.990    0.3389
   37.005    0.3567
   37.020    0.4637
   37.035    0.3924
   37.050    0.3210
   37.065    0.3924
   37.080    0.3567
   37.095    0.2497
   37.110    0.2140
   37.125    0.3032
   37.140    0.3210
   37.155    0.3210
   37.170    0.3567
   37.185    0.3745
   37.200    0.2675
   37.215    0.2497
   37.230    0.2140
   37.245    0.2319
   37.260    0.2854
   37.275    0.3032
   37.290    0.2497
   37.305    0.3210
   37.320    0.3389
   37.335    0.2319
   37.350    0.4102
   37.365    0.4815
   37.380    0.2140
   37.395    0.2854
   37.410    0.2675
   37.425    0.3032
   37.440    0.3032
   37.455    0.2854
   37.470    0.3924
   37.485    0.3210
   37.500    0.3924
   37.515    0.2675
   37.530    0.3032
   37.545    0.2319
   37.560    0.3389
   37.575    0.3924
   37.590    0.3924
   37.605    0.3567
   37.620    0.3567
   37.635    0.3745
   37.650    0.3032
   37.665    0.2497
   37.680    0.2497
   37.695    0.2854
   37.710    0.3032
   37.725    0.3032
   37.740    0.2854
   37.755    0.3210
   37.770    0.3032
   37.785    0.2854
   37.800    0.3210
   37.815    0.2319
   37.830    0.1783
   37.845    0.3032
   37.860    0.2319
   37.875    0.2854
   37.890    0.3745
   37.905    0.4280
   37.920    0.2497
   37.935    0.2675
   37.950    0.3389
   37.965    0.2675
   37.980    0.2675
   37.995    0.2319
   38.010    0.3032
   38.025    0.3567
   38.040    0.2319
   38.055    0.3210
   38.070    0.3924
   38.085    0.3210
   38.100    0.4459
   38.115    0.2854
   38.130    0.2140
   38.145    0.2140
   38.160    0.2854
   38.175    0.2854
   38.190    0.2497
   38.205    0.2497
   38.220    0.3389
   38.235    0.2854
   38.250    0.3389
   38.265    0.2140
   38.280    0.1962
   38.295    0.2675
   38.310    0.2854
   38.325    0.2675
   38.340    0.1962
   38.355    0.2854
   38.370    0.2854
   38.385    0.2854
   38.400    0.2675
   38.415    0.2675
   38.430    0.2497
   38.445    0.2675
   38.460    0.1962
   38.475    0.2675
   38.490    0.3210
   38.505    0.2854
   38.520    0.3032
   38.535    0.2497
   38.550    0.2854
   38.565    0.3210
   38.580    0.2319
   38.595    0.1962
   38.610    0.3032
   38.625    0.2497
   38.640    0.2497
   38.655    0.2319
   38.670    0.2319
   38.685    0.3210
   38.700    0.3210
   38.715    0.3032
   38.730    0.2497
   38.745    0.3210
   38.760    0.3210
   38.775    0.2675
   38.790    0.1962
   38.805    0.2854
   38.820    0.2675
   38.835    0.2140
   38.850    0.2140
   38.865    0.3389
   38.880    0.3032
   38.895    0.3032
   38.910    0.1962
   38.925    0.2675
   38.940    0.2319
   38.955    0.2497
   38.970    0.3210
   38.985    0.3210
   39.000    0.2497
   39.015    0.3032
   39.030    0.2675
   39.045    0.2497
   39.060    0.2854
   39.075    0.3210
   39.090    0.3389
   39.105    0.3210
   39.120    0.3567
   39.135    0.3389
   39.150    0.2854
   39.165    0.2140
   39.180    0.1962
   39.195    0.1962
   39.210    0.2319
   39.225    0.2675
   39.240    0.2497
   39.255    0.3567
   39.270    0.1962
   39.285    0.2854
   39.300    0.3210
   39.315    0.3389
   39.330    0.3032
   39.345    0.3032
   39.360    0.2497
   39.375    0.1962
   39.390    0.1962
   39.405    0.2675
   39.420    0.3032
   39.435    0.2140
   39.450    0.2140
   39.465    0.3924
   39.480    0.3567
   39.495    0.2319
   39.510    0.1605
   39.525    0.2675
   39.540    0.3032
   39.555    0.3389
   39.570    0.2675
   39.585    0.2497
   39.600    0.2854
   39.615    0.2675
   39.630    0.2319
   39.645    0.2854
   39.660    0.2497
   39.675    0.2319
   39.690    0.1070
   39.705    0.2319
   39.720    0.1783
   39.735    0.2854
   39.750    0.2854
   39.765    0.2497
   39.780    0.3032
   39.795    0.2319
   39.810    0.2140
   39.825    0.3032
   39.840    0.2675
   39.855    0.2319
   39.870    0.2319
   39.885    0.3032
   39.900    0.2497
   39.915    0.3389
   39.930    0.3924
   39.945    0.2675
   39.960    0.2854
   39.975    0.2497
   39.990    0.3032
