    1.500    9.1600
    1.515    9.2242
    1.530    9.0851
    1.545    9.1386
    1.560    9.2028
    1.575    8.7212
    1.590    8.7105
    1.605    8.4216
    1.620    8.1434
    1.635    8.1862
    1.650    7.8866
    1.665    7.4692
    1.680    7.6512
    1.695    7.8545
    1.710    7.7582
    1.725    7.7154
    1.740    7.4157
    1.755    7.2659
    1.770    7.0305
    1.785    6.7951
    1.800    6.6239
    1.815    6.8700
    1.830    7.0305
    1.845    6.4741
    1.860    6.8058
    1.875    6.3991
    1.890    6.3884
    1.905    6.2386
    1.920    6.2493
    1.935    5.9069
    1.950    6.1316
    1.965    5.9711
    1.980    5.9390
    1.995    6.0032
    2.010    5.7892
    2.025    5.7999
    2.040    5.7036
    2.055    6.3456
    2.070    5.5859
    2.085    5.2434
    2.100    5.3933
    2.115    5.5645
    2.130    5.3077
    2.145    5.2970
    2.160    5.1150
    2.175    5.1792
    2.190    5.0936
    2.205    4.7512
    2.220    5.3398
    2.235    4.8475
    2.250    5.0936
    2.265    5.1043
    2.280    5.1364
    2.295    4.4944
    2.310    4.6014
    2.325    4.6442
    2.340    4.6763
    2.355    4.7191
    2.370    4.7940
    2.385    4.6335
    2.400    4.6121
    2.415    4.9117
    2.430    4.6014
    2.445    4.6977
    2.460    4.7405
    2.475    4.6442
    2.490    4.5479
    2.505    4.3446
    2.520    4.3553
    2.535    4.1413
    2.550    4.3767
    2.565    4.6121
    2.580    4.4837
    2.595    4.2055
    2.610    4.2911
    2.625    4.4730
    2.640    4.4409
    2.655    4.0770
    2.670    4.2269
    2.685    3.9914
    2.700    4.1734
    2.715    4.0449
    2.730    3.9807
    2.745    4.3232
    2.760    3.9165
    2.775    4.3125
    2.790    4.1841
    2.805    4.5158
    2.820    4.3018
    2.835    4.0877
    2.850    4.0770
    2.865    4.1627
    2.880    3.8416
    2.895    4.5372
    2.910    4.7405
    2.925    4.3553
    2.940    4.3553
    2.955    4.7191
    2.970    4.6442
    2.985    4.3553
    3.000    4.4409
    3.015    4.3553
    3.030    4.5586
    3.045    4.2483
    3.060    4.6335
    3.075    4.6014
    3.090    4.7405
    3.105    4.8475
    3.120    4.7726
    3.135    4.8903
    3.150    4.7512
    3.165    4.7084
    3.180    4.8582
    3.195    5.0401
    3.210    5.0829
    3.225    5.3612
    3.240    5.2220
    3.255    5.2327
    3.270    5.4147
    3.285    5.2327
    3.300    5.1150
    3.315    5.1792
    3.330    5.7892
    3.345    6.0674
    3.360    6.0032
    3.375    6.4098
    3.390    6.5811
    3.405    6.4633
    3.420    6.3670
    3.435    6.7416
    3.450    6.9556
    3.465    7.0091
    3.480    6.9342
    3.495    6.7737
    3.510    7.2017
    3.525    7.7582
    3.540    8.1434
    3.555    8.1220
    3.570    8.0471
    3.585    8.2076
    3.600    8.5500
    3.615    9.4810
    3.630    9.3098
    3.645    9.1386
    3.660    9.7913
    3.675   10.3478
    3.690   10.4762
    3.705   11.3430
    3.720   11.5784
    3.735   11.7496
    3.750   12.4131
    3.765   12.4773
    3.780   13.4938
    3.795   13.9647
    3.810   14.3071
    3.825   14.9064
    3.840   15.9872
    3.855   16.1049
    3.870   17.7742
    3.885   19.1867
    3.900   19.5934
    3.915   21.6051
    3.930   22.9963
    3.945   23.5848
    3.960   24.7512
    3.975   26.0888
    3.990   26.1958
    4.005   27.8331
    4.020   28.5714
    4.035   28.0257
    4.050   27.3515
    4.065   24.8154
    4.080   23.0284
    4.095   21.6586
    4.110   19.6576
    4.125   18.4591
    4.140   17.3569
    4.155   16.6292
    4.170   15.9872
    4.185   15.8052
    4.200   16.0942
    4.215   15.6233
    4.230   16.3617
    4.245   16.8325
    4.260   16.9823
    4.275   18.1059
    4.290   18.9192
    4.305   19.7432
    4.320   21.0273
    4.335   22.6431
    4.350   22.7608
    4.365   24.2376
    4.380   26.2493
    4.395   27.8866
    4.410   30.4013
    4.425   32.6699
    4.440   36.0621
    4.455   39.1439
    4.470   43.8951
    4.485   50.3692
    4.500   60.6528
    4.515   74.2964
    4.530   83.0177
    4.545   67.7261
    4.560   37.7635
    4.575   18.6945
    4.590   11.7496
    4.605   10.2087
    4.620    9.0958
    4.635    8.9246
    4.650    9.0209
    4.665    8.6891
    4.680    8.5393
    4.695    9.0316
    4.710    9.3954
    4.725    9.4489
    4.740    9.5452
    4.755    9.2563
    4.770    9.0102
    4.785    9.3419
    4.800    9.3954
    4.815    9.5024
    4.830    8.9139
    4.845    9.0530
    4.860    9.0423
    4.875    8.6570
    4.890    8.7426
    4.905    8.1434
    4.920    7.9187
    4.935    8.0899
    4.950    7.4157
    4.965    7.3943
    4.980    6.7844
    4.995    6.8593
    5.010    6.4526
    5.025    6.1744
    5.040    5.7785
    5.055    5.5645
    5.070    5.0615
    5.085    4.8368
    5.100    4.3125
    5.115    4.0449
    5.130    4.1627
    5.145    3.9058
    5.160    3.3815
    5.175    3.6383
    5.190    3.4243
    5.205    3.2959
    5.220    3.0284
    5.235    2.9428
    5.250    2.7715
    5.265    2.5682
    5.280    2.4398
    5.295    2.6431
    5.310    2.4826
    5.325    2.2151
    5.340    2.1295
    5.355    2.1081
    5.370    2.1509
    5.385    2.1616
    5.400    2.0332
    5.415    2.0867
    5.430    1.9262
    5.445    1.9904
    5.460    2.0118
    5.475    1.7657
    5.490    1.6907
    5.505    1.7764
    5.520    1.8834
    5.535    1.7657
    5.550    2.0225
    5.565    1.8513
    5.580    1.8513
    5.595    1.8513
    5.610    1.8299
    5.625    1.7549
    5.640    1.6372
    5.655    1.6158
    5.670    1.7549
    5.685    1.8192
    5.700    1.8727
    5.715    1.8085
    5.730    1.7978
    5.745    1.7014
    5.760    1.5730
    5.775    1.5730
    5.790    1.6479
    5.805    1.8192
    5.820    1.8192
    5.835    1.6586
    5.850    1.6372
    5.865    1.7014
    5.880    1.6800
    5.895    2.0546
    5.910    1.9690
    5.925    1.7228
    5.940    1.8620
    5.955    2.0439
    5.970    1.9904
    5.985    1.9583
    6.000    2.1188
    6.015    2.0439
    6.030    2.0760
    6.045    2.4505
    6.060    2.3221
    6.075    2.3221
    6.090    2.3007
    6.105    2.7715
    6.120    2.8036
    6.135    2.8036
    6.150    2.7929
    6.165    3.2210
    6.180    3.2852
    6.195    3.3387
    6.210    3.4350
    6.225    4.0877
    6.240    4.2804
    6.255    4.4516
    6.270    4.7512
    6.285    4.6335
    6.300    4.9117
    6.315    5.7250
    6.330    6.3884
    6.345    7.2445
    6.360    8.6784
    6.375    9.2242
    6.390   11.2895
    6.405   13.4724
    6.420   13.9540
    6.435   10.4762
    6.450    5.6501
    6.465    2.8678
    6.480    1.9048
    6.495    1.6907
    6.510    1.4767
    6.525    1.2841
    6.540    1.4767
    6.555    1.2627
    6.570    1.2627
    6.585    1.3269
    6.600    1.2092
    6.615    1.0915
    6.630    1.2306
    6.645    1.3376
    6.660    1.1985
    6.675    1.2948
    6.690    1.1343
    6.705    1.1450
    6.720    1.2520
    6.735    1.4018
    6.750    1.1985
    6.765    1.1022
    6.780    1.2092
    6.795    1.2627
    6.810    1.2306
    6.825    1.1022
    6.840    1.0915
    6.855    1.1771
    6.870    1.1771
    6.885    1.0701
    6.900    1.0915
    6.915    1.0487
    6.930    1.0701
    6.945    1.0915
    6.960    1.1771
    6.975    1.0915
    6.990    1.0915
    7.005    1.1557
    7.020    1.1985
    7.035    1.3376
    7.050    1.0487
    7.065    1.2092
    7.080    1.2199
    7.095    1.0594
    7.110    1.1450
    7.125    1.1450
    7.140    1.1236
    7.155    1.1450
    7.170    1.0487
    7.185    1.0273
    7.200    1.1985
    7.215    1.0915
    7.230    0.8775
    7.245    1.0594
    7.260    1.1985
    7.275    1.1022
    7.290    1.0808
    7.305    1.1450
    7.320    1.0701
    7.335    1.0915
    7.350    1.1771
    7.365    1.3269
    7.380    1.0915
    7.395    1.1129
    7.410    1.1771
    7.425    1.1450
    7.440    1.0380
    7.455    1.1343
    7.470    1.0594
    7.485    1.2306
    7.500    1.3376
    7.515    1.1771
    7.530    1.1771
    7.545    1.0915
    7.560    1.0594
    7.575    1.2199
    7.590    1.2306
    7.605    1.2734
    7.620    1.4018
    7.635    1.2413
    7.650    1.3376
    7.665    1.4446
    7.680    1.3269
    7.695    1.6265
    7.710    1.6372
    7.725    1.8406
    7.740    1.6479
    7.755    1.7228
    7.770    1.7442
    7.785    1.7871
    7.800    2.0760
    7.815    2.4184
    7.830    2.4077
    7.845    2.6645
    7.860    2.8464
    7.875    2.5468
    7.890    2.3970
    7.905    2.1081
    7.920    2.0760
    7.935    2.1295
    7.950    2.0439
    7.965    2.0011
    7.980    2.1830
    7.995    2.5575
    8.010    2.5682
    8.025    2.7073
    8.040    2.9320
    8.055    2.9320
    8.070    3.1889
    8.085    3.0498
    8.100    2.8892
    8.115    2.6859
    8.130    2.5896
    8.145    2.3114
    8.160    2.1723
    8.175    2.0225
    8.190    1.7442
    8.205    1.5088
    8.220    1.4767
    8.235    1.4767
    8.250    1.3162
    8.265    1.3483
    8.280    1.3055
    8.295    1.3697
    8.310    1.2092
    8.325    1.2520
    8.340    1.1878
    8.355    1.2413
    8.370    1.0915
    8.385    0.9631
    8.400    1.2520
    8.415    1.2413
    8.430    1.0915
    8.445    1.0808
    8.460    1.0380
    8.475    0.9203
    8.490    1.1878
    8.505    1.1129
    8.520    1.0701
    8.535    1.1557
    8.550    1.0808
    8.565    1.1129
    8.580    1.1022
    8.595    1.2092
    8.610    1.0487
    8.625    1.1985
    8.640    1.1771
    8.655    1.0166
    8.670    1.0808
    8.685    1.1450
    8.700    1.1450
    8.715    1.2306
    8.730    1.1236
    8.745    1.1878
    8.760    1.1878
    8.775    1.2413
    8.790    1.1771
    8.805    1.3483
    8.820    1.3376
    8.835    1.6372
    8.850    1.5730
    8.865    1.4981
    8.880    1.6265
    8.895    1.8085
    8.910    1.7121
    8.925    1.8941
    8.940    2.1295
    8.955    2.4612
    8.970    2.2365
    8.985    2.3221
    9.000    2.4398
    9.015    2.7501
    9.030    3.1889
    9.045    3.7239
    9.060    4.0663
    9.075    4.8368
    9.090    5.2755
    9.105    3.9914
    9.120    2.7073
    9.135    1.8620
    9.150    1.4874
    9.165    1.3376
    9.180    1.2520
    9.195    1.1129
    9.210    1.0273
    9.225    1.0701
    9.240    1.3697
    9.255    1.1343
    9.270    1.4018
    9.285    1.3055
    9.300    1.2734
    9.315    1.4446
    9.330    1.3055
    9.345    1.3911
    9.360    1.3697
    9.375    1.2413
    9.390    1.3483
    9.405    1.3911
    9.420    1.3483
    9.435    1.2627
    9.450    1.4339
    9.465    1.4660
    9.480    1.4553
    9.495    1.4767
    9.510    1.5409
    9.525    1.4767
    9.540    1.4339
    9.555    1.2413
    9.570    1.3590
    9.585    1.3376
    9.600    1.3911
    9.615    1.5088
    9.630    1.4767
    9.645    1.5409
    9.660    1.7764
    9.675    1.4874
    9.690    1.5409
    9.705    1.4553
    9.720    1.4660
    9.735    1.5944
    9.750    1.5730
    9.765    1.5409
    9.780    1.4981
    9.795    1.3804
    9.810    1.5944
    9.825    1.6265
    9.840    1.7549
    9.855    1.7764
    9.870    1.5516
    9.885    1.4125
    9.900    1.5195
    9.915    1.4767
    9.930    1.3162
    9.945    1.5195
    9.960    1.4446
    9.975    1.4874
    9.990    1.4553
   10.005    1.6586
   10.020    1.4981
   10.035    1.4874
   10.050    1.5730
   10.065    1.4446
   10.080    1.7121
   10.095    1.5623
   10.110    1.6586
   10.125    1.6907
   10.140    1.9690
   10.155    1.9797
   10.170    1.9797
   10.185    1.7978
   10.200    1.3590
   10.215    1.2092
   10.230    1.2627
   10.245    0.9952
   10.260    1.0380
   10.275    1.1557
   10.290    1.1771
   10.305    1.0701
   10.320    1.0487
   10.335    1.1664
   10.350    0.8775
   10.365    0.9738
   10.380    1.0808
   10.395    0.8668
   10.410    0.8668
   10.425    1.0487
   10.440    1.0166
   10.455    1.0166
   10.470    0.8561
   10.485    0.8026
   10.500    0.8240
   10.515    0.9417
   10.530    1.0808
   10.545    0.9417
   10.560    0.8775
   10.575    1.0594
   10.590    0.9845
   10.605    0.8561
   10.620    0.9203
   10.635    0.8989
   10.650    1.0059
   10.665    1.1664
   10.680    0.9524
   10.695    0.9417
   10.710    1.0273
   10.725    0.8775
   10.740    1.2199
   10.755    1.1664
   10.770    0.9952
   10.785    0.9417
   10.800    0.9738
   10.815    1.1129
   10.830    1.1022
   10.845    1.0380
   10.860    1.1878
   10.875    1.3590
   10.890    1.3590
   10.905    1.3269
   10.920    1.3376
   10.935    1.4553
   10.950    1.5302
   10.965    1.7442
   10.980    1.8085
   10.995    1.9262
   11.010    2.3007
   11.025    2.3756
   11.040    2.6645
   11.055    3.0605
   11.070    3.2852
   11.085    3.9165
   11.100    4.8475
   11.115    5.4896
   11.130    6.0781
   11.145    5.9069
   11.160    5.1150
   11.175    3.1461
   11.190    1.8406
   11.205    1.2841
   11.220    1.1022
   11.235    1.0166
   11.250    1.0273
   11.265    0.9631
   11.280    0.8882
   11.295    0.9310
   11.310    0.8561
   11.325    0.8026
   11.340    0.8240
   11.355    0.8026
   11.370    0.8454
   11.385    0.7063
   11.400    0.7491
   11.415    0.7705
   11.430    0.7812
   11.445    0.7491
   11.460    0.8668
   11.475    0.8989
   11.490    0.9310
   11.505    0.8240
   11.520    0.8026
   11.535    0.8240
   11.550    0.8882
   11.565    0.8668
   11.580    0.7277
   11.595    0.7598
   11.610    0.8026
   11.625    0.8989
   11.640    0.8133
   11.655    0.8240
   11.670    0.7170
   11.685    0.8240
   11.700    0.9096
   11.715    1.0166
   11.730    0.9845
   11.745    1.1557
   11.760    0.9310
   11.775    0.8561
   11.790    0.9203
   11.805    0.9845
   11.820    0.8882
   11.835    0.8775
   11.850    0.9310
   11.865    0.9524
   11.880    1.0594
   11.895    1.0808
   11.910    1.2199
   11.925    1.1557
   11.940    1.6158
   11.955    1.6051
   11.970    1.8192
   11.985    1.8941
   12.000    2.0225
   12.015    2.3756
   12.030    2.8999
   12.045    2.2900
   12.060    2.1830
   12.075    1.8085
   12.090    1.1450
   12.105    1.0701
   12.120    0.8989
   12.135    0.8668
   12.150    1.0059
   12.165    1.0487
   12.180    0.9845
   12.195    0.9738
   12.210    0.9738
   12.225    0.9096
   12.240    0.7170
   12.255    0.9203
   12.270    1.1450
   12.285    0.9845
   12.300    0.8026
   12.315    0.8133
   12.330    0.7812
   12.345    0.8882
   12.360    0.9203
   12.375    0.8454
   12.390    0.7063
   12.405    0.8454
   12.420    0.9310
   12.435    0.9845
   12.450    0.7705
   12.465    0.8347
   12.480    0.7170
   12.495    0.7598
   12.510    0.6956
   12.525    0.7598
   12.540    0.8668
   12.555    0.8561
   12.570    0.8347
   12.585    0.9203
   12.600    0.8775
   12.615    0.8026
   12.630    0.8775
   12.645    0.8668
   12.660    0.8882
   12.675    0.9417
   12.690    0.7705
   12.705    1.0808
   12.720    1.1022
   12.735    1.0594
   12.750    1.2092
   12.765    1.0915
   12.780    1.1878
   12.795    1.5088
   12.810    1.6158
   12.825    1.7014
   12.840    2.1295
   12.855    2.2258
   12.870    2.4933
   12.885    2.3649
   12.900    1.8834
   12.915    1.3911
   12.930    0.9738
   12.945    0.9738
   12.960    0.7491
   12.975    0.9738
   12.990    0.7170
   13.005    0.7491
   13.020    0.7491
   13.035    0.8133
   13.050    0.6528
   13.065    0.7277
   13.080    0.8347
   13.095    0.8347
   13.110    0.7063
   13.125    0.7491
   13.140    0.7170
   13.155    0.9310
   13.170    0.6849
   13.185    0.6849
   13.200    0.8454
   13.215    0.9417
   13.230    0.8882
   13.245    0.7277
   13.260    0.8454
   13.275    0.8882
   13.290    0.8989
   13.305    0.7705
   13.320    0.7277
   13.335    0.6207
   13.350    0.6635
   13.365    0.7384
   13.380    0.7812
   13.395    0.9845
   13.410    0.9952
   13.425    0.8882
   13.440    0.9310
   13.455    0.8561
   13.470    0.7491
   13.485    0.9738
   13.500    1.1022
   13.515    1.0594
   13.530    1.1236
   13.545    1.3590
   13.560    1.4553
   13.575    1.5516
   13.590    1.6051
   13.605    1.8941
   13.620    2.1081
   13.635    2.4398
   13.650    2.5575
   13.665    2.3863
   13.680    2.4291
   13.695    1.7657
   13.710    1.1664
   13.725    1.0701
   13.740    0.8240
   13.755    0.7919
   13.770    0.7277
   13.785    0.7491
   13.800    0.6956
   13.815    0.8133
   13.830    0.8561
   13.845    0.7705
   13.860    0.8775
   13.875    0.8561
   13.890    0.7277
   13.905    0.8133
   13.920    0.8561
   13.935    0.7919
   13.950    0.7919
   13.965    0.7384
   13.980    0.7705
   13.995    0.9417
   14.010    0.8989
   14.025    0.8882
   14.040    0.7812
   14.055    0.8668
   14.070    0.6956
   14.085    0.8668
   14.100    0.8668
   14.115    0.7919
   14.130    0.6956
   14.145    0.8668
   14.160    0.8882
   14.175    0.8240
   14.190    0.7598
   14.205    0.7812
   14.220    1.0166
   14.235    0.7812
   14.250    0.8561
   14.265    1.0701
   14.280    0.9417
   14.295    0.9096
   14.310    0.9952
   14.325    1.0915
   14.340    1.2092
   14.355    1.0915
   14.370    1.1985
   14.385    1.3162
   14.400    1.2734
   14.415    0.9417
   14.430    1.1343
   14.445    1.1129
   14.460    0.8668
   14.475    0.7384
   14.490    0.8561
   14.505    0.8668
   14.520    0.8133
   14.535    1.0166
   14.550    0.9096
   14.565    0.8347
   14.580    0.7063
   14.595    0.7384
   14.610    0.7277
   14.625    0.8668
   14.640    0.8561
   14.655    0.9310
   14.670    0.9631
   14.685    0.7598
   14.700    0.9524
   14.715    0.9310
   14.730    0.7705
   14.745    0.8026
   14.760    0.8668
   14.775    0.8347
   14.790    0.8133
   14.805    0.9203
   14.820    0.8882
   14.835    0.9096
   14.850    0.8240
   14.865    0.9952
   14.880    0.8882
   14.895    1.0166
   14.910    1.0808
   14.925    0.8026
   14.940    0.9524
   14.955    0.9738
   14.970    0.9310
   14.985    0.8775
   15.000    1.1129
   15.015    1.3055
   15.030    1.3590
   15.045    1.5195
   15.060    1.5944
   15.075    1.9476
   15.090    2.2258
   15.105    2.1081
   15.120    2.0332
   15.135    1.7228
   15.150    1.2306
   15.165    1.0487
   15.180    1.0380
   15.195    0.9845
   15.210    0.8561
   15.225    0.7384
   15.240    0.8026
   15.255    0.7919
   15.270    0.8347
   15.285    0.7063
   15.300    0.8347
   15.315    0.7170
   15.330    0.8133
   15.345    0.9524
   15.360    0.8989
   15.375    0.8240
   15.390    0.7063
   15.405    0.8240
   15.420    0.7598
   15.435    0.7063
   15.450    0.7170
   15.465    0.7170
   15.480    0.6849
   15.495    0.8240
   15.510    0.9524
   15.525    0.7384
   15.540    0.6956
   15.555    0.8454
   15.570    0.7384
   15.585    0.9738
   15.600    0.8026
   15.615    0.7705
   15.630    0.7919
   15.645    0.8775
   15.660    0.9203
   15.675    1.0273
   15.690    1.1450
   15.705    1.0808
   15.720    1.0594
   15.735    1.2520
   15.750    1.3804
   15.765    1.4125
   15.780    1.1450
   15.795    1.1664
   15.810    1.0915
   15.825    0.9845
   15.840    0.8882
   15.855    0.9524
   15.870    0.8240
   15.885    0.7277
   15.900    0.8240
   15.915    0.7491
   15.930    0.7812
   15.945    0.7705
   15.960    0.7491
   15.975    0.8026
   15.990    0.6849
   16.005    0.6742
   16.020    0.7277
   16.035    0.8561
   16.050    0.7919
   16.065    0.7491
   16.080    0.7277
   16.095    0.9524
   16.110    0.8561
   16.125    0.8240
   16.140    0.8026
   16.155    0.9845
   16.170    0.8347
   16.185    0.7812
   16.200    0.7277
   16.215    0.8133
   16.230    0.8347
   16.245    0.9524
   16.260    0.8240
   16.275    0.9524
   16.290    1.0594
   16.305    1.0059
   16.320    1.0380
   16.335    1.1450
   16.350    1.1664
   16.365    1.3590
   16.380    1.5516
   16.395    1.7335
   16.410    1.6907
   16.425    1.8299
   16.440    1.7228
   16.455    1.7228
   16.470    1.3483
   16.485    1.0915
   16.500    0.8882
   16.515    0.7277
   16.530    0.7063
   16.545    0.6528
   16.560    0.7919
   16.575    0.7812
   16.590    0.6314
   16.605    0.5778
   16.620    0.6742
   16.635    0.7919
   16.650    0.8347
   16.665    0.8454
   16.680    0.8026
   16.695    0.6956
   16.710    0.8882
   16.725    0.7384
   16.740    0.6314
   16.755    0.6314
   16.770    0.7170
   16.785    0.5886
   16.800    0.9096
   16.815    0.6528
   16.830    0.6635
   16.845    0.6421
   16.860    0.7598
   16.875    0.6742
   16.890    0.6207
   16.905    0.7384
   16.920    0.6207
   16.935    0.7384
   16.950    0.6207
   16.965    0.7598
   16.980    0.6528
   16.995    0.7384
   17.010    0.7598
   17.025    0.6742
   17.040    0.6956
   17.055    0.8775
   17.070    0.6956
   17.085    0.7063
   17.100    0.7063
   17.115    0.7170
   17.130    0.6956
   17.145    0.6207
   17.160    0.7491
   17.175    0.6421
   17.190    0.7277
   17.205    0.7277
   17.220    0.7705
   17.235    0.7919
   17.250    0.8668
   17.265    0.7384
   17.280    0.6742
   17.295    0.6635
   17.310    0.7384
   17.325    0.8026
   17.340    0.7598
   17.355    0.8026
   17.370    0.7705
   17.385    0.6421
   17.400    0.5564
   17.415    0.7384
   17.430    0.6635
   17.445    0.6100
   17.460    0.8561
   17.475    0.6956
   17.490    0.5778
   17.505    0.7491
   17.520    0.6849
   17.535    0.6528
   17.550    0.7491
   17.565    0.7277
   17.580    0.7919
   17.595    0.8989
   17.610    0.8882
   17.625    0.9417
   17.640    0.9310
   17.655    0.9310
   17.670    1.0059
   17.685    1.0273
   17.700    1.0380
   17.715    0.7812
   17.730    0.7491
   17.745    0.6207
   17.760    0.6421
   17.775    0.5993
   17.790    0.7812
   17.805    0.7598
   17.820    0.6956
   17.835    0.6742
   17.850    0.6742
   17.865    0.6207
   17.880    0.7812
   17.895    0.7170
   17.910    0.7812
   17.925    0.6956
   17.940    0.6849
   17.955    0.7491
   17.970    0.7063
   17.985    0.6849
   18.000    0.6849
   18.015    0.7277
   18.030    0.6314
   18.045    0.6421
   18.060    0.6528
   18.075    0.7598
   18.090    0.7277
   18.105    0.7384
   18.120    0.6528
   18.135    0.5564
   18.150    0.8240
   18.165    0.8347
   18.180    0.6956
   18.195    0.7277
   18.210    0.6956
   18.225    0.6635
   18.240    0.7277
   18.255    0.6100
   18.270    0.7384
   18.285    0.7170
   18.300    0.8240
   18.315    0.7705
   18.330    0.6314
   18.345    0.5778
   18.360    0.7170
   18.375    0.7491
   18.390    0.7812
   18.405    0.8882
   18.420    0.7705
   18.435    0.9310
   18.450    0.8668
   18.465    0.8561
   18.480    0.7812
   18.495    0.7277
   18.510    0.6528
   18.525    0.6742
   18.540    0.6528
   18.555    0.8026
   18.570    0.7705
   18.585    0.7491
   18.600    0.7170
   18.615    0.7491
   18.630    0.7063
   18.645    0.8240
   18.660    0.7705
   18.675    0.8561
   18.690    0.9952
   18.705    0.8026
   18.720    0.8240
   18.735    0.8454
   18.750    0.9524
   18.765    0.8668
   18.780    1.0380
   18.795    0.9845
   18.810    0.8989
   18.825    1.0166
   18.840    0.9417
   18.855    0.8026
   18.870    0.8668
   18.885    0.7063
   18.900    0.7170
   18.915    0.6207
   18.930    0.7598
   18.945    0.6742
   18.960    0.7598
   18.975    0.6956
   18.990    0.7705
   19.005    0.8240
   19.020    0.6314
   19.035    0.6528
   19.050    0.7491
   19.065    0.7598
   19.080    0.7063
   19.095    0.7384
   19.110    0.7598
   19.125    0.7170
   19.140    0.8882
   19.155    0.7598
   19.170    0.6956
   19.185    0.6956
   19.200    0.6849
   19.215    0.7491
   19.230    0.7277
   19.245    0.7277
   19.260    0.8989
   19.275    0.7919
   19.290    0.9203
   19.305    0.8989
   19.320    1.0594
   19.335    1.0594
   19.350    1.0059
   19.365    1.0701
   19.380    0.9845
   19.395    1.0059
   19.410    0.9845
   19.425    0.6956
   19.440    0.7277
   19.455    0.7170
   19.470    0.6314
   19.485    0.8668
   19.500    0.6849
   19.515    0.7170
   19.530    0.7063
   19.545    0.6956
   19.560    0.6742
   19.575    0.6635
   19.590    0.6421
   19.605    0.6742
   19.620    0.7277
   19.635    0.6314
   19.650    0.7384
   19.665    0.7491
   19.680    0.6849
   19.695    0.5564
   19.710    0.6314
   19.725    0.8133
   19.740    0.8561
   19.755    0.9417
   19.770    0.7919
   19.785    0.8882
   19.800    0.9631
   19.815    0.9096
   19.830    1.0915
   19.845    1.2199
   19.860    1.4553
   19.875    1.3911
   19.890    1.6051
   19.905    1.2306
   19.920    1.3804
   19.935    1.4981
   19.950    1.1664
   19.965    0.9203
   19.980    0.8240
   19.995    0.8240
   20.010    0.8454
   20.025    0.7705
   20.040    0.7170
   20.055    0.8026
   20.070    0.9417
   20.085    0.5993
   20.100    0.5886
   20.115    0.7170
   20.130    0.7491
   20.145    0.6314
   20.160    0.6849
   20.175    0.6207
   20.190    0.7491
   20.205    0.7705
   20.220    0.8775
   20.235    0.6849
   20.250    0.6742
   20.265    0.7919
   20.280    0.9096
   20.295    0.7705
   20.310    0.7919
   20.325    0.7812
   20.340    0.8133
   20.355    0.8347
   20.370    0.8989
   20.385    0.7170
   20.400    0.8668
   20.415    0.8775
   20.430    0.9310
   20.445    0.8347
   20.460    0.7384
   20.475    0.7491
   20.490    0.8026
   20.505    0.8454
   20.520    0.5993
   20.535    0.6742
   20.550    0.7063
   20.565    0.6421
   20.580    0.7812
   20.595    0.7598
   20.610    0.6635
   20.625    0.7277
   20.640    0.6849
   20.655    0.7170
   20.670    0.7277
   20.685    0.6742
   20.700    0.6742
   20.715    0.5778
   20.730    0.7277
   20.745    0.6314
   20.760    0.7705
   20.775    0.6635
   20.790    0.5993
   20.805    0.5993
   20.820    0.8133
   20.835    0.7919
   20.850    0.8454
   20.865    0.7919
   20.880    0.8668
   20.895    0.8133
   20.910    0.7812
   20.925    0.9203
   20.940    0.8882
   20.955    0.8668
   20.970    0.6956
   20.985    0.9524
   21.000    0.7491
   21.015    0.7598
   21.030    0.5778
   21.045    0.6956
   21.060    0.8240
   21.075    0.7384
   21.090    0.7384
   21.105    0.9310
   21.120    0.6956
   21.135    0.6314
   21.150    0.6956
   21.165    0.5886
   21.180    0.5457
   21.195    0.6635
   21.210    0.7491
   21.225    0.7063
   21.240    0.6849
   21.255    0.7384
   21.270    0.7919
   21.285    0.9096
   21.300    0.6207
   21.315    0.6849
   21.330    0.7598
   21.345    0.7277
   21.360    0.7598
   21.375    0.8561
   21.390    0.9738
   21.405    1.0487
   21.420    1.0059
   21.435    0.9952
   21.450    0.9096
   21.465    0.8668
   21.480    0.9631
   21.495    0.8989
   21.510    0.7919
   21.525    0.6956
   21.540    0.7384
   21.555    0.6742
   21.570    0.7491
   21.585    0.5886
   21.600    0.7812
   21.615    0.6528
   21.630    0.7170
   21.645    0.6100
   21.660    0.5886
   21.675    0.6635
   21.690    0.6421
   21.705    0.5993
   21.720    0.6207
   21.735    0.7705
   21.750    0.7598
   21.765    0.6635
   21.780    0.6635
   21.795    0.7598
   21.810    0.7277
   21.825    0.5993
   21.840    0.7277
   21.855    0.6207
   21.870    0.7491
   21.885    0.7705
   21.900    0.7598
   21.915    0.7384
   21.930    0.7277
   21.945    0.7919
   21.960    0.8775
   21.975    0.8454
   21.990    0.7812
   22.005    0.7491
   22.020    0.7919
   22.035    0.7812
   22.050    0.7598
   22.065    0.6742
   22.080    0.6314
   22.095    0.6742
   22.110    0.7277
   22.125    0.6956
   22.140    0.6421
   22.155    0.7170
   22.170    0.5993
   22.185    0.6421
   22.200    0.6956
   22.215    0.6742
   22.230    0.6528
   22.245    0.7384
   22.260    0.6314
   22.275    0.7812
   22.290    0.6956
   22.305    0.6956
   22.320    0.6635
   22.335    0.6956
   22.350    0.5671
   22.365    0.6207
   22.380    0.6849
   22.395    0.7384
   22.410    0.6421
   22.425    0.6849
   22.440    0.7598
   22.455    0.7277
   22.470    0.7491
   22.485    0.8133
   22.500    0.7812
   22.515    0.6956
   22.530    0.6635
   22.545    0.7384
   22.560    0.8133
   22.575    0.7705
   22.590    0.6956
   22.605    0.7384
   22.620    0.7919
   22.635    0.7919
   22.650    0.6742
   22.665    0.6207
   22.680    0.7170
   22.695    0.8454
   22.710    0.9203
   22.725    0.8133
   22.740    0.8989
   22.755    0.9417
   22.770    0.8347
   22.785    0.9631
   22.800    1.0059
   22.815    1.0166
   22.830    1.1878
   22.845    0.9417
   22.860    0.9524
   22.875    1.1664
   22.890    1.0808
   22.905    1.0273
   22.920    0.9738
   22.935    0.9096
   22.950    0.8240
   22.965    0.7919
   22.980    0.8347
   22.995    0.6849
   23.010    0.6421
   23.025    0.8026
   23.040    0.8347
   23.055    0.6635
   23.070    0.8026
   23.085    0.7491
   23.100    0.8240
   23.115    0.6956
   23.130    0.6849
   23.145    0.7598
   23.160    0.7491
   23.175    0.9524
   23.190    0.9096
   23.205    0.8882
   23.220    0.8026
   23.235    0.8989
   23.250    0.6956
   23.265    0.8347
   23.280    0.8668
   23.295    0.8133
   23.310    0.9096
   23.325    0.8133
   23.340    0.8347
   23.355    0.7491
   23.370    0.7277
   23.385    0.9203
   23.400    0.8454
   23.415    0.7598
   23.430    0.7812
   23.445    0.8240
   23.460    1.0380
   23.475    0.8133
   23.490    0.6956
   23.505    0.6849
   23.520    0.9952
   23.535    0.9310
   23.550    0.8561
   23.565    0.8561
   23.580    0.8454
   23.595    0.7705
   23.610    0.8989
   23.625    0.7919
   23.640    0.9524
   23.655    0.9310
   23.670    1.0273
   23.685    1.1343
   23.700    1.1878
   23.715    1.1557
   23.730    1.4018
   23.745    1.5195
   23.760    1.5302
   23.775    1.3590
   23.790    1.3376
   23.805    1.4018
   23.820    1.3590
   23.835    1.2413
   23.850    0.9738
   23.865    0.8668
   23.880    0.7491
   23.895    0.6956
   23.910    0.6635
   23.925    0.8240
   23.940    0.8133
   23.955    0.7919
   23.970    0.8775
   23.985    0.8775
   24.000    0.6849
   24.015    0.6742
   24.030    0.6528
   24.045    0.8454
   24.060    0.8882
   24.075    0.9096
   24.090    0.8133
   24.105    0.9096
   24.120    0.8133
   24.135    0.8133
   24.150    0.7384
   24.165    0.7919
   24.180    0.9845
   24.195    0.9096
   24.210    0.7491
   24.225    0.6421
   24.240    0.7491
   24.255    0.8347
   24.270    0.7170
   24.285    0.8454
   24.300    0.8989
   24.315    0.9096
   24.330    0.8882
   24.345    0.8454
   24.360    0.8561
   24.375    0.9631
   24.390    0.7277
   24.405    0.6956
   24.420    0.7705
   24.435    0.6849
   24.450    0.8775
   24.465    0.8454
   24.480    0.8561
   24.495    0.8240
   24.510    0.8775
   24.525    0.8454
   24.540    0.6849
   24.555    0.8454
   24.570    0.7812
   24.585    0.7919
   24.600    0.8133
   24.615    0.8775
   24.630    0.8561
   24.645    0.7384
   24.660    0.6956
   24.675    0.7919
   24.690    0.8347
   24.705    0.7491
   24.720    0.7812
   24.735    0.7598
   24.750    0.8454
   24.765    0.8026
   24.780    0.7384
   24.795    0.8347
   24.810    0.7919
   24.825    0.8026
   24.840    0.8454
   24.855    0.8454
   24.870    0.6956
   24.885    0.8133
   24.900    0.9096
   24.915    0.7277
   24.930    0.7491
   24.945    0.6849
   24.960    0.7170
   24.975    0.8347
   24.990    0.8561
   25.005    0.8133
   25.020    0.8347
   25.035    0.7384
   25.050    0.7384
   25.065    0.7812
   25.080    0.8240
   25.095    0.8026
   25.110    0.8454
   25.125    0.8133
   25.140    0.7598
   25.155    0.7705
   25.170    0.9096
   25.185    0.7812
   25.200    0.8133
   25.215    0.7919
   25.230    0.8561
   25.245    0.8240
   25.260    0.8240
   25.275    0.8347
   25.290    0.8347
   25.305    0.7705
   25.320    0.8454
   25.335    0.7705
   25.350    0.7598
   25.365    0.8454
   25.380    0.8882
   25.395    0.8882
   25.410    0.7491
   25.425    0.8561
   25.440    1.1129
   25.455    0.9524
   25.470    1.0273
   25.485    1.0487
   25.500    0.9417
   25.515    0.9417
   25.530    1.1450
   25.545    1.0808
   25.560    0.9845
   25.575    0.8989
   25.590    0.9203
   25.605    0.7919
   25.620    0.6314
   25.635    0.9203
   25.650    0.7812
   25.665    0.8240
   25.680    0.9203
   25.695    0.8347
   25.710    0.6635
   25.725    0.8026
   25.740    0.7919
   25.755    0.8668
   25.770    0.7812
   25.785    0.8240
   25.800    0.7812
   25.815    0.8668
   25.830    0.9310
   25.845    1.0380
   25.860    0.8240
   25.875    0.9738
   25.890    0.9203
   25.905    0.8240
   25.920    0.9096
   25.935    0.9417
   25.950    0.8989
   25.965    0.7812
   25.980    0.7919
   25.995    0.9203
   26.010    0.9096
   26.025    0.7598
   26.040    0.7598
   26.055    0.9310
   26.070    0.8240
   26.085    0.8775
   26.100    0.7919
   26.115    0.7491
   26.130    0.6528
   26.145    0.8882
   26.160    0.9417
   26.175    0.9096
   26.190    0.9096
   26.205    0.9738
   26.220    0.9845
   26.235    1.0166
   26.250    0.9952
   26.265    1.1343
   26.280    1.2734
   26.295    1.2841
   26.310    1.4446
   26.325    1.5088
   26.340    1.5837
   26.355    1.4125
   26.370    1.2092
   26.385    1.2627
   26.400    1.1022
   26.415    1.0594
   26.430    0.9417
   26.445    0.7919
   26.460    1.0166
   26.475    0.9631
   26.490    0.7812
   26.505    0.7063
   26.520    0.7812
   26.535    0.8561
   26.550    0.8561
   26.565    0.8240
   26.580    0.7919
   26.595    0.8133
   26.610    1.0059
   26.625    1.0059
   26.640    1.0380
   26.655    1.0487
   26.670    1.1878
   26.685    1.2520
   26.700    1.4018
   26.715    1.4660
   26.730    1.5409
   26.745    1.2627
   26.760    1.4125
   26.775    1.3590
   26.790    1.3911
   26.805    1.0273
   26.820    0.9952
   26.835    0.8561
   26.850    0.9845
   26.865    0.7705
   26.880    0.8668
   26.895    0.8775
   26.910    0.7598
   26.925    0.8026
   26.940    0.8347
   26.955    0.7170
   26.970    0.7812
   26.985    0.7491
   27.000    0.6849
   27.015    0.7919
   27.030    0.7812
   27.045    0.8026
   27.060    0.8882
   27.075    0.9417
   27.090    1.0701
   27.105    0.8775
   27.120    1.0273
   27.135    0.9310
   27.150    0.9952
   27.165    1.0273
   27.180    1.0487
   27.195    0.9738
   27.210    0.8561
   27.225    0.8668
   27.240    0.8026
   27.255    0.8133
   27.270    0.7063
   27.285    0.8561
   27.300    0.7384
   27.315    0.7384
   27.330    0.7277
   27.345    0.8561
   27.360    0.7170
   27.375    0.6421
   27.390    0.6956
   27.405    0.8026
   27.420    0.6849
   27.435    0.6742
   27.450    0.8026
   27.465    0.7063
   27.480    0.7170
   27.495    0.8133
   27.510    0.7491
   27.525    0.7812
   27.540    0.8561
   27.555    0.7491
   27.570    0.7919
   27.585    0.6528
   27.600    0.7705
   27.615    0.8668
   27.630    0.7705
   27.645    0.8347
   27.660    0.6742
   27.675    0.7491
   27.690    0.6956
   27.705    0.7491
   27.720    0.7705
   27.735    0.8775
   27.750    0.7384
   27.765    0.8240
   27.780    0.7919
   27.795    0.8240
   27.810    0.7491
   27.825    0.7170
   27.840    0.7491
   27.855    0.7598
   27.870    0.9631
   27.885    1.0380
   27.900    1.0059
   27.915    0.7812
   27.930    0.8989
   27.945    0.8561
   27.960    0.8347
   27.975    0.6742
   27.990    0.7705
   28.005    0.8561
   28.020    0.6956
   28.035    0.7063
   28.050    0.7384
   28.065    0.6421
   28.080    0.6849
   28.095    0.8133
   28.110    0.8775
   28.125    0.6635
   28.140    0.5886
   28.155    0.7170
   28.170    0.8668
   28.185    0.7277
   28.200    0.7063
   28.215    0.6956
   28.230    0.7812
   28.245    0.7384
   28.260    0.8454
   28.275    0.7384
   28.290    0.6421
   28.305    0.6849
   28.320    0.6742
   28.335    0.6528
   28.350    0.7170
   28.365    0.9952
   28.380    0.8133
   28.395    0.7277
   28.410    0.7063
   28.425    0.6314
   28.440    0.7705
   28.455    0.7705
   28.470    0.7919
   28.485    0.6635
   28.500    0.6528
   28.515    0.7491
   28.530    0.9524
   28.545    0.8347
   28.560    0.9310
   28.575    0.8347
   28.590    0.7491
   28.605    0.7063
   28.620    0.8133
   28.635    0.8026
   28.650    0.8989
   28.665    0.9310
   28.680    0.7812
   28.695    0.8561
   28.710    0.8133
   28.725    0.7705
   28.740    0.6956
   28.755    0.6849
   28.770    0.7491
   28.785    0.6100
   28.800    0.6314
   28.815    0.8240
   28.830    0.7598
   28.845    0.6849
   28.860    0.7491
   28.875    0.6635
   28.890    0.7812
   28.905    0.7812
   28.920    0.6100
   28.935    0.6207
   28.950    0.8347
   28.965    0.8347
   28.980    0.7170
   28.995    0.6956
   29.010    0.8347
   29.025    0.7384
   29.040    0.8240
   29.055    0.6100
   29.070    0.7384
   29.085    0.9310
   29.100    0.7919
   29.115    0.7384
   29.130    0.6849
   29.145    0.7705
   29.160    0.7598
   29.175    0.7170
   29.190    0.6956
   29.205    0.7063
   29.220    0.5778
   29.235    0.6207
   29.250    0.6528
   29.265    0.9310
   29.280    0.8026
   29.295    0.6742
   29.310    0.6421
   29.325    0.7277
   29.340    0.7277
   29.355    0.6742
   29.370    0.7812
   29.385    0.7919
   29.400    0.7598
   29.415    1.0059
   29.430    0.7063
   29.445    0.8882
   29.460    0.8989
   29.475    0.8026
   29.490    0.5778
   29.505    0.6956
   29.520    0.6742
   29.535    0.6956
   29.550    0.6956
   29.565    0.5778
   29.580    0.5778
   29.595    0.6314
   29.610    0.7491
   29.625    0.7277
   29.640    0.7063
   29.655    0.7598
   29.670    0.8026
   29.685    0.6956
   29.700    0.7384
   29.715    0.6421
   29.730    0.6421
   29.745    0.6635
   29.760    0.8668
   29.775    0.7598
   29.790    0.7384
   29.805    0.7598
   29.820    0.7491
   29.835    0.6635
   29.850    0.7384
   29.865    0.7491
   29.880    0.6100
   29.895    0.9096
   29.910    0.6849
   29.925    0.7170
   29.940    0.6100
   29.955    0.6742
   29.970    0.7277
   29.985    0.6956
   30.000    0.8133
   30.015    0.8240
   30.030    0.8561
   30.045    0.8347
   30.060    0.7919
   30.075    0.8775
   30.090    0.8989
   30.105    1.1450
   30.120    1.0915
   30.135    1.0273
   30.150    1.1557
   30.165    1.1022
   30.180    1.0273
   30.195    1.0915
   30.210    1.0701
   30.225    0.8561
   30.240    0.8668
   30.255    0.6314
   30.270    0.6742
   30.285    0.5778
   30.300    0.6207
   30.315    0.5993
   30.330    0.6635
   30.345    0.7277
   30.360    0.7491
   30.375    0.6742
   30.390    0.6207
   30.405    0.6421
   30.420    0.6742
   30.435    0.5886
   30.450    0.6100
   30.465    0.5886
   30.480    0.6849
   30.495    0.6314
   30.510    0.6742
   30.525    0.6528
   30.540    0.7812
   30.555    0.6635
   30.570    0.6207
   30.585    0.6421
   30.600    0.7277
   30.615    0.7277
   30.630    0.7919
   30.645    0.6100
   30.660    0.6421
   30.675    0.6421
   30.690    0.5671
   30.705    0.5671
   30.720    0.6100
   30.735    0.5457
   30.750    0.4922
   30.765    0.7384
   30.780    0.8240
   30.795    0.6742
   30.810    0.7919
   30.825    0.7705
   30.840    0.7063
   30.855    0.7919
   30.870    0.5886
   30.885    0.6956
   30.900    0.8133
   30.915    0.7491
   30.930    0.6849
   30.945    0.6528
   30.960    0.6956
   30.975    0.6956
   30.990    0.6207
   31.005    0.6528
   31.020    0.6207
   31.035    0.7170
   31.050    0.5886
   31.065    0.6207
   31.080    0.6742
   31.095    0.5886
   31.110    0.6421
   31.125    0.5136
   31.140    0.6528
   31.155    0.5993
   31.170    0.5993
   31.185    0.6528
   31.200    0.6849
   31.215    0.5993
   31.230    0.4601
   31.245    0.6100
   31.260    0.5886
   31.275    0.5564
   31.290    0.6742
   31.305    0.6100
   31.320    0.5993
   31.335    0.6314
   31.350    0.7491
   31.365    0.5993
   31.380    0.5136
   31.395    0.6528
   31.410    0.7491
   31.425    0.5671
   31.440    0.5350
   31.455    0.7598
   31.470    0.7170
   31.485    0.8454
   31.500    0.8775
   31.515    0.7812
   31.530    0.8775
   31.545    0.7705
   31.560    0.7063
   31.575    0.8026
   31.590    0.7705
   31.605    0.8240
   31.620    0.7277
   31.635    0.6849
   31.650    0.6528
   31.665    0.5243
   31.680    0.6314
   31.695    0.7063
   31.710    0.6314
   31.725    0.6849
   31.740    0.6100
   31.755    0.5564
   31.770    0.5457
   31.785    0.5671
   31.800    0.5350
   31.815    0.5778
   31.830    0.4815
   31.845    0.6956
   31.860    0.6635
   31.875    0.5243
   31.890    0.5993
   31.905    0.6421
   31.920    0.6956
   31.935    0.5886
   31.950    0.6528
   31.965    0.6742
   31.980    0.5778
   31.995    0.6421
   32.010    0.6207
   32.025    0.5564
   32.040    0.5029
   32.055    0.5564
   32.070    0.7598
   32.085    0.6635
   32.100    0.6635
   32.115    0.6207
   32.130    0.6635
   32.145    0.6314
   32.160    0.7170
   32.175    0.6742
   32.190    0.6421
   32.205    0.6849
   32.220    0.7491
   32.235    0.6849
   32.250    0.5564
   32.265    0.7063
   32.280    0.6528
   32.295    0.6314
   32.310    0.7170
   32.325    0.5350
   32.340    0.5993
   32.355    0.5457
   32.370    0.5243
   32.385    0.6100
   32.400    0.6421
   32.415    0.6956
   32.430    0.5886
   32.445    0.5243
   32.460    0.5136
   32.475    0.6100
   32.490    0.7170
   32.505    0.6956
   32.520    0.7919
   32.535    0.8133
   32.550    0.6635
   32.565    0.5993
   32.580    0.5993
   32.595    0.5886
   32.610    0.5778
   32.625    0.6742
   32.640    0.7705
   32.655    0.5778
   32.670    0.6207
   32.685    0.7170
   32.700    0.6100
   32.715    0.4815
   32.730    0.5671
   32.745    0.5886
   32.760    0.6528
   32.775    0.6421
   32.790    0.5993
   32.805    0.7277
   32.820    0.6314
   32.835    0.7705
   32.850    0.8668
   32.865    0.9417
   32.880    0.8561
   32.895    0.9738
   32.910    0.8989
   32.925    0.9524
   32.940    0.9417
   32.955    0.7277
   32.970    0.8133
   32.985    0.7384
   33.000    0.6100
   33.015    0.7277
   33.030    0.6742
   33.045    0.5564
   33.060    0.5778
   33.075    0.5564
   33.090    0.6528
   33.105    0.6207
   33.120    0.5671
   33.135    0.7170
   33.150    0.7919
   33.165    0.6421
   33.180    0.6635
   33.195    0.7170
   33.210    0.7277
   33.225    0.6421
   33.240    0.6849
   33.255    0.7812
   33.270    0.8347
   33.285    0.8668
   33.300    0.7812
   33.315    0.6849
   33.330    0.6742
   33.345    0.5778
   33.360    0.5029
   33.375    0.6528
   33.390    0.5457
   33.405    0.6742
   33.420    0.5457
   33.435    0.6100
   33.450    0.5671
   33.465    0.6421
   33.480    0.5886
   33.495    0.5243
   33.510    0.5778
   33.525    0.6207
   33.540    0.4601
   33.555    0.5886
   33.570    0.5778
   33.585    0.5350
   33.600    0.5350
   33.615    0.5778
   33.630    0.5778
   33.645    0.6528
   33.660    0.5886
   33.675    0.5243
   33.690    0.6207
   33.705    0.5993
   33.720    0.5136
   33.735    0.4815
   33.750    0.5778
   33.765    0.5886
   33.780    0.5671
   33.795    0.4494
   33.810    0.4815
   33.825    0.5886
   33.840    0.5778
   33.855    0.4815
   33.870    0.6742
   33.885    0.5778
   33.900    0.7170
   33.915    0.6421
   33.930    0.5778
   33.945    0.6635
   33.960    0.5993
   33.975    0.6207
   33.990    0.6421
   34.005    0.5993
   34.020    0.6421
   34.035    0.5778
   34.050    0.5350
   34.065    0.3745
   34.080    0.4708
   34.095    0.6207
   34.110    0.6100
   34.125    0.5136
   34.140    0.6742
   34.155    0.7063
   34.170    0.6528
   34.185    0.6528
   34.200    0.6100
   34.215    0.6421
   34.230    0.5886
   34.245    0.5457
   34.260    0.7277
   34.275    0.6207
   34.290    0.6314
   34.305    0.6528
   34.320    0.5778
   34.335    0.6207
   34.350    0.5671
   34.365    0.5243
   34.380    0.5564
   34.395    0.5243
   34.410    0.5993
   34.425    0.5350
   34.440    0.5243
   34.455    0.5778
   34.470    0.4494
   34.485    0.5671
   34.500    0.5993
   34.515    0.4708
   34.530    0.5350
   34.545    0.5778
   34.560    0.5350
   34.575    0.5993
   34.590    0.4173
   34.605    0.5243
   34.620    0.5564
   34.635    0.5029
   34.650    0.4815
   34.665    0.5564
   34.680    0.5243
   34.695    0.5564
   34.710    0.6207
   34.725    0.5457
   34.740    0.5778
   34.755    0.5136
   34.770    0.5029
   34.785    0.5457
   34.800    0.5886
   34.815    0.5243
   34.830    0.6528
   34.845    0.6314
   34.860    0.5993
   34.875    0.5886
   34.890    0.6849
   34.905    0.5778
   34.920    0.6100
   34.935    0.5457
   34.950    0.5671
   34.965    0.5993
   34.980    0.6528
   34.995    0.5671
   35.010    0.6528
   35.025    0.4922
   35.040    0.4922
   35.055    0.5671
   35.070    0.5136
   35.085    0.6528
   35.100    0.6528
   35.115    0.5778
   35.130    0.6100
   35.145    0.6314
   35.160    0.6314
   35.175    0.5136
   35.190    0.6742
   35.205    0.5993
   35.220    0.5778
   35.235    0.6421
   35.250    0.6528
   35.265    0.4708
   35.280    0.5671
   35.295    0.5886
   35.310    0.4922
   35.325    0.5029
   35.340    0.5243
   35.355    0.6100
   35.370    0.5136
   35.385    0.5029
   35.400    0.6100
   35.415    0.5350
   35.430    0.5457
   35.445    0.5993
   35.460    0.5243
   35.475    0.5671
   35.490    0.5671
   35.505    0.6100
   35.520    0.7491
   35.535    0.5564
   35.550    0.5671
   35.565    0.6100
   35.580    0.5886
   35.595    0.5564
   35.610    0.4280
   35.625    0.5136
   35.640    0.6635
   35.655    0.4922
   35.670    0.5993
   35.685    0.6207
   35.700    0.6207
   35.715    0.5564
   35.730    0.4922
   35.745    0.5350
   35.760    0.6742
   35.775    0.6635
   35.790    0.6207
   35.805    0.4280
   35.820    0.5136
   35.835    0.5671
   35.850    0.5671
   35.865    0.6100
   35.880    0.4494
   35.895    0.5029
   35.910    0.5350
   35.925    0.5564
   35.940    0.5671
   35.955    0.5350
   35.970    0.5778
   35.985    0.4387
   36.000    0.5564
   36.015    0.6314
   36.030    0.5671
   36.045    0.4601
   36.060    0.6100
   36.075    0.6956
   36.090    0.6207
   36.105    0.5243
   36.120    0.5457
   36.135    0.4387
   36.150    0.4601
   36.165    0.4601
   36.180    0.4601
   36.195    0.4387
   36.210    0.4922
   36.225    0.5350
   36.240    0.5778
   36.255    0.4494
   36.270    0.4494
   36.285    0.5993
   36.300    0.5029
   36.315    0.5136
   36.330    0.5136
   36.345    0.4922
   36.360    0.5136
   36.375    0.4173
   36.390    0.4601
   36.405    0.5457
   36.420    0.5029
   36.435    0.4280
   36.450    0.4815
   36.465    0.4280
   36.480    0.5778
   36.495    0.5243
   36.510    0.5564
   36.525    0.4815
   36.540    0.5993
   36.555    0.5136
   36.570    0.5350
   36.585    0.5886
   36.600    0.5671
   36.615    0.4922
   36.630    0.6421
   36.645    0.5671
   36.660    0.5671
   36.675    0.5350
   36.690    0.4922
   36.705    0.7812
   36.720    0.7277
   36.735    0.5886
   36.750    0.5136
   36.765    0.5993
   36.780    0.5778
   36.795    0.5671
   36.810    0.5350
   36.825    0.5778
   36.840    0.5136
   36.855    0.5136
   36.870    0.5778
   36.885    0.5243
   36.900    0.5029
   36.915    0.4387
   36.930    0.5029
   36.945    0.5778
   36.960    0.5778
   36.975    0.4387
   36.990    0.5778
   37.005    0.5029
   37.020    0.4815
   37.035    0.5243
   37.050    0.5671
   37.065    0.4601
   37.080    0.5029
   37.095    0.5243
   37.110    0.5029
   37.125    0.4601
   37.140    0.4387
   37.155    0.4494
   37.170    0.4815
   37.185    0.3852
   37.200    0.4494
   37.215    0.6207
   37.230    0.5457
   37.245    0.4280
   37.260    0.5993
   37.275    0.5136
   37.290    0.5778
   37.305    0.4708
   37.320    0.4601
   37.335    0.5671
   37.350    0.4922
   37.365    0.3959
   37.380    0.4922
   37.395    0.4601
   37.410    0.4280
   37.425    0.5457
   37.440    0.4815
   37.455    0.3852
   37.470    0.3424
   37.485    0.3852
   37.500    0.4494
   37.515    0.6207
   37.530    0.5457
   37.545    0.5457
   37.560    0.5350
   37.575    0.4280
   37.590    0.4815
   37.605    0.5457
   37.620    0.4601
   37.635    0.4066
   37.650    0.3852
   37.665    0.5671
   37.680    0.3959
   37.695    0.4066
   37.710    0.4066
   37.725    0.4066
   37.740    0.3852
   37.755    0.4601
   37.770    0.4494
   37.785    0.4494
   37.800    0.4601
   37.815    0.4922
   37.830    0.4173
   37.845    0.4280
   37.860    0.4494
   37.875    0.5564
   37.890    0.5243
   37.905    0.5029
   37.920    0.5243
   37.935    0.5350
   37.950    0.4066
   37.965    0.4066
   37.980    0.4922
   37.995    0.5350
   38.010    0.4922
   38.025    0.4066
   38.040    0.3852
   38.055    0.3959
   38.070    0.4280
   38.085    0.4280
   38.100    0.4066
   38.115    0.3317
   38.130    0.5671
   38.145    0.6100
   38.160    0.5350
   38.175    0.4922
   38.190    0.5243
   38.205    0.5886
   38.220    0.4173
   38.235    0.4922
   38.250    0.5243
   38.265    0.4387
   38.280    0.5350
   38.295    0.5029
   38.310    0.3745
   38.325    0.3531
   38.340    0.4066
   38.355    0.3852
   38.370    0.5564
   38.385    0.4387
   38.400    0.4815
   38.415    0.3959
   38.430    0.5350
   38.445    0.5243
   38.460    0.4494
   38.475    0.4922
   38.490    0.5243
   38.505    0.5136
   38.520    0.5457
   38.535    0.5564
   38.550    0.4280
   38.565    0.4173
   38.580    0.4173
   38.595    0.4601
   38.610    0.4494
   38.625    0.4173
   38.640    0.3745
   38.655    0.4173
   38.670    0.3852
   38.685    0.3852
   38.700    0.4708
   38.715    0.4066
   38.730    0.4601
   38.745    0.5886
   38.760    0.4601
   38.775    0.3210
   38.790    0.3852
   38.805    0.4494
   38.820    0.4280
   38.835    0.3852
   38.850    0.3317
   38.865    0.3745
   38.880    0.3317
   38.895    0.4922
   38.910    0.3959
   38.925    0.4066
   38.940    0.4173
   38.955    0.4494
   38.970    0.5136
   38.985    0.4280
   39.000    0.4066
   39.015    0.4922
   39.030    0.4066
   39.045    0.4922
   39.060    0.3852
   39.075    0.3531
   39.090    0.4280
   39.105    0.4387
   39.120    0.4922
   39.135    0.3745
   39.150    0.4173
   39.165    0.4066
   39.180    0.4280
   39.195    0.4066
   39.210    0.4387
   39.225    0.4708
   39.240    0.4708
   39.255    0.4387
   39.270    0.4815
   39.285    0.4815
   39.300    0.4173
   39.315    0.4280
   39.330    0.5350
   39.345    0.5029
   39.360    0.5457
   39.375    0.4387
   39.390    0.4280
   39.405    0.4494
   39.420    0.5243
   39.435    0.4708
   39.450    0.3638
   39.465    0.3959
   39.480    0.4708
   39.495    0.3852
   39.510    0.4173
   39.525    0.4387
   39.540    0.4280
   39.555    0.5029
   39.570    0.5350
   39.585    0.5029
   39.600    0.5029
   39.615    0.5457
   39.630    0.4708
   39.645    0.5029
   39.660    0.4815
   39.675    0.5029
   39.690    0.3317
   39.705    0.4280
   39.720    0.5029
   39.735    0.3531
   39.750    0.3424
   39.765    0.2889
   39.780    0.4494
   39.795    0.5243
   39.810    0.5243
   39.825    0.4173
   39.840    0.3959
   39.855    0.4066
   39.870    0.3745
   39.885    0.4601
   39.900    0.4066
   39.915    0.3959
   39.930    0.3852
   39.945    0.4066
   39.960    0.3638
   39.975    0.4066
   39.990    0.4601
