    1.500   16.3419
    1.515   16.5526
    1.530   16.1489
    1.545   16.6930
    1.560   15.8680
    1.575   15.3239
    1.590   15.3063
    1.605   14.9026
    1.620   14.7095
    1.635   14.5515
    1.650   14.8499
    1.665   14.9903
    1.680   13.9196
    1.695   14.0951
    1.710   14.1478
    1.725   14.2707
    1.740   13.1297
    1.755   12.9191
    1.770   13.2175
    1.785   13.4106
    1.800   12.6733
    1.815   13.5510
    1.830   13.0244
    1.845   12.4627
    1.860   11.4973
    1.875   12.3398
    1.890   12.1643
    1.905   12.8840
    1.920   12.2872
    1.935   12.5154
    1.950   12.9717
    1.965   12.7084
    1.980   12.4451
    1.995   12.4276
    2.010   11.5675
    2.025   11.8308
    2.040   11.1111
    2.055   11.5148
    2.070   10.8829
    2.085   11.0585
    2.100   10.6723
    2.115   10.8654
    2.130   11.1638
    2.145   10.8127
    2.160   10.5670
    2.175   10.3739
    2.190   10.5845
    2.205   10.9356
    2.220   10.1983
    2.235   10.4441
    2.250   10.4441
    2.265   10.5494
    2.280   10.5494
    2.295   10.6372
    2.310    9.9351
    2.325   10.3037
    2.340   10.1632
    2.355    9.7420
    2.370   10.6372
    2.385    9.6015
    2.400    9.8297
    2.415   10.1457
    2.430    9.3909
    2.445    9.3558
    2.460    9.5313
    2.475   10.2510
    2.490    9.7595
    2.505    9.5489
    2.520    9.3909
    2.535    9.7946
    2.550    9.2680
    2.565    9.6015
    2.580    9.6367
    2.595    8.8819
    2.610    9.4611
    2.625    9.3207
    2.640    9.1276
    2.655    9.8122
    2.670    9.1803
    2.685    9.0925
    2.700    9.7946
    2.715    9.4436
    2.730    9.0750
    2.745    9.0925
    2.760    8.5835
    2.775    8.9872
    2.790    9.0398
    2.805    9.6367
    2.820    8.9170
    2.835    8.9345
    2.850    9.0750
    2.865    8.8292
    2.880    8.8819
    2.895    9.6367
    2.910    9.1276
    2.925    9.4260
    2.940    9.0925
    2.955    8.7414
    2.970    9.1978
    2.985    9.1101
    3.000    9.4260
    3.015    9.1803
    3.030    9.3734
    3.045    9.7771
    3.060    9.5313
    3.075    9.3734
    3.090    9.5489
    3.105    9.4962
    3.120    9.5489
    3.135    9.3031
    3.150    9.5664
    3.165    9.8999
    3.180    9.5138
    3.195   10.1808
    3.210    9.8473
    3.225   10.2510
    3.240   10.4265
    3.255   10.5494
    3.270   10.8303
    3.285   11.1462
    3.300   10.5670
    3.315   10.4968
    3.330   10.9882
    3.345   11.1462
    3.360   11.7606
    3.375   11.6904
    3.390   12.1819
    3.405   11.6553
    3.420   11.4271
    3.435   11.9888
    3.450   12.8840
    3.465   12.3574
    3.480   13.7090
    3.495   13.6914
    3.510   13.4808
    3.525   14.7446
    3.540   14.1654
    3.555   14.2707
    3.570   14.9026
    3.585   15.7978
    3.600   16.3068
    3.615   16.5350
    3.630   17.7111
    3.645   18.2552
    3.660   18.7292
    3.675   19.3611
    3.690   20.7478
    3.705   21.2217
    3.720   22.4504
    3.735   24.0477
    3.750   25.1536
    3.765   27.6812
    3.780   29.4014
    3.795   30.6126
    3.810   32.8418
    3.825   36.7386
    3.840   40.1790
    3.855   42.3907
    3.870   41.7764
    3.885   38.6870
    3.900   33.7897
    3.915   27.8392
    3.930   22.9770
    3.945   18.8696
    3.960   16.6579
    3.975   14.0600
    3.990   12.5154
    4.005   11.1989
    4.020   10.7425
    4.035   10.7249
    4.050   10.1106
    4.065    9.5840
    4.080    8.6186
    4.095    9.0750
    4.110    8.7941
    4.125    8.8117
    4.140    8.0569
    4.155    8.2675
    4.170    8.2675
    4.185    8.0218
    4.200    8.0218
    4.215    8.4430
    4.230    8.1797
    4.245    7.9516
    4.260    8.0393
    4.275    7.7585
    4.290    7.8111
    4.305    7.9340
    4.320    8.1622
    4.335    7.6356
    4.350    7.6883
    4.365    7.6356
    4.380    7.7234
    4.395    8.3377
    4.410    8.0042
    4.425    8.1622
    4.440    8.3904
    4.455    7.7585
    4.470    7.7409
    4.485    7.2319
    4.500    7.6707
    4.515    7.9691
    4.530    8.1973
    4.545    8.1797
    4.560    8.2500
    4.575    7.6707
    4.590    7.9340
    4.605    8.0569
    4.620    8.0920
    4.635    7.9340
    4.650    8.1446
    4.665    8.8117
    4.680    8.1622
    4.695    7.7234
    4.710    7.9867
    4.725    8.1797
    4.740    8.1797
    4.755    8.1622
    4.770    8.3026
    4.785    8.3377
    4.800    7.9691
    4.815    8.4255
    4.830    8.3377
    4.845    7.3899
    4.860    8.5133
    4.875    8.4957
    4.890    8.5659
    4.905    9.0223
    4.920    8.8292
    4.935    8.5308
    4.950    8.5835
    4.965    8.6186
    4.980    8.4255
    4.995    8.7239
    5.010    8.0569
    5.025    7.7409
    5.040    8.7941
    5.055    9.2329
    5.070    8.7941
    5.085    8.0569
    5.100    9.2329
    5.115    9.0047
    5.130    9.1452
    5.145    9.1101
    5.160    9.4611
    5.175    9.0574
    5.190    9.2680
    5.205    8.6537
    5.220    8.6010
    5.235    9.5489
    5.250   10.0404
    5.265    9.4611
    5.280    9.7946
    5.295    9.7420
    5.310    9.6542
    5.325   10.4265
    5.340   10.9005
    5.355   11.3217
    5.370   10.9707
    5.385   11.1638
    5.400   11.7255
    5.415   11.9186
    5.430   12.3047
    5.445   12.1292
    5.460   12.8664
    5.475   14.0074
    5.490   13.5685
    5.505   13.8143
    5.520   13.7616
    5.535   12.3749
    5.550   11.5148
    5.565   10.4265
    5.580   10.0930
    5.595   10.1808
    5.610    9.5664
    5.625    9.0223
    5.640    9.2505
    5.655    8.5308
    5.670    8.3904
    5.685    8.7063
    5.700    8.6537
    5.715    8.3904
    5.730    8.8643
    5.745    8.6537
    5.760    8.4079
    5.775    8.0920
    5.790    7.9340
    5.805    8.1622
    5.820    7.9516
    5.835    8.0218
    5.850    7.6707
    5.865    7.8638
    5.880    7.8287
    5.895    7.5654
    5.910    7.4776
    5.925    7.7760
    5.940    7.5829
    5.955    7.4952
    5.970    8.0920
    5.985    7.3723
    6.000    7.4250
    6.015    7.7409
    6.030    7.3196
    6.045    7.1792
    6.060    7.4601
    6.075    7.1617
    6.090    7.3021
    6.105    6.9510
    6.120    6.9861
    6.135    7.0563
    6.150    7.2319
    6.165    7.5654
    6.180    6.8808
    6.195    6.7930
    6.210    7.1792
    6.225    7.1090
    6.240    7.2494
    6.255    7.2494
    6.270    6.8633
    6.285    6.6877
    6.300    7.1090
    6.315    6.8808
    6.330    7.1441
    6.345    6.9861
    6.360    7.2143
    6.375    7.3372
    6.390    7.1090
    6.405    6.8633
    6.420    7.4250
    6.435    6.6526
    6.450    6.6000
    6.465    7.0915
    6.480    7.1266
    6.495    6.9335
    6.510    7.1441
    6.525    6.9686
    6.540    7.1441
    6.555    7.6180
    6.570    6.8457
    6.585    6.8633
    6.600    6.7579
    6.615    6.8282
    6.630    7.3723
    6.645    7.0037
    6.660    7.2494
    6.675    7.4952
    6.690    7.5478
    6.705    7.3547
    6.720    6.9510
    6.735    6.8282
    6.750    7.2670
    6.765    7.4425
    6.780    7.3547
    6.795    6.7228
    6.810    6.7228
    6.825    6.3893
    6.840    6.8808
    6.855    6.7930
    6.870    6.4244
    6.885    6.6702
    6.900    6.5473
    6.915    6.3016
    6.930    6.5122
    6.945    6.6000
    6.960    6.6702
    6.975    6.7579
    6.990    6.7755
    7.005    6.5298
    7.020    6.6175
    7.035    6.3893
    7.050    6.3542
    7.065    6.3718
    7.080    6.7053
    7.095    6.5649
    7.110    6.5122
    7.125    6.3367
    7.140    6.5473
    7.155    6.3367
    7.170    6.7053
    7.185    6.1436
    7.200    5.7223
    7.215    5.7223
    7.230    6.4244
    7.245    6.1085
    7.260    6.1260
    7.275    6.0909
    7.290    6.1085
    7.305    6.4420
    7.320    6.0207
    7.335    6.2138
    7.350    6.0734
    7.365    6.1436
    7.380    5.8452
    7.395    5.5994
    7.410    6.3542
    7.425    6.6877
    7.440    5.9154
    7.455    5.8978
    7.470    6.0909
    7.485    5.9505
    7.500    5.9856
    7.515    6.1611
    7.530    5.9856
    7.545    6.3016
    7.560    6.0558
    7.575    6.0207
    7.590    6.0207
    7.605    5.7048
    7.620    6.3542
    7.635    6.4244
    7.650    5.8978
    7.665    6.1436
    7.680    6.4069
    7.695    6.0909
    7.710    6.4595
    7.725    6.4771
    7.740    6.5122
    7.755    6.6175
    7.770    6.6702
    7.785    7.3547
    7.800    7.3196
    7.815    7.1441
    7.830    6.8282
    7.845    6.7755
    7.860    6.2138
    7.875    6.7228
    7.890    6.1611
    7.905    5.9154
    7.920    5.9329
    7.935    5.5292
    7.950    5.8452
    7.965    5.9505
    7.980    5.6872
    7.995    5.7223
    8.010    5.7925
    8.025    5.5819
    8.040    5.2484
    8.055    5.2484
    8.070    5.3361
    8.085    5.4590
    8.100    5.6345
    8.115    5.4239
    8.130    6.1611
    8.145    6.0558
    8.160    5.7750
    8.175    5.6872
    8.190    5.6872
    8.205    5.3361
    8.220    5.2659
    8.235    5.3537
    8.250    5.6697
    8.265    6.0909
    8.280    6.0207
    8.295    5.5643
    8.310    5.9505
    8.325    5.8627
    8.340    5.8978
    8.355    5.4415
    8.370    5.7399
    8.385    5.7925
    8.400    5.4941
    8.415    5.5117
    8.430    5.4590
    8.445    5.4239
    8.460    5.3712
    8.475    5.6521
    8.490    5.7750
    8.505    5.9681
    8.520    5.9856
    8.535    5.4064
    8.550    5.5117
    8.565    5.2133
    8.580    5.7750
    8.595    6.1260
    8.610    6.0909
    8.625    5.9856
    8.640    5.5117
    8.655    5.7925
    8.670    6.2489
    8.685    5.9681
    8.700    5.7750
    8.715    5.7399
    8.730    6.0032
    8.745    5.7750
    8.760    6.1436
    8.775    5.7223
    8.790    5.6872
    8.805    5.6345
    8.820    6.1787
    8.835    5.7048
    8.850    5.4064
    8.865    5.6521
    8.880    5.1255
    8.895    5.5468
    8.910    5.4415
    8.925    5.7574
    8.940    5.7925
    8.955    5.3712
    8.970    5.3361
    8.985    5.1782
    9.000    5.7223
    9.015    5.6697
    9.030    5.8276
    9.045    5.8627
    9.060    5.8276
    9.075    5.3537
    9.090    5.2133
    9.105    5.3888
    9.120    5.3186
    9.135    5.3361
    9.150    5.3361
    9.165    5.3361
    9.180    5.3537
    9.195    5.3010
    9.210    5.5819
    9.225    5.6872
    9.240    5.7048
    9.255    5.8101
    9.270    5.6170
    9.285    5.6521
    9.300    5.1957
    9.315    5.6345
    9.330    5.8803
    9.345    6.3542
    9.360    5.7925
    9.375    5.8452
    9.390    5.8978
    9.405    5.5643
    9.420    5.6872
    9.435    6.3016
    9.450    6.0383
    9.465    6.9335
    9.480    6.7755
    9.495    6.8633
    9.510    6.9159
    9.525    7.3196
    9.540    7.4250
    9.555    7.3021
    9.570    7.1090
    9.585    7.5829
    9.600    7.2319
    9.615    6.3016
    9.630    6.3893
    9.645    5.9154
    9.660    5.9681
    9.675    5.5117
    9.690    5.5468
    9.705    5.7223
    9.720    5.6521
    9.735    5.7399
    9.750    5.7399
    9.765    5.8101
    9.780    5.3361
    9.795    5.1957
    9.810    5.2659
    9.825    5.8276
    9.840    5.5643
    9.855    5.6521
    9.870    5.6697
    9.885    5.6521
    9.900    5.4064
    9.915    5.1606
    9.930    5.2835
    9.945    5.4064
    9.960    5.3712
    9.975    5.6345
    9.990    5.1606
   10.005    5.3888
   10.020    5.7574
   10.035    5.3010
   10.050    5.5292
   10.065    5.4415
   10.080    5.8101
   10.095    5.7048
   10.110    6.0383
   10.125    5.3186
   10.140    6.1787
   10.155    6.2665
   10.170    5.8276
   10.185    6.1962
   10.200    5.9505
   10.215    6.1260
   10.230    6.2313
   10.245    6.5122
   10.260    6.4595
   10.275    6.3191
   10.290    5.8803
   10.305    5.9505
   10.320    5.8978
   10.335    6.2489
   10.350    6.7579
   10.365    6.4420
   10.380    6.1085
   10.395    5.3712
   10.410    5.9505
   10.425    5.3888
   10.440    5.8627
   10.455    5.6697
   10.470    5.6170
   10.485    5.7574
   10.500    4.9851
   10.515    4.9149
   10.530    5.2133
   10.545    5.9681
   10.560    5.3888
   10.575    5.4590
   10.590    5.4239
   10.605    5.5468
   10.620    5.5117
   10.635    5.5994
   10.650    5.9505
   10.665    5.8276
   10.680    5.7048
   10.695    5.4064
   10.710    5.4064
   10.725    5.9329
   10.740    5.8803
   10.755    5.4941
   10.770    5.5819
   10.785    5.5819
   10.800    5.5468
   10.815    6.0032
   10.830    5.5468
   10.845    5.3010
   10.860    5.4239
   10.875    5.7223
   10.890    5.7399
   10.905    5.4064
   10.920    5.6521
   10.935    5.5819
   10.950    5.7399
   10.965    5.9154
   10.980    5.8276
   10.995    6.0207
   11.010    5.9681
   11.025    6.3191
   11.040    6.3367
   11.055    6.4420
   11.070    6.3542
   11.085    6.4595
   11.100    5.8101
   11.115    5.8803
   11.130    5.9681
   11.145    6.1260
   11.160    6.0207
   11.175    5.7574
   11.190    5.7048
   11.205    5.7048
   11.220    5.8101
   11.235    5.3537
   11.250    5.4766
   11.265    5.5468
   11.280    5.3888
   11.295    5.0904
   11.310    5.4590
   11.325    5.5468
   11.340    5.6521
   11.355    5.2308
   11.370    5.4590
   11.385    5.1957
   11.400    5.4941
   11.415    5.5819
   11.430    5.9154
   11.445    5.7223
   11.460    5.4590
   11.475    5.3712
   11.490    5.4415
   11.505    5.7574
   11.520    5.9681
   11.535    5.4590
   11.550    5.7750
   11.565    5.5117
   11.580    5.5994
   11.595    5.9505
   11.610    5.8978
   11.625    5.6170
   11.640    5.3712
   11.655    5.7750
   11.670    6.4771
   11.685    6.0032
   11.700    6.1260
   11.715    6.0734
   11.730    6.6702
   11.745    6.1611
   11.760    6.1085
   11.775    5.5819
   11.790    5.9154
   11.805    5.6697
   11.820    5.3010
   11.835    5.3888
   11.850    5.6170
   11.865    5.5292
   11.880    5.5819
   11.895    5.6521
   11.910    5.3888
   11.925    5.2133
   11.940    5.2308
   11.955    5.1782
   11.970    4.8271
   11.985    5.2835
   12.000    5.3010
   12.015    5.6345
   12.030    5.2484
   12.045    5.2308
   12.060    5.4415
   12.075    5.5468
   12.090    5.3186
   12.105    5.3186
   12.120    4.8271
   12.135    4.7744
   12.150    5.1431
   12.165    5.4590
   12.180    5.0377
   12.195    5.2484
   12.210    4.8271
   12.225    5.2308
   12.240    5.3888
   12.255    5.2308
   12.270    5.0728
   12.285    5.1782
   12.300    4.9675
   12.315    4.7920
   12.330    5.0026
   12.345    5.0553
   12.360    5.2835
   12.375    5.1606
   12.390    5.9329
   12.405    5.8452
   12.420    5.0728
   12.435    5.5994
   12.450    5.5994
   12.465    5.1606
   12.480    5.1080
   12.495    4.9500
   12.510    5.3010
   12.525    4.9675
   12.540    4.4409
   12.555    5.1957
   12.570    4.9851
   12.585    4.7393
   12.600    4.9675
   12.615    5.1080
   12.630    5.4590
   12.645    5.0026
   12.660    5.2835
   12.675    5.6521
   12.690    5.2835
   12.705    5.0202
   12.720    5.1606
   12.735    5.1957
   12.750    5.3537
   12.765    5.1255
   12.780    4.9149
   12.795    5.0904
   12.810    4.8973
   12.825    4.8798
   12.840    5.2133
   12.855    5.3010
   12.870    4.8622
   12.885    4.9324
   12.900    5.2308
   12.915    5.0377
   12.930    5.1431
   12.945    5.9681
   12.960    5.9681
   12.975    5.5819
   12.990    5.8276
   13.005    5.5994
   13.020    5.5643
   13.035    5.7925
   13.050    5.6170
   13.065    4.9675
   13.080    5.0553
   13.095    5.1957
   13.110    5.0202
   13.125    5.3361
   13.140    5.1957
   13.155    4.8622
   13.170    4.9149
   13.185    4.8447
   13.200    5.0026
   13.215    5.0377
   13.230    4.9500
   13.245    4.8973
   13.260    4.7744
   13.275    4.8271
   13.290    5.3186
   13.305    5.2308
   13.320    5.0904
   13.335    5.3361
   13.350    5.0553
   13.365    4.8271
   13.380    4.9324
   13.395    4.8798
   13.410    4.8095
   13.425    5.2659
   13.440    5.1080
   13.455    5.0728
   13.470    5.0377
   13.485    4.7744
   13.500    5.3712
   13.515    5.3537
   13.530    5.4064
   13.545    5.6170
   13.560    5.1080
   13.575    5.0904
   13.590    4.8622
   13.605    5.1782
   13.620    5.4415
   13.635    4.8447
   13.650    5.1782
   13.665    5.2659
   13.680    4.7920
   13.695    5.0904
   13.710    5.3361
   13.725    5.0553
   13.740    5.4239
   13.755    5.1080
   13.770    5.0728
   13.785    5.0553
   13.800    5.7048
   13.815    5.4590
   13.830    5.5819
   13.845    5.5117
   13.860    5.2133
   13.875    4.8622
   13.890    5.0553
   13.905    5.2484
   13.920    4.8622
   13.935    5.2308
   13.950    5.1255
   13.965    5.2659
   13.980    5.4941
   13.995    5.2133
   14.010    5.3361
   14.025    5.4766
   14.040    5.0553
   14.055    5.5468
   14.070    5.8803
   14.085    6.0383
   14.100    5.7048
   14.115    5.5994
   14.130    5.9505
   14.145    6.0558
   14.160    5.5117
   14.175    5.3537
   14.190    5.3186
   14.205    5.5643
   14.220    5.6521
   14.235    5.3361
   14.250    4.9324
   14.265    5.3888
   14.280    5.2308
   14.295    5.2659
   14.310    5.4766
   14.325    5.4064
   14.340    5.3712
   14.355    5.5468
   14.370    5.5643
   14.385    5.4064
   14.400    4.9324
   14.415    4.9324
   14.430    5.1782
   14.445    4.8973
   14.460    5.4064
   14.475    5.4415
   14.490    5.2484
   14.505    5.0904
   14.520    4.8973
   14.535    5.0377
   14.550    5.0202
   14.565    5.3712
   14.580    5.5117
   14.595    5.2308
   14.610    5.3361
   14.625    5.3010
   14.640    5.0904
   14.655    5.1080
   14.670    5.4415
   14.685    5.4239
   14.700    5.2484
   14.715    4.7744
   14.730    4.8798
   14.745    5.1782
   14.760    5.1431
   14.775    5.2308
   14.790    5.4590
   14.805    5.2835
   14.820    5.5643
   14.835    5.4590
   14.850    5.3010
   14.865    4.9149
   14.880    5.1606
   14.895    5.2308
   14.910    5.2308
   14.925    4.7042
   14.940    5.2659
   14.955    5.6170
   14.970    5.1782
   14.985    4.7218
   15.000    4.7569
   15.015    4.7393
   15.030    5.1080
   15.045    4.9149
   15.060    5.0026
   15.075    5.3186
   15.090    4.9500
   15.105    4.8271
   15.120    4.9675
   15.135    4.9149
   15.150    4.9851
   15.165    5.5117
   15.180    5.2835
   15.195    5.2133
   15.210    4.8973
   15.225    4.6516
   15.240    5.3537
   15.255    4.9500
   15.270    4.9149
   15.285    5.2133
   15.300    5.0026
   15.315    4.7920
   15.330    4.8271
   15.345    4.8447
   15.360    5.3010
   15.375    5.0553
   15.390    5.2484
   15.405    5.1782
   15.420    5.1606
   15.435    5.3888
   15.450    4.6691
   15.465    4.5287
   15.480    4.6165
   15.495    5.0026
   15.510    4.6867
   15.525    5.2484
   15.540    5.2308
   15.555    5.1080
   15.570    5.4415
   15.585    4.8447
   15.600    4.9851
   15.615    4.9500
   15.630    4.5989
   15.645    4.8095
   15.660    5.2484
   15.675    4.8271
   15.690    4.9675
   15.705    4.8095
   15.720    4.6691
   15.735    4.8622
   15.750    4.7920
   15.765    5.2484
   15.780    4.8271
   15.795    4.9851
   15.810    4.5638
   15.825    5.0904
   15.840    5.4766
   15.855    5.1431
   15.870    4.6867
   15.885    4.9675
   15.900    5.2484
   15.915    5.2308
   15.930    4.9324
   15.945    4.7218
   15.960    4.7744
   15.975    5.3361
   15.990    5.0377
   16.005    5.0553
   16.020    4.6867
   16.035    4.8973
   16.050    5.0377
   16.065    5.0553
   16.080    4.5989
   16.095    4.8622
   16.110    4.8095
   16.125    5.2484
   16.140    5.3010
   16.155    5.3361
   16.170    5.1431
   16.185    5.0202
   16.200    4.9500
   16.215    4.9675
   16.230    5.1080
   16.245    5.0026
   16.260    4.8798
   16.275    4.4585
   16.290    4.8095
   16.305    5.1431
   16.320    5.5643
   16.335    4.8095
   16.350    5.3186
   16.365    4.8798
   16.380    4.9149
   16.395    5.1957
   16.410    5.0728
   16.425    5.1782
   16.440    5.3010
   16.455    4.9675
   16.470    5.1255
   16.485    4.9675
   16.500    5.1606
   16.515    4.9324
   16.530    4.6516
   16.545    5.2659
   16.560    5.4590
   16.575    5.3712
   16.590    5.5117
   16.605    4.8622
   16.620    5.1782
   16.635    5.1080
   16.650    4.8271
   16.665    5.0728
   16.680    4.9324
   16.695    4.6867
   16.710    4.9324
   16.725    4.5287
   16.740    4.9675
   16.755    5.1080
   16.770    5.2835
   16.785    5.0202
   16.800    4.9324
   16.815    5.5994
   16.830    5.5468
   16.845    5.2308
   16.860    4.9324
   16.875    4.6165
   16.890    4.7744
   16.905    4.5463
   16.920    4.7042
   16.935    5.1080
   16.950    5.2308
   16.965    5.4064
   16.980    4.6867
   16.995    5.1606
   17.010    5.0904
   17.025    5.0026
   17.040    4.8622
   17.055    5.5292
   17.070    5.1431
   17.085    5.1255
   17.100    4.9324
   17.115    5.3712
   17.130    5.5468
   17.145    5.1255
   17.160    5.2835
   17.175    5.0026
   17.190    4.9675
   17.205    4.9851
   17.220    5.0202
   17.235    5.6345
   17.250    4.7920
   17.265    5.4239
   17.280    4.8622
   17.295    5.4415
   17.310    5.1431
   17.325    4.7920
   17.340    4.7744
   17.355    4.6867
   17.370    4.6340
   17.385    4.7393
   17.400    4.8622
   17.415    4.7744
   17.430    4.8447
   17.445    5.1606
   17.460    5.1957
   17.475    5.0377
   17.490    5.0904
   17.505    4.8973
   17.520    5.1080
   17.535    4.8095
   17.550    5.0553
   17.565    5.3010
   17.580    4.9675
   17.595    4.9324
   17.610    5.0377
   17.625    4.8798
   17.640    5.1606
   17.655    4.8622
   17.670    5.1080
   17.685    5.1606
   17.700    5.1957
   17.715    5.2659
   17.730    4.6340
   17.745    4.7920
   17.760    5.0026
   17.775    4.9675
   17.790    4.7218
   17.805    4.7569
   17.820    5.1957
   17.835    5.4064
   17.850    4.8973
   17.865    5.0202
   17.880    5.0728
   17.895    4.8798
   17.910    5.1080
   17.925    5.0553
   17.940    5.1431
   17.955    4.8973
   17.970    5.3010
   17.985    4.7218
   18.000    4.7393
   18.015    4.7218
   18.030    4.7920
   18.045    4.8798
   18.060    4.9675
   18.075    5.0026
   18.090    5.3537
   18.105    4.8095
   18.120    4.7569
   18.135    4.8447
   18.150    5.0377
   18.165    4.7042
   18.180    4.4760
   18.195    4.9675
   18.210    4.7042
   18.225    4.9851
   18.240    4.9324
   18.255    4.7569
   18.270    4.9675
   18.285    5.4064
   18.300    5.1782
   18.315    4.9324
   18.330    5.0202
   18.345    5.4064
   18.360    5.0026
   18.375    5.0728
   18.390    4.8095
   18.405    4.8798
   18.420    5.2484
   18.435    5.0728
   18.450    5.3361
   18.465    5.1782
   18.480    5.0553
   18.495    4.8095
   18.510    5.1606
   18.525    5.2484
   18.540    5.2835
   18.555    5.2835
   18.570    4.8095
   18.585    5.2308
   18.600    5.1431
   18.615    5.2133
   18.630    4.9851
   18.645    4.9324
   18.660    4.8447
   18.675    5.1782
   18.690    5.1782
   18.705    5.0728
   18.720    4.9851
   18.735    5.0202
   18.750    4.6691
   18.765    4.6165
   18.780    4.6867
   18.795    4.8622
   18.810    4.9675
   18.825    5.3361
   18.840    5.2835
   18.855    5.0553
   18.870    4.7218
   18.885    4.8447
   18.900    4.6516
   18.915    4.9675
   18.930    5.1255
   18.945    4.7569
   18.960    5.3712
   18.975    4.7393
   18.990    4.8622
   19.005    5.2308
   19.020    5.2659
   19.035    4.9500
   19.050    4.5989
   19.065    4.9324
   19.080    4.4760
   19.095    4.8447
   19.110    5.1080
   19.125    5.0026
   19.140    5.1080
   19.155    4.9500
   19.170    4.9675
   19.185    5.0553
   19.200    5.5117
   19.215    5.0553
   19.230    4.5989
   19.245    5.2308
   19.260    4.9675
   19.275    4.7744
   19.290    4.6691
   19.305    4.7042
   19.320    4.9851
   19.335    5.3186
   19.350    4.7920
   19.365    4.9149
   19.380    4.8798
   19.395    5.2308
   19.410    4.9675
   19.425    4.7920
   19.440    4.6867
   19.455    4.8095
   19.470    4.9149
   19.485    5.3361
   19.500    4.8447
   19.515    4.8095
   19.530    5.0026
   19.545    4.8447
   19.560    4.9500
   19.575    4.9324
   19.590    5.1080
   19.605    4.8271
   19.620    4.7393
   19.635    5.1431
   19.650    5.0728
   19.665    4.9324
   19.680    5.2484
   19.695    4.9851
   19.710    4.7218
   19.725    5.0377
   19.740    4.7920
   19.755    5.0202
   19.770    4.9149
   19.785    4.6691
   19.800    5.0904
   19.815    4.6516
   19.830    4.9851
   19.845    4.7393
   19.860    4.9324
   19.875    5.0553
   19.890    5.1957
   19.905    5.0202
   19.920    4.9851
   19.935    5.0904
   19.950    5.5468
   19.965    5.1431
   19.980    5.1782
   19.995    5.5994
   20.010    5.1080
   20.025    4.7042
   20.040    4.7218
   20.055    4.6165
   20.070    4.8095
   20.085    5.2835
   20.100    5.2133
   20.115    4.8095
   20.130    4.4585
   20.145    4.9500
   20.160    4.7569
   20.175    4.8095
   20.190    5.0553
   20.205    4.7218
   20.220    4.7920
   20.235    4.8447
   20.250    4.5287
   20.265    4.5814
   20.280    4.7393
   20.295    4.8798
   20.310    4.7042
   20.325    4.7569
   20.340    4.7744
   20.355    5.0728
   20.370    5.1431
   20.385    5.2659
   20.400    5.3537
   20.415    5.3010
   20.430    5.1431
   20.445    4.5989
   20.460    5.0026
   20.475    5.1957
   20.490    5.4415
   20.505    5.2484
   20.520    5.2308
   20.535    5.2308
   20.550    5.1606
   20.565    4.7920
   20.580    5.1606
   20.595    5.0553
   20.610    5.0728
   20.625    5.0553
   20.640    4.9851
   20.655    4.8095
   20.670    4.4234
   20.685    4.7920
   20.700    4.5989
   20.715    4.6165
   20.730    5.0553
   20.745    4.7393
   20.760    4.9324
   20.775    4.6691
   20.790    4.9500
   20.805    4.9324
   20.820    4.6867
   20.835    4.6867
   20.850    5.0026
   20.865    4.9149
   20.880    4.7744
   20.895    4.8973
   20.910    5.2659
   20.925    4.7393
   20.940    4.6516
   20.955    4.6516
   20.970    4.8271
   20.985    5.1255
   21.000    4.4760
   21.015    4.6867
   21.030    5.0728
   21.045    4.4760
   21.060    4.4760
   21.075    4.5814
   21.090    5.0202
   21.105    5.0904
   21.120    5.0026
   21.135    4.9500
   21.150    4.9500
   21.165    4.9675
   21.180    4.8798
   21.195    4.8447
   21.210    4.8447
   21.225    4.6516
   21.240    4.2127
   21.255    4.5638
   21.270    4.8973
   21.285    4.6691
   21.300    4.5638
   21.315    4.8973
   21.330    4.5638
   21.345    5.1606
   21.360    5.2659
   21.375    5.0377
   21.390    4.7920
   21.405    5.2484
   21.420    4.8973
   21.435    4.8622
   21.450    5.2133
   21.465    4.8095
   21.480    4.9324
   21.495    4.9675
   21.510    4.3883
   21.525    4.6691
   21.540    5.0553
   21.555    4.8622
   21.570    4.6867
   21.585    4.4760
   21.600    5.0553
   21.615    4.9675
   21.630    4.8973
   21.645    4.9851
   21.660    4.5989
   21.675    5.1255
   21.690    5.4766
   21.705    5.2659
   21.720    4.9851
   21.735    4.5111
   21.750    4.7744
   21.765    4.7569
   21.780    4.4585
   21.795    4.3356
   21.810    4.7042
   21.825    5.1080
   21.840    5.0728
   21.855    4.5111
   21.870    4.9149
   21.885    4.9675
   21.900    5.0728
   21.915    5.3361
   21.930    5.1255
   21.945    5.2484
   21.960    5.2659
   21.975    4.4058
   21.990    4.7042
   22.005    4.9500
   22.020    5.1957
   22.035    5.0728
   22.050    4.4936
   22.065    4.3181
   22.080    4.6516
   22.095    5.1606
   22.110    4.8447
   22.125    4.7744
   22.140    4.5989
   22.155    4.7744
   22.170    4.8095
   22.185    4.5111
   22.200    4.5638
   22.215    4.3707
   22.230    5.0377
   22.245    4.9149
   22.260    4.5111
   22.275    4.5111
   22.290    4.9851
   22.305    4.9324
   22.320    4.3181
   22.335    4.3356
   22.350    4.2654
   22.365    4.8798
   22.380    4.8798
   22.395    4.5463
   22.410    4.6691
   22.425    4.4585
   22.440    4.5463
   22.455    4.5638
   22.470    4.8095
   22.485    4.6340
   22.500    4.8447
   22.515    4.9851
   22.530    4.7042
   22.545    4.6867
   22.560    4.6516
   22.575    4.6691
   22.590    5.3537
   22.605    4.8447
   22.620    5.4415
   22.635    5.5468
   22.650    5.3361
   22.665    4.8973
   22.680    4.8622
   22.695    4.7744
   22.710    4.7920
   22.725    4.7569
   22.740    4.3005
   22.755    4.4936
   22.770    4.6516
   22.785    5.0026
   22.800    4.4409
   22.815    4.5463
   22.830    4.9500
   22.845    4.5638
   22.860    4.6867
   22.875    4.6516
   22.890    4.6516
   22.905    5.0728
   22.920    5.1606
   22.935    5.3010
   22.950    4.7920
   22.965    4.5989
   22.980    4.9675
   22.995    4.9675
   23.010    5.2484
   23.025    4.6516
   23.040    4.8447
   23.055    4.8271
   23.070    5.2835
   23.085    5.0553
   23.100    4.4760
   23.115    4.8973
   23.130    4.8095
   23.145    4.6516
   23.160    4.4409
   23.175    4.4058
   23.190    4.1601
   23.205    4.6691
   23.220    4.4936
   23.235    4.5111
   23.250    4.3532
   23.265    5.0026
   23.280    4.9324
   23.295    4.6516
   23.310    4.9149
   23.325    4.9500
   23.340    4.2303
   23.355    4.7042
   23.370    5.1782
   23.385    4.6867
   23.400    4.6340
   23.415    4.4585
   23.430    4.2830
   23.445    4.5814
   23.460    4.7744
   23.475    4.3707
   23.490    4.7042
   23.505    4.7042
   23.520    4.7218
   23.535    4.5287
   23.550    4.2303
   23.565    4.4760
   23.580    4.5814
   23.595    4.3883
   23.610    4.5814
   23.625    4.6340
   23.640    4.3532
   23.655    4.7920
   23.670    5.0728
   23.685    4.5111
   23.700    4.5287
   23.715    4.0372
   23.730    4.0548
   23.745    4.5463
   23.760    4.6516
   23.775    4.2127
   23.790    4.2478
   23.805    4.3356
   23.820    4.3181
   23.835    4.5989
   23.850    4.5463
   23.865    4.3707
   23.880    4.5814
   23.895    4.3883
   23.910    4.1776
   23.925    3.9494
   23.940    4.7569
   23.955    4.4409
   23.970    4.3883
   23.985    4.4234
   24.000    4.4234
   24.015    4.2478
   24.030    3.9846
   24.045    4.5638
   24.060    4.5463
   24.075    4.5287
   24.090    4.0899
   24.105    4.4585
   24.120    4.8271
   24.135    4.3532
   24.150    4.2830
   24.165    4.7569
   24.180    4.8095
   24.195    4.3181
   24.210    4.3005
   24.225    4.4936
   24.240    4.2654
   24.255    4.1952
   24.270    3.9319
   24.285    3.9143
   24.300    4.3532
   24.315    4.2654
   24.330    4.4936
   24.345    4.3883
   24.360    4.5463
   24.375    4.1776
   24.390    4.0723
   24.405    4.2303
   24.420    4.1952
   24.435    4.2303
   24.450    4.1601
   24.465    4.2830
   24.480    4.5287
   24.495    4.3707
   24.510    3.9143
   24.525    4.1425
   24.540    4.0723
   24.555    4.0548
   24.570    3.7564
   24.585    4.1074
   24.600    4.4936
   24.615    4.2303
   24.630    4.2127
   24.645    4.1074
   24.660    4.3883
   24.675    4.1250
   24.690    4.3707
   24.705    4.4058
   24.720    3.9846
   24.735    3.9846
   24.750    4.3532
   24.765    4.1776
   24.780    4.5638
   24.795    4.3707
   24.810    4.4058
   24.825    4.3883
   24.840    4.1776
   24.855    4.6340
   24.870    4.5638
   24.885    4.2127
   24.900    4.2478
   24.915    4.3356
   24.930    4.2303
   24.945    4.2303
   24.960    4.2830
   24.975    4.0723
   24.990    4.0723
   25.005    3.8968
   25.020    4.0899
   25.035    4.2830
   25.050    4.4585
   25.065    4.1601
   25.080    4.2478
   25.095    4.0372
   25.110    4.1952
   25.125    3.6862
   25.140    4.2303
   25.155    4.1074
   25.170    4.1074
   25.185    4.0899
   25.200    4.6165
   25.215    4.3883
   25.230    4.3356
   25.245    3.9319
   25.260    4.0021
   25.275    3.8792
   25.290    4.0723
   25.305    4.3707
   25.320    4.8447
   25.335    4.5111
   25.350    4.3883
   25.365    4.3883
   25.380    3.8968
   25.395    4.0723
   25.410    4.1425
   25.425    4.0021
   25.440    4.1250
   25.455    4.2478
   25.470    4.2830
   25.485    3.8090
   25.500    3.8441
   25.515    3.9143
   25.530    4.1601
   25.545    3.8792
   25.560    4.3005
   25.575    4.2303
   25.590    4.4234
   25.605    4.3005
   25.620    4.5638
   25.635    4.1425
   25.650    4.3356
   25.665    4.4058
   25.680    4.3005
   25.695    4.3356
   25.710    4.1776
   25.725    4.3883
   25.740    4.2654
   25.755    4.1074
   25.770    4.1601
   25.785    4.2127
   25.800    4.1250
   25.815    3.9846
   25.830    4.4234
   25.845    4.2830
   25.860    4.2830
   25.875    4.3005
   25.890    4.4760
   25.905    4.1425
   25.920    4.5814
   25.935    4.6691
   25.950    4.5111
   25.965    4.3356
   25.980    4.0899
   25.995    4.2830
   26.010    4.2127
   26.025    4.1074
   26.040    4.4234
   26.055    4.2654
   26.070    4.2303
   26.085    4.1250
   26.100    4.8271
   26.115    4.4058
   26.130    4.3181
   26.145    4.3883
   26.160    4.4058
   26.175    4.3707
   26.190    4.6340
   26.205    4.6165
   26.220    3.8441
   26.235    4.3707
   26.250    4.0548
   26.265    4.0723
   26.280    4.3707
   26.295    4.4585
   26.310    4.2127
   26.325    4.0021
   26.340    4.4409
   26.355    4.2830
   26.370    4.3532
   26.385    4.2303
   26.400    4.5814
   26.415    4.1601
   26.430    3.9494
   26.445    3.8968
   26.460    4.2303
   26.475    4.2127
   26.490    4.3532
   26.505    4.1952
   26.520    4.3707
   26.535    4.1601
   26.550    4.5463
   26.565    4.1074
   26.580    4.0723
   26.595    4.2478
   26.610    4.1250
   26.625    4.2654
   26.640    4.3707
   26.655    3.7388
   26.670    4.0548
   26.685    3.6686
   26.700    4.0723
   26.715    3.9670
   26.730    4.0372
   26.745    3.7388
   26.760    3.9670
   26.775    4.0021
   26.790    4.1776
   26.805    4.2303
   26.820    4.0899
   26.835    4.1601
   26.850    3.9319
   26.865    3.9143
   26.880    3.8968
   26.895    3.7739
   26.910    4.0723
   26.925    3.6686
   26.940    4.2303
   26.955    3.8266
   26.970    3.7915
   26.985    4.2478
   27.000    4.0197
   27.015    3.9494
   27.030    3.7388
   27.045    3.7915
   27.060    4.1952
   27.075    4.0372
   27.090    4.0899
   27.105    3.8090
   27.120    3.9846
   27.135    4.0021
   27.150    3.8968
   27.165    4.1250
   27.180    4.2303
   27.195    4.2654
   27.210    3.8968
   27.225    4.0197
   27.240    3.7213
   27.255    3.5457
   27.270    3.9319
   27.285    3.8441
   27.300    3.8968
   27.315    3.2298
   27.330    3.9143
   27.345    4.0899
   27.360    4.3005
   27.375    3.9319
   27.390    3.9143
   27.405    3.4404
   27.420    3.4580
   27.435    3.7213
   27.450    3.9670
   27.465    3.7915
   27.480    3.7213
   27.495    3.8441
   27.510    4.0197
   27.525    3.9319
   27.540    3.5808
   27.555    3.6862
   27.570    4.1601
   27.585    3.2824
   27.600    3.5282
   27.615    3.6686
   27.630    4.0899
   27.645    4.2127
   27.660    4.1952
   27.675    4.1776
   27.690    4.1601
   27.705    3.6159
   27.720    3.8792
   27.735    4.2478
   27.750    4.2303
   27.765    3.6862
   27.780    3.6159
   27.795    3.4580
   27.810    3.7388
   27.825    3.8090
   27.840    3.6335
   27.855    3.9143
   27.870    3.5457
   27.885    3.5633
   27.900    3.6510
   27.915    3.6335
   27.930    3.8090
   27.945    3.9143
   27.960    3.6335
   27.975    3.7915
   27.990    4.0197
   28.005    3.8792
   28.020    3.5633
   28.035    3.6510
   28.050    3.7915
   28.065    3.6686
   28.080    3.6510
   28.095    4.0372
   28.110    3.6686
   28.125    3.5984
   28.140    3.8266
   28.155    4.1776
   28.170    3.9319
   28.185    3.6510
   28.200    4.1074
   28.215    4.2654
   28.230    3.9494
   28.245    3.7213
   28.260    3.4404
   28.275    3.5106
   28.290    3.6510
   28.305    3.8441
   28.320    4.0021
   28.335    3.8090
   28.350    3.7915
   28.365    4.1250
   28.380    3.7915
   28.395    3.5457
   28.410    3.6686
   28.425    3.8792
   28.440    4.0548
   28.455    3.7739
   28.470    3.6510
   28.485    3.5633
   28.500    3.3702
   28.515    3.5457
   28.530    4.0548
   28.545    3.9143
   28.560    4.0548
   28.575    3.8792
   28.590    3.6686
   28.605    4.0372
   28.620    3.8617
   28.635    3.7388
   28.650    3.9670
   28.665    3.8968
   28.680    3.8266
   28.695    3.8968
   28.710    4.2127
   28.725    4.3181
   28.740    3.8441
   28.755    3.9494
   28.770    3.5633
   28.785    3.8617
   28.800    3.7739
   28.815    3.9319
   28.830    3.8441
   28.845    3.8441
   28.860    4.0899
   28.875    3.4755
   28.890    3.3702
   28.905    3.7037
   28.920    4.0372
   28.935    3.9143
   28.950    3.8792
   28.965    4.2127
   28.980    3.7213
   28.995    4.0899
   29.010    3.9319
   29.025    3.8792
   29.040    3.3526
   29.055    3.6335
   29.070    3.7388
   29.085    3.6159
   29.100    4.0021
   29.115    3.8617
   29.130    3.9143
   29.145    3.9846
   29.160    3.8968
   29.175    4.0021
   29.190    3.7037
   29.205    3.9670
   29.220    3.6335
   29.235    3.8090
   29.250    3.4053
   29.265    3.6335
   29.280    3.3175
   29.295    3.4229
   29.310    4.1425
   29.325    3.6686
   29.340    3.3351
   29.355    3.4580
   29.370    4.1074
   29.385    3.8090
   29.400    3.5984
   29.415    4.1074
   29.430    3.8441
   29.445    3.8090
   29.460    3.7213
   29.475    3.4053
   29.490    3.1420
   29.505    3.4755
   29.520    3.6159
   29.535    3.5633
   29.550    4.2303
   29.565    3.5457
   29.580    3.5633
   29.595    3.5808
   29.610    3.9670
   29.625    3.6686
   29.640    3.6159
   29.655    3.7564
   29.670    3.6862
   29.685    3.5282
   29.700    3.5106
   29.715    3.4755
   29.730    3.3526
   29.745    3.3526
   29.760    3.5282
   29.775    3.7739
   29.790    3.1771
   29.805    3.5457
   29.820    3.6686
   29.835    3.4053
   29.850    3.4053
   29.865    3.4229
   29.880    3.4755
   29.895    3.4755
   29.910    3.5457
   29.925    4.0899
   29.940    3.6510
   29.955    3.4755
   29.970    3.3702
   29.985    3.4229
   30.000    3.3000
   30.015    3.4053
   30.030    3.4053
   30.045    3.4755
   30.060    3.5457
   30.075    3.5106
   30.090    3.6510
   30.105    3.7037
   30.120    3.7564
   30.135    3.7037
   30.150    3.4755
   30.165    3.3351
   30.180    3.3175
   30.195    3.7564
   30.210    3.6862
   30.225    3.6159
   30.240    3.4755
   30.255    3.4931
   30.270    3.3351
   30.285    3.2824
   30.300    3.5633
   30.315    3.3702
   30.330    3.2298
   30.345    3.5106
   30.360    3.6510
   30.375    3.2649
   30.390    3.2824
   30.405    3.7564
   30.420    3.1245
   30.435    3.1420
   30.450    3.7388
   30.465    3.1420
   30.480    3.4404
   30.495    3.3000
   30.510    3.5633
   30.525    3.5282
   30.540    3.3351
   30.555    3.3526
   30.570    3.3000
   30.585    3.5808
   30.600    3.4229
   30.615    2.8963
   30.630    3.1245
   30.645    3.3000
   30.660    3.1420
   30.675    3.6686
   30.690    3.5808
   30.705    3.3526
   30.720    3.5808
   30.735    3.6686
   30.750    3.6335
   30.765    3.0367
   30.780    3.2473
   30.795    3.5633
   30.810    3.4580
   30.825    3.5282
   30.840    3.4404
   30.855    3.1245
   30.870    3.5808
   30.885    3.7213
   30.900    3.3702
   30.915    3.1245
   30.930    3.6159
   30.945    3.3702
   30.960    2.9840
   30.975    3.3877
   30.990    3.1771
   31.005    3.3526
   31.020    3.2649
   31.035    3.2649
   31.050    3.0191
   31.065    3.1596
   31.080    3.0718
   31.095    3.3000
   31.110    3.6862
   31.125    3.4580
   31.140    3.2649
   31.155    3.4229
   31.170    3.2649
   31.185    3.5106
   31.200    3.4229
   31.215    3.3526
   31.230    3.3000
   31.245    3.3877
   31.260    3.3526
   31.275    3.1947
   31.290    3.7739
   31.305    3.2649
   31.320    3.3877
   31.335    3.4580
   31.350    3.4053
   31.365    3.4229
   31.380    3.2298
   31.395    3.3702
   31.410    3.2298
   31.425    3.1947
   31.440    3.0718
   31.455    3.4053
   31.470    3.1420
   31.485    3.2473
   31.500    3.3877
   31.515    3.2122
   31.530    2.9489
   31.545    3.3702
   31.560    3.3175
   31.575    3.4229
   31.590    3.7213
   31.605    3.1245
   31.620    3.6686
   31.635    3.5106
   31.650    3.3000
   31.665    3.5984
   31.680    3.5282
   31.695    3.3526
   31.710    3.1245
   31.725    2.9840
   31.740    3.1596
   31.755    3.5457
   31.770    3.3000
   31.785    3.3526
   31.800    3.1947
   31.815    2.9665
   31.830    2.8963
   31.845    3.1245
   31.860    3.1947
   31.875    3.4755
   31.890    3.3000
   31.905    2.8436
   31.920    3.7213
   31.935    3.3175
   31.950    3.3526
   31.965    3.2824
   31.980    3.0367
   31.995    3.1245
   32.010    3.3175
   32.025    2.7909
   32.040    3.0191
   32.055    3.3877
   32.070    3.7564
   32.085    3.4931
   32.100    2.9314
   32.115    2.9138
   32.130    2.9489
   32.145    2.9138
   32.160    3.2473
   32.175    3.1596
   32.190    3.2298
   32.205    3.3351
   32.220    3.1771
   32.235    3.4053
   32.250    3.1596
   32.265    3.4229
   32.280    3.1069
   32.295    3.0718
   32.310    3.0191
   32.325    2.9314
   32.340    2.9840
   32.355    3.2473
   32.370    3.0191
   32.385    3.1596
   32.400    2.7383
   32.415    2.9840
   32.430    3.1420
   32.445    3.3000
   32.460    3.0718
   32.475    3.2824
   32.490    2.9138
   32.505    3.2298
   32.520    2.8436
   32.535    3.1420
   32.550    2.9840
   32.565    3.0542
   32.580    2.9489
   32.595    2.9138
   32.610    2.8963
   32.625    3.0718
   32.640    3.1245
   32.655    3.2649
   32.670    3.1596
   32.685    2.9314
   32.700    2.9489
   32.715    3.4404
   32.730    3.3877
   32.745    3.1069
   32.760    3.1947
   32.775    3.2824
   32.790    2.8612
   32.805    3.1069
   32.820    2.9840
   32.835    3.4053
   32.850    3.1771
   32.865    3.0016
   32.880    3.1420
   32.895    3.1947
   32.910    2.9489
   32.925    2.9138
   32.940    3.2298
   32.955    2.9314
   32.970    3.1245
   32.985    3.4229
   33.000    3.1420
   33.015    3.3000
   33.030    3.2122
   33.045    2.9665
   33.060    2.9314
   33.075    3.3000
   33.090    3.1771
   33.105    3.3000
   33.120    3.5106
   33.135    3.3351
   33.150    3.1947
   33.165    3.2298
   33.180    3.0542
   33.195    2.9840
   33.210    2.9665
   33.225    3.4404
   33.240    3.4755
   33.255    3.3175
   33.270    2.9489
   33.285    2.9489
   33.300    3.1420
   33.315    3.2298
   33.330    3.1245
   33.345    2.9665
   33.360    3.1596
   33.375    2.7909
   33.390    3.3702
   33.405    3.0718
   33.420    3.1771
   33.435    2.8612
   33.450    2.9840
   33.465    2.9489
   33.480    2.8963
   33.495    2.8612
   33.510    2.9489
   33.525    3.1069
   33.540    2.9138
   33.555    2.9840
   33.570    2.9138
   33.585    3.0542
   33.600    3.0016
   33.615    2.8612
   33.630    2.9489
   33.645    3.1596
   33.660    2.8963
   33.675    3.0718
   33.690    3.5808
   33.705    3.1245
   33.720    3.0542
   33.735    3.3175
   33.750    2.9489
   33.765    3.3526
   33.780    2.8260
   33.795    3.0367
   33.810    3.0016
   33.825    3.0542
   33.840    3.0191
   33.855    3.4053
   33.870    3.2122
   33.885    3.2473
   33.900    2.9138
   33.915    3.2122
   33.930    3.1069
   33.945    3.3000
   33.960    3.1245
   33.975    2.7207
   33.990    2.5979
   34.005    2.9840
   34.020    3.2122
   34.035    2.7909
   34.050    2.7734
   34.065    3.3175
   34.080    2.8963
   34.095    2.8963
   34.110    3.0542
   34.125    3.1420
   34.140    3.3877
   34.155    2.9665
   34.170    3.1596
   34.185    3.5457
   34.200    3.2824
   34.215    3.2122
   34.230    3.1245
   34.245    3.3000
   34.260    2.9489
   34.275    3.1947
   34.290    3.0191
   34.305    2.9665
   34.320    3.0893
   34.335    3.0718
   34.350    2.9314
   34.365    2.9665
   34.380    2.8963
   34.395    3.0718
   34.410    3.1596
   34.425    3.2473
   34.440    2.8260
   34.455    3.1245
   34.470    3.3175
   34.485    3.3000
   34.500    3.0367
   34.515    3.2473
   34.530    3.1069
   34.545    3.1596
   34.560    2.7909
   34.575    3.1947
   34.590    2.9489
   34.605    3.0718
   34.620    2.6856
   34.635    3.2122
   34.650    3.0893
   34.665    3.1771
   34.680    2.9840
   34.695    2.7734
   34.710    2.8787
   34.725    3.0718
   34.740    3.0718
   34.755    3.0191
   34.770    2.9138
   34.785    2.9138
   34.800    2.8260
   34.815    3.1420
   34.830    3.1245
   34.845    2.9489
   34.860    3.5633
   34.875    2.8085
   34.890    2.8787
   34.905    3.0367
   34.920    2.7558
   34.935    3.1420
   34.950    3.3175
   34.965    3.7388
   34.980    3.0367
   34.995    2.9138
   35.010    3.2298
   35.025    3.4053
   35.040    3.0542
   35.055    3.1069
   35.070    2.9665
   35.085    2.8260
   35.100    3.1245
   35.115    3.0542
   35.130    2.9138
   35.145    3.0542
   35.160    3.4229
   35.175    3.0367
   35.190    3.0893
   35.205    2.6505
   35.220    3.0191
   35.235    3.1069
   35.250    3.0016
   35.265    3.1069
   35.280    2.9138
   35.295    3.0893
   35.310    3.0191
   35.325    3.0718
   35.340    2.9489
   35.355    2.9489
   35.370    2.7734
   35.385    2.8612
   35.400    3.1771
   35.415    2.9840
   35.430    3.0367
   35.445    3.1771
   35.460    3.2298
   35.475    2.9840
   35.490    3.4580
   35.505    3.0191
   35.520    2.7734
   35.535    2.8787
   35.550    2.9665
   35.565    3.0542
   35.580    3.2824
   35.595    3.2122
   35.610    3.0893
   35.625    3.2473
   35.640    3.1069
   35.655    3.2473
   35.670    2.8963
   35.685    3.0367
   35.700    2.8612
   35.715    2.6154
   35.730    3.0016
   35.745    3.1245
   35.760    2.9840
   35.775    2.7558
   35.790    2.9314
   35.805    2.9840
   35.820    3.0191
   35.835    2.9138
   35.850    3.1245
   35.865    2.9138
   35.880    2.8260
   35.895    3.2122
   35.910    3.0893
   35.925    3.1771
   35.940    3.4404
   35.955    3.1771
   35.970    3.0542
   35.985    2.7909
   36.000    2.7383
   36.015    2.7207
   36.030    2.9489
   36.045    2.7032
   36.060    2.6681
   36.075    2.7909
   36.090    3.0367
   36.105    2.9840
   36.120    3.3526
   36.135    3.0191
   36.150    2.9840
   36.165    3.0893
   36.180    3.4580
   36.195    3.4404
   36.210    2.7207
   36.225    2.9138
   36.240    2.8787
   36.255    3.2298
   36.270    3.2649
   36.285    3.2298
   36.300    3.2473
   36.315    2.9314
   36.330    2.5979
   36.345    2.8787
   36.360    3.0542
   36.375    3.0016
   36.390    2.9314
   36.405    2.8963
   36.420    3.3351
   36.435    3.1596
   36.450    3.0191
   36.465    2.8963
   36.480    2.7909
   36.495    3.2649
   36.510    2.9840
   36.525    3.1947
   36.540    3.2298
   36.555    2.9489
   36.570    3.0016
   36.585    3.0191
   36.600    3.1069
   36.615    2.6681
   36.630    3.1069
   36.645    3.2824
   36.660    3.0893
   36.675    3.2298
   36.690    3.1596
   36.705    2.9665
   36.720    3.1069
   36.735    2.8963
   36.750    2.8085
   36.765    2.8787
   36.780    2.8787
   36.795    3.2473
   36.810    3.2298
   36.825    3.2649
   36.840    3.0191
   36.855    2.7383
   36.870    3.1069
   36.885    2.8787
   36.900    2.8963
   36.915    3.1420
   36.930    3.1947
   36.945    3.0893
   36.960    2.8612
   36.975    3.0367
   36.990    2.8260
   37.005    2.8963
   37.020    2.9665
   37.035    3.0718
   37.050    2.9665
   37.065    2.8963
   37.080    3.2473
   37.095    3.3000
   37.110    3.0191
   37.125    2.9314
   37.140    3.1771
   37.155    3.0191
   37.170    3.2649
   37.185    3.3000
   37.200    3.2298
   37.215    2.8787
   37.230    2.9840
   37.245    2.8436
   37.260    2.9314
   37.275    2.9138
   37.290    2.9840
   37.305    3.1771
   37.320    2.9138
   37.335    2.9314
   37.350    3.0367
   37.365    2.8085
   37.380    2.7734
   37.395    2.6154
   37.410    3.0542
   37.425    3.1596
   37.440    3.0542
   37.455    2.9840
   37.470    3.2122
   37.485    2.9314
   37.500    3.1069
   37.515    2.8787
   37.530    2.9138
   37.545    3.1245
   37.560    2.9665
   37.575    2.4223
   37.590    3.1420
   37.605    2.7734
   37.620    3.1771
   37.635    3.0191
   37.650    2.8963
   37.665    2.8260
   37.680    3.1245
   37.695    3.2122
   37.710    3.0718
   37.725    2.8436
   37.740    3.0718
   37.755    3.3000
   37.770    3.1245
   37.785    3.2122
   37.800    2.9138
   37.815    2.9840
   37.830    3.0367
   37.845    3.1771
   37.860    2.9840
   37.875    2.7032
   37.890    2.8260
   37.905    2.9138
   37.920    3.1245
   37.935    3.1947
   37.950    3.0367
   37.965    3.1069
   37.980    2.9138
   37.995    2.5628
   38.010    2.7207
   38.025    3.0542
   38.040    2.8085
   38.055    2.9138
   38.070    2.8612
   38.085    2.9665
   38.100    2.9665
   38.115    3.0016
   38.130    3.0191
   38.145    2.9840
   38.160    3.0016
   38.175    3.0718
   38.190    2.9314
   38.205    2.7032
   38.220    3.0016
   38.235    3.2122
   38.250    3.1069
   38.265    2.9489
   38.280    2.6505
   38.295    2.8963
   38.310    3.1069
   38.325    3.1069
   38.340    3.1245
   38.355    2.8612
   38.370    2.7734
   38.385    2.9489
   38.400    3.3000
   38.415    3.1069
   38.430    2.8085
   38.445    3.0016
   38.460    2.7558
   38.475    3.1245
   38.490    2.9665
   38.505    2.9489
   38.520    2.8260
   38.535    2.7734
   38.550    2.8436
   38.565    2.8963
   38.580    2.7383
   38.595    2.7383
   38.610    3.0016
   38.625    2.8787
   38.640    2.6856
   38.655    3.0191
   38.670    2.7558
   38.685    2.7558
   38.700    2.8436
   38.715    2.9138
   38.730    3.0367
   38.745    3.0191
   38.760    2.7383
   38.775    2.8787
   38.790    2.9665
   38.805    2.7909
   38.820    2.7558
   38.835    3.2649
   38.850    2.9314
   38.865    2.8612
   38.880    3.1947
   38.895    2.9314
   38.910    2.8436
   38.925    3.0367
   38.940    3.0191
   38.955    3.1069
   38.970    2.9840
   38.985    3.0367
   39.000    3.1245
   39.015    2.7207
   39.030    2.6856
   39.045    3.0191
   39.060    2.7032
   39.075    2.7383
   39.090    2.8612
   39.105    2.8085
   39.120    2.8085
   39.135    2.8963
   39.150    2.7909
   39.165    2.8787
   39.180    3.1245
   39.195    2.7558
   39.210    3.1069
   39.225    2.8787
   39.240    3.1420
   39.255    3.0718
   39.270    3.0542
   39.285    3.0191
   39.300    2.6330
   39.315    2.8787
   39.330    3.0718
   39.345    3.1069
   39.360    2.8787
   39.375    3.0893
   39.390    2.5276
   39.405    2.5628
   39.420    3.0542
   39.435    3.0718
   39.450    2.9840
   39.465    3.2649
   39.480    3.0893
   39.495    3.0718
   39.510    2.7734
   39.525    3.1245
   39.540    2.9489
   39.555    3.0542
   39.570    3.2824
   39.585    2.7383
   39.600    2.4399
   39.615    2.5276
   39.630    2.9138
   39.645    2.7734
   39.660    3.0016
   39.675    3.2649
   39.690    2.9489
   39.705    3.0718
   39.720    2.8612
   39.735    2.9138
   39.750    2.6505
   39.765    2.8963
   39.780    2.7909
   39.795    2.9665
   39.810    2.8436
   39.825    2.9665
   39.840    2.8963
   39.855    2.9138
   39.870    2.7207
   39.885    2.9489
   39.900    2.9489
   39.915    2.9138
   39.930    2.7558
   39.945    2.8787
   39.960    2.7734
   39.975    3.0542
   39.990    3.1947
   40.005    2.7909
   40.020    2.8787
   40.035    2.9489
   40.050    3.1420
   40.065    2.8787
   40.080    2.9840
   40.095    3.1245
   40.110    2.8260
   40.125    2.8963
   40.140    3.1420
   40.155    3.0367
   40.170    3.0367
   40.185    2.8787
   40.200    3.1420
   40.215    3.1596
   40.230    2.9489
   40.245    2.8612
   40.260    3.1069
   40.275    2.7909
   40.290    2.7032
   40.305    2.9314
   40.320    3.2824
   40.335    2.8436
   40.350    2.9840
   40.365    3.0367
   40.380    2.9840
   40.395    2.5979
   40.410    2.8436
   40.425    2.8612
   40.440    2.9665
   40.455    3.0542
   40.470    2.6681
   40.485    2.9840
   40.500    2.8436
   40.515    2.9138
   40.530    2.7383
   40.545    3.2122
   40.560    2.6681
   40.575    2.7909
   40.590    2.8787
   40.605    3.3877
   40.620    3.0893
   40.635    3.1420
   40.650    3.1947
   40.665    3.1245
   40.680    3.2473
   40.695    2.8436
   40.710    2.8612
   40.725    2.9665
   40.740    3.1069
   40.755    3.0016
   40.770    3.3877
   40.785    2.9665
   40.800    2.7558
   40.815    3.0016
   40.830    2.6330
   40.845    3.0367
   40.860    3.0191
   40.875    2.5979
   40.890    2.7558
   40.905    3.0718
   40.920    2.9138
   40.935    2.8436
   40.950    2.9489
   40.965    2.7909
   40.980    2.9665
   40.995    3.2122
   41.010    2.9489
   41.025    3.0367
   41.040    2.8260
   41.055    3.2122
   41.070    3.2122
   41.085    2.8963
   41.100    3.2649
   41.115    2.8436
   41.130    2.6330
   41.145    2.6681
   41.160    2.7207
   41.175    2.7032
   41.190    3.0016
   41.205    2.8085
   41.220    2.9138
   41.235    2.8085
   41.250    2.6856
   41.265    2.9840
   41.280    2.9840
   41.295    2.9665
   41.310    2.8612
   41.325    2.7558
   41.340    2.5979
   41.355    2.8787
   41.370    3.1245
   41.385    2.8787
   41.400    2.9314
   41.415    2.9665
   41.430    2.7734
   41.445    2.7032
   41.460    2.9840
   41.475    2.7909
   41.490    2.8963
   41.505    2.8436
   41.520    2.7383
   41.535    3.0367
   41.550    3.1069
   41.565    2.8260
   41.580    2.8787
   41.595    2.8085
   41.610    3.0542
   41.625    3.0191
   41.640    2.8963
   41.655    3.0191
   41.670    2.9314
   41.685    2.8260
   41.700    3.0367
   41.715    3.0191
   41.730    2.5803
   41.745    2.8085
   41.760    2.8085
   41.775    2.6330
   41.790    2.6505
   41.805    2.7558
   41.820    3.0367
   41.835    2.8085
   41.850    2.8085
   41.865    2.8436
   41.880    3.0542
   41.895    2.8612
   41.910    2.6330
   41.925    2.5628
   41.940    2.8260
   41.955    3.0893
   41.970    2.6154
   41.985    2.4925
   42.000    2.8963
   42.015    3.0191
   42.030    2.6154
   42.045    2.7032
   42.060    3.3526
   42.075    3.0016
   42.090    3.1420
   42.105    2.9138
   42.120    3.0367
   42.135    3.0718
   42.150    2.7032
   42.165    2.6856
   42.180    3.1069
   42.195    3.0367
   42.210    2.8436
   42.225    2.7032
   42.240    2.9840
   42.255    3.0191
   42.270    2.7558
   42.285    2.7734
   42.300    2.9840
   42.315    2.8787
   42.330    3.0367
   42.345    2.9840
   42.360    3.0718
   42.375    2.7734
   42.390    2.9489
   42.405    2.8612
   42.420    2.6330
   42.435    2.7909
   42.450    2.7207
   42.465    3.1947
   42.480    2.8436
   42.495    2.6505
   42.510    2.9314
   42.525    2.7207
   42.540    2.9138
   42.555    2.8612
   42.570    2.5452
   42.585    2.8260
   42.600    2.7383
   42.615    2.8963
   42.630    2.8085
   42.645    2.8612
   42.660    2.6505
   42.675    2.9665
   42.690    2.8436
   42.705    2.6154
   42.720    2.7558
   42.735    2.5803
   42.750    2.7558
   42.765    3.4053
   42.780    3.4229
   42.795    2.8612
   42.810    2.8963
   42.825    2.8612
   42.840    2.8787
   42.855    2.7734
   42.870    2.8612
   42.885    2.9840
   42.900    3.0718
   42.915    2.8260
   42.930    2.8612
   42.945    2.7207
   42.960    2.5803
   42.975    2.7032
   42.990    2.6505
   43.005    3.1771
   43.020    3.0367
   43.035    2.7032
   43.050    2.6856
   43.065    3.0542
   43.080    2.8436
   43.095    3.1420
   43.110    2.9138
   43.125    3.1420
   43.140    2.8787
   43.155    3.3175
   43.170    3.0191
   43.185    2.9840
   43.200    2.7909
   43.215    2.9665
   43.230    3.0016
   43.245    2.9138
   43.260    2.6330
   43.275    2.7207
   43.290    2.9489
   43.305    2.9489
   43.320    3.0016
   43.335    2.8436
   43.350    2.7383
   43.365    2.8787
   43.380    3.0367
   43.395    2.7032
   43.410    2.9314
   43.425    3.0191
   43.440    2.6505
   43.455    2.8085
   43.470    2.8787
   43.485    3.1947
   43.500    2.8260
   43.515    2.8963
   43.530    3.1947
   43.545    2.8085
   43.560    2.8436
   43.575    2.7558
   43.590    2.7558
   43.605    2.8436
   43.620    2.8260
   43.635    2.5452
   43.650    2.7383
   43.665    3.0893
   43.680    3.1069
   43.695    3.0191
   43.710    2.8085
   43.725    2.4750
   43.740    2.7383
   43.755    2.8612
   43.770    3.0718
   43.785    3.2122
   43.800    2.9314
   43.815    2.9314
   43.830    2.9840
   43.845    2.8436
   43.860    2.8260
   43.875    2.8260
   43.890    2.7734
   43.905    2.5979
   43.920    2.8260
   43.935    3.0367
   43.950    2.7383
   43.965    2.7558
   43.980    2.8436
   43.995    2.7383
   44.010    3.1596
   44.025    2.7558
   44.040    2.8963
   44.055    3.3351
   44.070    3.0718
   44.085    2.8612
   44.100    2.8963
   44.115    2.7558
   44.130    2.9840
   44.145    2.9314
   44.160    2.7558
   44.175    2.6681
   44.190    2.8787
   44.205    2.7032
   44.220    2.8612
   44.235    2.8963
   44.250    3.0191
   44.265    3.1420
   44.280    2.6856
   44.295    3.0367
   44.310    2.7032
   44.325    3.0893
   44.340    3.0367
   44.355    2.5979
   44.370    2.7383
   44.385    2.7383
   44.400    2.7909
   44.415    2.8260
   44.430    3.2473
   44.445    2.6856
   44.460    2.9840
   44.475    3.1420
   44.490    2.5979
   44.505    2.7207
   44.520    3.0016
   44.535    2.9314
   44.550    2.7558
   44.565    2.9138
   44.580    3.0191
   44.595    2.9665
   44.610    2.8085
   44.625    2.7909
   44.640    3.0367
   44.655    2.7383
   44.670    2.8612
   44.685    3.1420
   44.700    2.7032
   44.715    2.9665
   44.730    2.8085
   44.745    2.6330
   44.760    2.9138
   44.775    2.7734
   44.790    3.0191
   44.805    2.7207
   44.820    2.7032
   44.835    2.6856
   44.850    2.9314
   44.865    2.8787
   44.880    2.9138
   44.895    2.8787
   44.910    3.0542
   44.925    2.6505
   44.940    2.7383
   44.955    3.1245
   44.970    2.8436
   44.985    2.7734
   45.000    2.9489
   45.015    2.8612
   45.030    2.6505
   45.045    2.8787
   45.060    2.8260
   45.075    2.5803
   45.090    2.8436
   45.105    2.7558
   45.120    3.0016
   45.135    3.3175
   45.150    2.6681
   45.165    2.7032
   45.180    2.7032
   45.195    2.9314
   45.210    2.7032
   45.225    3.0718
   45.240    2.8612
   45.255    2.8612
   45.270    3.0893
   45.285    2.6856
   45.300    2.6681
   45.315    2.9489
   45.330    3.0542
   45.345    2.6856
   45.360    2.9138
   45.375    2.6856
   45.390    2.9489
   45.405    2.9138
   45.420    2.8260
   45.435    2.8085
   45.450    2.6505
   45.465    2.8436
   45.480    2.7032
   45.495    3.1596
   45.510    3.0542
   45.525    2.6856
   45.540    2.5803
   45.555    2.8260
   45.570    3.1245
   45.585    2.9489
   45.600    2.9489
   45.615    2.9840
   45.630    3.0893
   45.645    2.8963
   45.660    2.7558
   45.675    3.0718
   45.690    2.7734
   45.705    2.8436
   45.720    2.8787
   45.735    2.7558
   45.750    2.8085
   45.765    2.9840
   45.780    2.9314
   45.795    2.7734
   45.810    3.0367
   45.825    2.7383
   45.840    2.9489
   45.855    2.9489
   45.870    2.6330
   45.885    2.8612
   45.900    2.9314
   45.915    2.7734
   45.930    2.9665
   45.945    2.5628
   45.960    2.6856
   45.975    2.7032
   45.990    2.7734
   46.005    3.2122
   46.020    2.5979
   46.035    2.7734
   46.050    2.8436
   46.065    2.9314
   46.080    2.7032
   46.095    2.8436
   46.110    2.6681
   46.125    2.7909
   46.140    3.1069
   46.155    2.6505
   46.170    2.4750
   46.185    2.5452
   46.200    3.0367
   46.215    2.9314
   46.230    2.9138
   46.245    3.0893
   46.260    2.7734
   46.275    3.0191
   46.290    3.0016
   46.305    3.0191
   46.320    2.9489
   46.335    2.5276
   46.350    2.4223
   46.365    2.7207
   46.380    2.4750
   46.395    2.6681
   46.410    3.0016
   46.425    2.8963
   46.440    2.8787
   46.455    2.6681
   46.470    3.0718
   46.485    2.9314
   46.500    2.8260
   46.515    3.0367
   46.530    2.7734
   46.545    2.7207
   46.560    2.4925
   46.575    2.6856
   46.590    2.6856
   46.605    2.7909
   46.620    2.5628
   46.635    2.5979
   46.650    2.6330
   46.665    2.9314
   46.680    2.8612
   46.695    3.0016
   46.710    2.5452
   46.725    2.5979
   46.740    2.5452
   46.755    2.8085
   46.770    3.0542
   46.785    2.8436
   46.800    2.9314
   46.815    2.6154
   46.830    2.5452
   46.845    2.5101
   46.860    2.6505
   46.875    2.4399
   46.890    2.6856
   46.905    2.7207
   46.920    2.7383
   46.935    2.7909
   46.950    2.3872
   46.965    2.6681
   46.980    2.7909
   46.995    2.8612
   47.010    2.9314
   47.025    2.5979
   47.040    2.9840
   47.055    3.0542
   47.070    2.7383
   47.085    3.0718
   47.100    2.8787
   47.115    2.7032
   47.130    2.6154
   47.145    2.6154
   47.160    2.8612
   47.175    2.6681
   47.190    2.6856
   47.205    2.7207
   47.220    2.7207
   47.235    2.8612
   47.250    2.7909
   47.265    2.6856
   47.280    2.3872
   47.295    2.5276
   47.310    2.8436
   47.325    3.1947
   47.340    3.0542
   47.355    2.9489
   47.370    3.0367
   47.385    2.8260
   47.400    2.9489
   47.415    2.7032
   47.430    2.9489
   47.445    2.5101
   47.460    2.6154
   47.475    3.0542
   47.490    2.7909
   47.505    2.6154
   47.520    2.7032
   47.535    2.9489
   47.550    2.9665
   47.565    2.9665
   47.580    2.7558
   47.595    2.7032
   47.610    2.5452
   47.625    2.7383
   47.640    2.7207
   47.655    2.8085
   47.670    2.6505
   47.685    2.9665
   47.700    2.9138
   47.715    3.0718
   47.730    2.7383
   47.745    2.4399
   47.760    2.8260
   47.775    2.4925
   47.790    2.6154
   47.805    2.9314
   47.820    2.7734
   47.835    2.7383
   47.850    2.5979
   47.865    2.6856
   47.880    2.7734
   47.895    2.9314
   47.910    2.8436
   47.925    2.7207
   47.940    2.7909
   47.955    2.7734
   47.970    2.7558
   47.985    3.0016
   48.000    2.5276
   48.015    2.7558
   48.030    2.7207
   48.045    2.8963
   48.060    2.9138
   48.075    2.6505
   48.090    2.5803
   48.105    2.7558
   48.120    2.5979
   48.135    2.7383
   48.150    2.7207
   48.165    2.7558
   48.180    2.6154
   48.195    2.6505
   48.210    2.9489
   48.225    2.8612
   48.240    2.7207
   48.255    2.7734
   48.270    2.6681
   48.285    2.7032
   48.300    2.7909
   48.315    3.1596
   48.330    2.6505
   48.345    2.4925
   48.360    2.7558
   48.375    2.7207
   48.390    2.5452
   48.405    2.7032
   48.420    2.8963
   48.435    2.7558
   48.450    2.7383
   48.465    2.9665
   48.480    2.8260
   48.495    2.6505
   48.510    2.5101
   48.525    2.7383
   48.540    3.1596
   48.555    2.8963
   48.570    3.0542
   48.585    2.4750
   48.600    2.3346
   48.615    2.4750
   48.630    2.5628
   48.645    3.0016
   48.660    2.9665
   48.675    2.9138
   48.690    2.7207
   48.705    2.7734
   48.720    2.6154
   48.735    2.6856
   48.750    3.0542
   48.765    2.7909
   48.780    2.8436
   48.795    2.5452
   48.810    2.6154
   48.825    2.7207
   48.840    2.5979
   48.855    2.4399
   48.870    2.7383
   48.885    2.4750
   48.900    2.3521
   48.915    2.5628
   48.930    2.5276
   48.945    2.8612
   48.960    2.6154
   48.975    2.5803
   48.990    2.7734
   49.005    2.7032
   49.020    2.7558
   49.035    2.5452
   49.050    2.7734
   49.065    2.9314
   49.080    2.5803
   49.095    2.6856
   49.110    2.6330
   49.125    2.7207
   49.140    2.5452
   49.155    2.4574
   49.170    3.0191
   49.185    2.6154
   49.200    2.5276
   49.215    2.5628
   49.230    2.4574
   49.245    2.6505
   49.260    2.4048
   49.275    2.4399
   49.290    2.4574
   49.305    2.5628
   49.320    2.4399
   49.335    2.5628
   49.350    2.7909
   49.365    2.7383
   49.380    2.7032
   49.395    2.6681
   49.410    2.6505
   49.425    2.7032
   49.440    2.7734
   49.455    2.3170
   49.470    2.2468
   49.485    2.5276
   49.500    2.7383
   49.515    2.7032
   49.530    2.6505
   49.545    2.6856
   49.560    2.6681
   49.575    2.7734
   49.590    2.7207
   49.605    2.9665
   49.620    3.0016
   49.635    2.7032
   49.650    2.3872
   49.665    2.6856
   49.680    2.6154
   49.695    2.4750
   49.710    2.4048
   49.725    2.4750
   49.740    2.4925
   49.755    2.5979
   49.770    2.3697
   49.785    2.6154
   49.800    2.8260
   49.815    2.5628
   49.830    2.5101
   49.845    2.5452
   49.860    2.5101
   49.875    2.8260
   49.890    2.5979
   49.905    2.6154
   49.920    2.8436
   49.935    2.8963
   49.950    2.9840
   49.965    2.7032
   49.980    2.8260
