    1.500   20.4739
    1.515   20.0843
    1.530   20.8531
    1.545   20.7583
    1.560   20.7056
    1.575   21.2638
    1.590   20.1790
    1.605   20.4318
    1.620   20.3791
    1.635   19.9579
    1.650   19.3049
    1.665   19.5261
    1.680   19.4418
    1.695   19.1364
    1.710   20.3054
    1.725   19.9263
    1.740   19.8315
    1.755   19.4418
    1.770   20.1474
    1.785   19.3154
    1.800   19.7367
    1.815   18.9889
    1.830   18.9047
    1.845   18.8415
    1.860   18.6625
    1.875   18.8731
    1.890   18.5993
    1.905   18.2306
    1.920   18.3781
    1.935   18.8731
    1.950   18.4729
    1.965   17.9884
    1.980   18.5466
    1.995   18.0937
    2.010   18.3254
    2.025   18.2622
    2.040   18.0411
    2.055   17.9252
    2.070   18.1464
    2.085   18.2412
    2.100   17.8515
    2.115   17.6514
    2.130   17.4829
    2.145   18.5887
    2.160   17.6830
    2.175   17.5461
    2.190   17.4724
    2.205   17.9252
    2.220   18.1359
    2.235   17.7462
    2.250   17.2722
    2.265   17.6935
    2.280   17.5566
    2.295   17.5882
    2.310   17.8831
    2.325   16.9668
    2.340   16.7246
    2.355   17.3670
    2.370   17.3986
    2.385   17.3144
    2.400   17.8199
    2.415   17.5566
    2.430   17.6619
    2.445   17.8936
    2.460   17.5461
    2.475   17.8094
    2.490   17.6303
    2.505   17.9989
    2.520   18.2622
    2.535   18.5045
    2.550   18.5677
    2.565   18.1464
    2.580   19.0943
    2.595   18.5150
    2.610   18.3044
    2.625   18.4623
    2.640   18.2412
    2.655   18.5466
    2.670   18.7046
    2.685   19.6840
    2.700   19.6840
    2.715   19.7051
    2.730   19.0311
    2.745   19.9789
    2.760   20.5582
    2.775   20.5582
    2.790   19.5893
    2.805   20.5161
    2.820   20.0948
    2.835   20.8004
    2.850   21.1374
    2.865   20.5898
    2.880   21.0743
    2.895   21.9484
    2.910   22.2959
    2.925   22.4961
    2.940   22.1906
    2.955   21.8957
    2.970   22.9173
    2.985   23.0437
    3.000   23.6230
    3.015   23.3070
    3.030   24.3813
    3.045   24.9394
    3.060   25.8452
    3.075   25.4555
    3.090   25.7293
    3.105   27.5619
    3.120   27.0142
    3.135   26.4139
    3.150   28.4044
    3.165   29.8052
    3.180   29.9737
    3.195   30.5529
    3.210   31.4692
    3.225   32.1959
    3.240   32.8383
    3.255   33.4281
    3.270   33.9337
    3.285   34.9763
    3.300   35.8294
    3.315   37.0406
    3.330   38.0621
    3.345   39.4945
    3.360   40.6109
    3.375   40.6319
    3.390   42.1801
    3.405   43.8863
    3.420   44.3707
    3.435   46.3086
    3.450   48.7204
    3.465   49.5208
    3.480   51.9115
    3.495   54.0390
    3.510   55.2501
    3.525   57.4618
    3.540   59.8736
    3.555   61.1269
    3.570   62.8225
    3.585   65.9926
    3.600   71.2586
    3.615   73.2596
    3.630   77.8304
    3.645   80.5477
    3.660   84.9816
    3.675   88.8784
    3.690   92.3433
    3.705   98.0095
    3.720  105.7715
    3.735  111.6377
    3.750  117.3249
    3.765  125.0448
    3.780  134.9447
    3.795  146.9300
    3.810  156.1559
    3.825  173.3544
    3.840  196.8615
    3.855  226.2770
    3.870  264.5498
    3.885  303.1596
    3.900  324.2970
    3.915  325.7715
    3.930  297.2512
    3.945  236.5456
    3.960  148.2886
    3.975   72.3223
    3.990   31.4903
    4.005   19.0416
    4.020   15.8189
    4.035   14.1022
    4.050   12.8805
    4.065   12.6804
    4.080   12.3117
    4.095   10.9531
    4.110   10.7952
    4.125   10.8794
    4.140   10.6161
    4.155   10.4581
    4.170   10.4265
    4.185   10.2580
    4.200   10.5319
    4.215   10.2159
    4.230    9.9315
    4.245   10.2264
    4.260   10.2791
    4.275   10.4160
    4.290   10.3002
    4.305   10.1738
    4.320    9.9842
    4.335   10.6793
    4.350   10.1632
    4.365    9.3839
    4.380    9.9631
    4.395   10.1211
    4.410   10.2159
    4.425    9.4260
    4.440    9.9315
    4.455    9.9737
    4.470   10.2475
    4.485   10.1316
    4.500   10.7741
    4.515   10.0158
    4.530    9.7420
    4.545   10.0579
    4.560   10.2896
    4.575   10.2054
    4.590   10.1843
    4.605   10.5213
    4.620   10.2475
    4.635   10.0895
    4.650   10.1632
    4.665   10.9847
    4.680   10.6056
    4.695   10.4687
    4.710   11.0374
    4.725   11.1848
    4.740   10.9847
    4.755   11.5429
    4.770   11.3533
    4.785   11.1532
    4.800   11.6693
    4.815   11.4903
    4.830   11.9537
    4.845   11.5745
    4.860   11.5956
    4.875   11.4060
    4.890   12.1854
    4.905   11.7114
    4.920   12.1854
    4.935   12.6382
    4.950   13.0490
    4.965   13.1332
    4.980   13.4281
    4.995   13.7019
    5.010   13.6598
    5.025   14.0706
    5.040   14.6814
    5.055   14.4392
    5.070   15.2712
    5.085   15.7662
    5.100   15.6714
    5.115   16.2085
    5.130   17.2196
    5.145   17.7988
    5.160   17.6935
    5.175   18.7572
    5.190   18.9152
    5.205   20.4002
    5.220   21.0321
    5.235   21.6956
    5.250   22.5171
    5.265   23.3386
    5.280   23.6124
    5.295   25.1185
    5.310   26.6983
    5.325   28.1727
    5.340   30.1843
    5.355   31.9853
    5.370   34.0495
    5.385   35.0816
    5.400   38.1991
    5.415   41.2217
    5.430   44.8447
    5.445   50.1106
    5.460   55.9136
    5.475   63.3491
    5.490   73.9547
    5.505   84.6235
    5.520   91.8589
    5.535   91.5640
    5.550   86.4876
    5.565   69.9105
    5.580   47.8146
    5.595   26.6140
    5.610   15.4713
    5.625   10.8689
    5.640    9.5419
    5.655    9.6788
    5.670    9.0153
    5.685    9.1101
    5.700    9.2154
    5.715    8.7204
    5.730    8.8678
    5.745    8.4150
    5.760    8.5940
    5.775    8.0885
    5.790    8.0358
    5.805    8.4992
    5.820    8.9415
    5.835    9.0679
    5.850    8.2991
    5.865    8.5097
    5.880    8.5203
    5.895    7.9305
    5.910    8.0885
    5.925    7.7725
    5.940    8.3623
    5.955    8.1622
    5.970    8.5308
    5.985    8.5308
    6.000    8.2991
    6.015    8.3728
    6.030    8.0674
    6.045    8.1411
    6.060    7.5724
    6.075    8.0674
    6.090    7.7409
    6.105    7.9094
    6.120    8.4044
    6.135    8.4887
    6.150    8.4044
    6.165    8.0042
    6.180    8.1095
    6.195    8.2991
    6.210    8.0779
    6.225    8.4255
    6.240    8.2991
    6.255    8.4781
    6.270    8.6572
    6.285    8.1622
    6.300    8.2043
    6.315    8.3307
    6.330    8.7730
    6.345    8.3728
    6.360    8.8257
    6.375    8.6361
    6.390    8.5413
    6.405    8.7520
    6.420    9.0679
    6.435    9.1101
    6.450    9.4471
    6.465    9.0258
    6.480    8.9521
    6.495    9.3523
    6.510    9.4681
    6.525   10.0263
    6.540    9.9526
    6.555    9.6893
    6.570   10.3739
    6.585   10.8899
    6.600   10.7741
    6.615   11.1638
    6.630   11.1954
    6.645   11.6798
    6.660   12.9015
    6.675   13.1438
    6.690   13.6072
    6.705   14.5656
    6.720   15.7451
    6.735   17.3776
    6.750   18.7256
    6.765   20.3476
    6.780   19.5682
    6.795   19.1680
    6.810   16.9142
    6.825   13.6177
    6.840   10.6372
    6.855    8.5413
    6.870    8.1411
    6.885    7.9305
    6.900    7.9094
    6.915    7.1827
    6.930    7.7199
    6.945    8.1201
    6.960    8.1095
    6.975    7.8357
    6.990    7.4671
    7.005    7.7620
    7.020    7.7620
    7.035    7.3828
    7.050    7.7409
    7.065    7.6040
    7.080    7.8673
    7.095    7.6883
    7.110    7.2354
    7.125    7.3934
    7.140    7.2354
    7.155    7.7514
    7.170    7.7093
    7.185    7.5724
    7.200    7.7830
    7.215    7.7936
    7.230    7.4671
    7.245    7.6777
    7.260    7.8884
    7.275    7.9621
    7.290    8.0042
    7.305    8.1095
    7.320    8.0674
    7.335    7.7936
    7.350    8.1938
    7.365    8.1201
    7.380    8.2043
    7.395    8.3939
    7.410    8.4255
    7.425    8.3834
    7.440    8.6677
    7.455    9.2786
    7.470    9.1311
    7.485    9.1101
    7.500    9.4365
    7.515    9.0047
    7.530    9.6472
    7.545   10.1001
    7.560    9.9105
    7.575   10.5740
    7.590   10.4055
    7.605   11.1532
    7.620   11.8589
    7.635   12.1854
    7.650   13.0490
    7.665   13.1754
    7.680   13.5756
    7.695   14.3233
    7.710   15.4713
    7.725   16.0821
    7.740   18.5571
    7.755   19.7894
    7.770   22.9489
    7.785   25.6767
    7.800   28.6467
    7.815   31.1532
    7.830   30.2686
    7.845   28.1306
    7.860   24.6972
    7.875   18.4202
    7.890   13.4071
    7.905    9.6893
    7.920    7.7620
    7.935    7.5829
    7.950    7.3934
    7.965    7.1722
    7.980    6.7404
    7.995    7.1406
    8.010    7.3512
    8.025    7.0142
    8.040    7.2459
    8.055    7.1195
    8.070    7.2354
    8.085    7.0879
    8.100    6.9300
    8.115    6.9089
    8.130    6.7825
    8.145    7.0037
    8.160    7.1827
    8.175    6.9510
    8.190    6.9300
    8.205    6.8773
    8.220    6.7930
    8.235    7.1933
    8.250    6.6772
    8.265    7.0669
    8.280    6.9932
    8.295    6.8984
    8.310    6.7299
    8.325    6.5929
    8.340    7.1406
    8.355    7.0142
    8.370    7.2880
    8.385    7.2565
    8.400    6.8141
    8.415    6.8878
    8.430    6.9616
    8.445    7.2880
    8.460    7.1722
    8.475    7.1827
    8.490    7.6672
    8.505    7.4144
    8.520    7.3407
    8.535    7.4671
    8.550    7.6356
    8.565    7.2565
    8.580    7.5935
    8.595    7.0669
    8.610    7.0563
    8.625    7.4776
    8.640    7.9305
    8.655    8.0779
    8.670    7.8568
    8.685    8.7309
    8.700    8.5940
    8.715    9.0785
    8.730    9.3207
    8.745    9.7314
    8.760    9.6893
    8.775    9.0363
    8.790    9.0047
    8.805    8.2675
    8.820    7.8041
    8.835    7.0669
    8.850    6.5824
    8.865    6.9826
    8.880    7.3407
    8.895    6.7404
    8.910    6.7825
    8.925    7.6145
    8.940    7.0248
    8.955    7.0353
    8.970    7.2354
    8.985    6.7088
    9.000    7.2249
    9.015    7.2565
    9.030    7.1827
    9.045    7.4250
    9.060    7.2775
    9.075    7.3091
    9.090    7.8673
    9.105    6.8878
    9.120    7.0985
    9.135    7.5092
    9.150    8.2780
    9.165    8.4150
    9.180    8.5835
    9.195    8.4150
    9.210    8.1622
    9.225    8.5940
    9.240    9.1101
    9.255    9.2259
    9.270    9.6261
    9.285   10.2054
    9.300   10.5108
    9.315   11.1532
    9.330   11.5640
    9.345   11.8062
    9.360   12.3749
    9.375   12.9437
    9.390   13.9231
    9.405   14.4813
    9.420   15.4081
    9.435   16.6719
    9.450   18.3044
    9.465   20.0843
    9.480   21.9063
    9.495   24.9078
    9.510   26.9300
    9.525   31.5219
    9.540   36.7983
    9.555   42.9173
    9.570   48.7836
    9.585   50.3212
    9.600   49.7736
    9.615   45.1290
    9.630   34.2707
    9.645   24.4550
    9.660   16.0716
    9.675   10.6056
    9.690    8.3412
    9.705    7.5619
    9.720    7.3407
    9.735    6.7193
    9.750    6.9089
    9.765    7.4882
    9.780    7.1090
    9.795    6.8668
    9.810    6.8457
    9.825    6.7404
    9.840    7.0248
    9.855    6.5403
    9.870    6.5719
    9.885    6.7720
    9.900    7.0879
    9.915    6.6140
    9.930    7.0037
    9.945    6.4034
    9.960    7.2880
    9.975    6.8668
    9.990    7.2775
   10.005    6.7930
   10.020    6.7088
   10.035    7.5092
   10.050    6.9826
   10.065    6.8352
   10.080    7.3618
   10.095    7.5513
   10.110    7.5303
   10.125    8.1411
   10.140    8.0358
   10.155    8.3202
   10.170    8.1833
   10.185    8.2991
   10.200    8.5729
   10.215    9.1311
   10.230    9.9421
   10.245   10.1632
   10.260   10.9110
   10.275   10.9742
   10.290   11.7430
   10.305   12.7436
   10.320   14.5972
   10.335   15.9874
   10.350   16.8299
   10.365   16.8194
   10.380   16.1032
   10.395   13.9758
   10.410   11.3323
   10.425    9.0890
   10.440    7.5724
   10.455    6.9510
   10.470    6.8562
   10.485    6.8246
   10.500    6.8457
   10.515    6.7299
   10.530    6.4455
   10.545    6.1717
   10.560    5.9505
   10.575    6.3191
   10.590    6.9194
   10.605    6.6983
   10.620    6.7193
   10.635    6.8668
   10.650    6.6456
   10.665    6.6983
   10.680    7.2880
   10.695    7.3302
   10.710    6.5719
   10.725    6.5824
   10.740    6.8668
   10.755    7.0142
   10.770    7.3512
   10.785    7.0563
   10.800    7.3828
   10.815    7.5724
   10.830    7.9516
   10.845    7.8884
   10.860    8.0569
   10.875    8.2780
   10.890    8.4781
   10.905    8.4044
   10.920    9.5103
   10.935    9.4787
   10.950   10.3949
   10.965   10.3949
   10.980   11.3639
   10.995   12.3644
   11.010   13.1543
   11.025   14.8183
   11.040   16.9774
   11.055   18.9995
   11.070   19.6525
   11.085   19.5998
   11.100   17.9463
   11.115   16.2507
   11.130   13.4071
   11.145   10.0685
   11.160    7.9200
   11.175    6.7720
   11.190    6.7404
   11.205    6.7615
   11.220    6.4560
   11.235    6.6667
   11.250    6.7404
   11.265    6.4350
   11.280    6.8668
   11.295    6.3823
   11.310    6.3823
   11.325    6.6456
   11.340    6.3718
   11.355    6.4244
   11.370    6.6245
   11.385    6.7509
   11.400    6.5192
   11.415    6.4034
   11.430    6.8036
   11.445    6.8984
   11.460    6.9300
   11.475    7.0669
   11.490    7.2670
   11.505    7.2670
   11.520    7.2354
   11.535    7.4776
   11.550    7.5408
   11.565    8.0042
   11.580    8.1095
   11.595    8.3096
   11.610    8.9310
   11.625    9.0258
   11.640    9.9315
   11.655   10.2896
   11.670   11.0690
   11.685   11.8905
   11.700   12.9331
   11.715   14.6814
   11.730   16.9879
   11.745   17.6725
   11.760   17.0616
   11.775   15.0184
   11.790   13.4071
   11.805   10.9953
   11.820    9.4365
   11.835    7.8673
   11.850    6.8668
   11.865    6.6877
   11.880    6.0769
   11.895    6.2243
   11.910    6.1295
   11.925    5.8978
   11.940    6.3086
   11.955    6.2454
   11.970    6.3718
   11.985    6.6245
   12.000    6.4876
   12.015    6.1190
   12.030    6.4350
   12.045    6.2033
   12.060    6.3086
   12.075    6.3086
   12.090    6.2875
   12.105    6.5824
   12.120    6.2559
   12.135    6.1506
   12.150    6.2349
   12.165    5.9294
   12.180    5.8136
   12.195    6.1927
   12.210    6.5719
   12.225    6.5719
   12.240    6.2138
   12.255    6.6140
   12.270    6.5403
   12.285    6.7825
   12.300    6.6983
   12.315    7.1195
   12.330    7.0669
   12.345    7.2354
   12.360    7.3618
   12.375    7.9305
   12.390    8.0779
   12.405    7.6777
   12.420    7.4460
   12.435    6.7720
   12.450    6.6561
   12.465    6.4350
   12.480    6.1295
   12.495    6.0242
   12.510    6.2981
   12.525    6.1611
   12.540    6.4876
   12.555    6.3086
   12.570    6.1611
   12.585    6.4244
   12.600    6.4771
   12.615    6.3928
   12.630    6.3191
   12.645    6.4666
   12.660    6.6351
   12.675    6.1822
   12.690    6.7509
   12.705    6.7088
   12.720    6.5929
   12.735    6.2559
   12.750    6.3928
   12.765    7.0037
   12.780    7.2775
   12.795    6.6772
   12.810    7.1090
   12.825    7.1511
   12.840    7.5197
   12.855    7.5408
   12.870    7.2038
   12.885    7.9094
   12.900    8.5835
   12.915    8.6467
   12.930    9.6051
   12.945   10.6372
   12.960   10.9005
   12.975   11.4271
   12.990   12.1959
   13.005   12.2696
   13.020   11.4376
   13.035   10.5213
   13.050    9.2575
   13.065    8.0779
   13.080    6.9721
   13.095    6.3507
   13.110    6.5298
   13.125    6.1401
   13.140    6.1190
   13.155    6.0769
   13.170    6.1927
   13.185    5.5187
   13.200    5.9400
   13.215    6.1822
   13.230    6.0874
   13.245    5.8768
   13.260    5.7083
   13.275    6.1822
   13.290    6.2243
   13.305    6.2243
   13.320    6.3928
   13.335    6.3928
   13.350    6.4139
   13.365    6.6035
   13.380    6.6035
   13.395    6.9300
   13.410    7.0563
   13.425    6.6140
   13.440    7.0037
   13.455    6.8773
   13.470    7.2565
   13.485    7.1090
   13.500    7.6672
   13.515    7.9200
   13.530    8.5203
   13.545    8.8784
   13.560    9.2364
   13.575    9.3102
   13.590    9.4787
   13.605    9.2891
   13.620    8.4887
   13.635    7.5724
   13.650    6.9616
   13.665    6.5087
   13.680    6.4350
   13.695    6.0032
   13.710    6.1295
   13.725    6.3823
   13.740    6.3823
   13.755    6.4560
   13.770    6.3086
   13.785    6.0874
   13.800    5.9505
   13.815    6.5508
   13.830    6.6667
   13.845    6.2138
   13.860    6.1085
   13.875    6.7299
   13.890    6.9826
   13.905    6.4455
   13.920    6.4455
   13.935    6.7615
   13.950    7.0142
   13.965    6.8562
   13.980    7.0353
   13.995    7.7199
   14.010    7.9094
   14.025    8.4360
   14.040    8.5097
   14.055    8.7730
   14.070    9.8999
   14.085   10.6161
   14.100   11.5219
   14.115   12.2907
   14.130   12.5856
   14.145   12.3749
   14.160   11.5219
   14.175   10.7741
   14.190    9.5735
   14.205    8.0885
   14.220    7.2038
   14.235    5.9716
   14.250    6.2454
   14.265    6.1506
   14.280    6.0979
   14.295    6.0558
   14.310    6.1822
   14.325    6.1611
   14.340    6.1822
   14.355    6.2033
   14.370    6.2243
   14.385    6.1927
   14.400    6.6456
   14.415    6.0558
   14.430    6.1401
   14.445    6.0453
   14.460    5.7188
   14.475    5.6556
   14.490    6.3191
   14.505    6.0032
   14.520    6.2559
   14.535    6.3296
   14.550    5.9716
   14.565    5.7399
   14.580    5.8662
   14.595    6.0874
   14.610    6.0874
   14.625    5.6029
   14.640    5.9400
   14.655    5.9926
   14.670    5.8241
   14.685    5.7609
   14.700    6.0558
   14.715    5.8136
   14.730    5.8136
   14.745    5.8347
   14.760    5.8768
   14.775    5.5924
   14.790    6.1401
   14.805    5.9821
   14.820    5.8347
   14.835    5.9505
   14.850    6.4876
   14.865    6.1717
   14.880    5.8873
   14.895    6.1506
   14.910    5.9610
   14.925    6.0032
   14.940    5.9716
   14.955    5.8768
   14.970    6.3507
   14.985    6.2559
   15.000    6.0348
   15.015    6.0664
   15.030    6.6035
   15.045    6.2349
   15.060    6.3402
   15.075    6.6772
   15.090    6.3296
   15.105    6.5824
   15.120    6.8668
   15.135    7.1511
   15.150    7.4039
   15.165    7.8778
   15.180    7.1722
   15.195    7.4776
   15.210    7.3512
   15.225    7.3407
   15.240    7.4144
   15.255    6.9194
   15.270    6.2559
   15.285    6.0558
   15.300    6.1085
   15.315    6.0242
   15.330    5.9610
   15.345    5.9084
   15.360    6.0664
   15.375    5.8978
   15.390    6.0769
   15.405    5.9821
   15.420    5.9400
   15.435    5.8136
   15.450    5.8136
   15.465    5.7399
   15.480    6.1085
   15.495    5.8347
   15.510    5.8662
   15.525    5.9505
   15.540    6.0453
   15.555    6.1295
   15.570    6.1295
   15.585    6.4034
   15.600    6.1506
   15.615    6.1295
   15.630    5.9294
   15.645    6.2454
   15.660    6.4455
   15.675    5.8768
   15.690    6.2981
   15.705    6.0137
   15.720    6.3507
   15.735    6.3928
   15.750    6.0664
   15.765    6.0137
   15.780    6.0242
   15.795    6.0348
   15.810    6.2033
   15.825    6.0137
   15.840    6.1085
   15.855    5.9821
   15.870    6.1611
   15.885    5.8031
   15.900    5.8241
   15.915    6.1190
   15.930    6.2665
   15.945    6.0979
   15.960    6.1085
   15.975    6.4666
   15.990    6.3823
   16.005    5.9084
   16.020    5.9400
   16.035    6.3296
   16.050    6.3507
   16.065    6.5403
   16.080    6.7930
   16.095    6.9932
   16.110    7.4776
   16.125    7.7725
   16.140    8.0147
   16.155    7.8146
   16.170    7.8778
   16.185    8.2991
   16.200    7.9305
   16.215    7.5829
   16.230    7.3512
   16.245    6.6351
   16.260    6.7404
   16.275    6.4350
   16.290    6.3507
   16.305    6.1085
   16.320    5.9716
   16.335    5.9294
   16.350    6.1085
   16.365    6.1927
   16.380    6.5929
   16.395    6.4034
   16.410    6.2454
   16.425    6.3612
   16.440    6.0769
   16.455    6.2138
   16.470    6.5192
   16.485    6.6245
   16.500    5.9716
   16.515    6.1611
   16.530    6.2770
   16.545    6.2665
   16.560    6.5298
   16.575    6.9194
   16.590    7.1827
   16.605    7.4566
   16.620    7.1827
   16.635    7.4566
   16.650    7.3091
   16.665    7.2143
   16.680    7.1301
   16.695    6.7930
   16.710    6.9616
   16.725    6.4244
   16.740    6.1717
   16.755    6.3928
   16.770    6.3296
   16.785    6.4560
   16.800    6.0032
   16.815    6.1401
   16.830    6.3296
   16.845    6.6035
   16.860    6.5719
   16.875    6.3402
   16.890    6.6983
   16.905    6.2033
   16.920    6.3402
   16.935    6.8141
   16.950    7.2775
   16.965    7.0669
   16.980    7.8884
   16.995    7.8146
   17.010    8.4571
   17.025    8.6888
   17.040    9.9210
   17.055   10.5951
   17.070   11.4165
   17.085   12.7330
   17.100   13.4808
   17.115   13.4702
   17.130   12.0695
   17.145   10.9953
   17.160   10.1316
   17.175    8.9837
   17.190    7.3618
   17.205    6.7088
   17.220    6.5719
   17.235    6.5087
   17.250    6.2875
   17.265    6.1717
   17.280    6.3086
   17.295    6.2454
   17.310    6.0979
   17.325    6.1401
   17.340    6.0558
   17.355    6.2770
   17.370    6.2770
   17.385    6.0769
   17.400    6.3507
   17.415    6.3402
   17.430    5.9821
   17.445    6.5087
   17.460    6.0348
   17.475    6.8457
   17.490    6.8457
   17.505    6.7193
   17.520    6.8036
   17.535    7.2565
   17.550    7.4776
   17.565    7.9200
   17.580    7.0669
   17.595    6.9405
   17.610    6.8668
   17.625    6.7615
   17.640    6.2665
   17.655    6.3191
   17.670    5.9821
   17.685    6.0874
   17.700    6.1611
   17.715    6.2243
   17.730    6.3507
   17.745    6.5719
   17.760    6.4139
   17.775    6.4982
   17.790    6.2665
   17.805    6.5298
   17.820    6.4350
   17.835    5.8557
   17.850    6.0348
   17.865    6.5613
   17.880    6.1506
   17.895    6.2981
   17.910    6.5298
   17.925    7.0879
   17.940    7.0353
   17.955    6.9300
   17.970    6.7299
   17.985    6.9721
   18.000    7.2880
   18.015    6.9721
   18.030    6.5613
   18.045    6.2770
   18.060    6.3402
   18.075    6.1295
   18.090    5.9716
   18.105    5.6029
   18.120    5.6135
   18.135    6.1822
   18.150    6.0769
   18.165    6.1401
   18.180    6.5087
   18.195    6.2033
   18.210    6.0558
   18.225    6.5298
   18.240    5.8662
   18.255    6.2559
   18.270    5.9400
   18.285    6.4350
   18.300    6.6667
   18.315    6.8036
   18.330    6.5613
   18.345    6.8668
   18.360    7.4250
   18.375    7.0985
   18.390    7.1301
   18.405    7.5935
   18.420    7.5303
   18.435    7.7725
   18.450    7.4671
   18.465    7.4566
   18.480    7.0563
   18.495    6.5719
   18.510    6.2770
   18.525    6.1085
   18.540    5.8452
   18.555    5.9926
   18.570    6.2454
   18.585    6.1401
   18.600    6.2243
   18.615    5.9189
   18.630    6.4034
   18.645    6.7930
   18.660    6.2665
   18.675    6.5719
   18.690    6.3191
   18.705    6.4771
   18.720    6.4350
   18.735    6.3928
   18.750    6.3402
   18.765    6.5298
   18.780    6.4350
   18.795    6.6035
   18.810    6.4876
   18.825    6.7615
   18.840    7.1511
   18.855    6.5824
   18.870    6.2033
   18.885    6.4666
   18.900    6.5087
   18.915    6.1611
   18.930    6.4666
   18.945    6.3718
   18.960    6.2770
   18.975    6.0032
   18.990    6.0453
   19.005    6.2243
   19.020    6.1717
   19.035    6.3612
   19.050    6.5298
   19.065    6.6035
   19.080    6.5087
   19.095    6.1611
   19.110    6.0242
   19.125    6.5087
   19.140    6.4139
   19.155    6.1506
   19.170    6.1822
   19.185    6.1611
   19.200    6.0453
   19.215    5.9084
   19.230    6.1822
   19.245    6.1190
   19.260    6.1717
   19.275    6.2981
   19.290    6.1927
   19.305    6.1085
   19.320    5.9084
   19.335    5.9610
   19.350    6.1717
   19.365    6.1927
   19.380    5.7399
   19.395    6.2138
   19.410    6.2454
   19.425    5.9716
   19.440    6.2559
   19.455    6.3086
   19.470    6.5192
   19.485    6.4139
   19.500    6.2981
   19.515    6.4771
   19.530    6.7720
   19.545    6.8668
   19.560    7.0879
   19.575    7.5619
   19.590    7.4776
   19.605    7.7514
   19.620    8.2886
   19.635    7.7304
   19.650    7.8884
   19.665    8.1201
   19.680    8.2043
   19.695    7.8673
   19.710    7.1301
   19.725    6.9616
   19.740    6.8141
   19.755    6.6351
   19.770    6.2981
   19.785    6.3507
   19.800    6.4034
   19.815    6.1717
   19.830    6.3296
   19.845    5.9610
   19.860    6.6456
   19.875    6.2665
   19.890    6.2349
   19.905    6.3823
   19.920    6.3191
   19.935    6.4771
   19.950    6.3928
   19.965    6.3507
   19.980    5.9926
   19.995    6.4350
   20.010    6.2454
   20.025    6.4034
   20.040    6.6140
   20.055    6.3296
   20.070    6.4034
   20.085    6.2665
   20.100    6.2665
   20.115    6.4666
   20.130    6.2770
   20.145    5.9400
   20.160    6.2875
   20.175    6.2033
   20.190    6.2349
   20.205    6.4666
   20.220    6.5192
   20.235    6.2559
   20.250    6.7615
   20.265    6.6351
   20.280    6.7615
   20.295    6.8457
   20.310    6.7509
   20.325    7.2354
   20.340    7.8568
   20.355    8.0253
   20.370    8.5519
   20.385    9.6998
   20.400    9.8368
   20.415    9.6998
   20.430    9.8052
   20.445    9.5840
   20.460    9.2364
   20.475    9.2154
   20.490    8.7730
   20.505    8.0147
   20.520    7.0563
   20.535    6.1822
   20.550    6.4771
   20.565    6.3823
   20.580    6.0769
   20.595    6.2243
   20.610    5.9294
   20.625    6.4771
   20.640    5.8347
   20.655    6.3086
   20.670    6.1401
   20.685    6.0032
   20.700    6.4034
   20.715    6.3086
   20.730    6.4455
   20.745    6.2454
   20.760    6.3296
   20.775    6.2243
   20.790    6.0242
   20.805    6.2349
   20.820    6.3507
   20.835    6.3402
   20.850    6.1190
   20.865    6.1085
   20.880    6.4982
   20.895    6.2770
   20.910    6.3507
   20.925    6.3612
   20.940    6.4982
   20.955    5.8662
   20.970    6.5508
   20.985    6.6245
   21.000    6.1927
   21.015    6.2033
   21.030    5.4976
   21.045    6.3823
   21.060    6.2981
   21.075    6.0874
   21.090    6.0242
   21.105    6.3086
   21.120    6.1611
   21.135    6.8668
   21.150    6.4139
   21.165    6.4244
   21.180    6.2033
   21.195    6.2033
   21.210    6.3718
   21.225    6.5613
   21.240    6.0664
   21.255    6.0137
   21.270    6.1506
   21.285    6.6140
   21.300    6.3086
   21.315    5.8873
   21.330    6.1717
   21.345    6.2138
   21.360    6.2875
   21.375    6.2665
   21.390    6.1506
   21.405    6.0664
   21.420    6.0769
   21.435    6.1295
   21.450    6.2770
   21.465    6.2665
   21.480    5.9505
   21.495    6.3086
   21.510    6.0032
   21.525    6.2665
   21.540    6.3507
   21.555    6.6035
   21.570    6.4350
   21.585    6.0874
   21.600    6.0348
   21.615    6.4244
   21.630    6.3402
   21.645    5.9084
   21.660    6.2454
   21.675    6.2033
   21.690    6.6456
   21.705    6.1717
   21.720    6.2770
   21.735    6.4139
   21.750    6.6983
   21.765    6.3191
   21.780    6.3296
   21.795    6.7193
   21.810    6.6667
   21.825    7.2565
   21.840    7.2775
   21.855    7.0563
   21.870    7.3302
   21.885    7.6777
   21.900    8.2991
   21.915    7.7199
   21.930    7.4776
   21.945    7.7093
   21.960    7.3196
   21.975    7.0879
   21.990    6.8984
   22.005    6.2243
   22.020    6.2349
   22.035    6.1506
   22.050    6.6245
   22.065    6.1085
   22.080    6.1822
   22.095    6.5824
   22.110    6.9405
   22.125    6.4244
   22.140    6.6456
   22.155    6.8246
   22.170    6.6351
   22.185    7.1195
   22.200    7.4355
   22.215    7.0985
   22.230    7.5197
   22.245    7.8568
   22.260    7.4566
   22.275    7.3091
   22.290    7.2670
   22.305    6.7825
   22.320    7.1722
   22.335    6.9721
   22.350    6.5929
   22.365    6.4876
   22.380    6.8141
   22.395    6.7193
   22.410    6.6877
   22.425    6.5087
   22.440    6.7930
   22.455    7.0037
   22.470    6.9826
   22.485    7.2775
   22.500    7.3934
   22.515    8.0885
   22.530    9.4050
   22.545    9.7420
   22.560   10.1422
   22.575   10.6372
   22.590   11.1322
   22.605   11.3849
   22.620   11.4692
   22.635   11.5113
   22.650   10.6056
   22.665   10.4581
   22.680    9.4050
   22.695    8.4676
   22.710    7.9621
   22.725    7.2565
   22.740    7.0142
   22.755    6.9616
   22.770    6.6351
   22.785    6.9826
   22.800    7.2670
   22.815    7.5619
   22.830    7.3934
   22.845    7.4144
   22.860    8.3202
   22.875    8.4676
   22.890    9.4365
   22.905    9.4155
   22.920   10.2264
   22.935   10.8689
   22.950   11.1532
   22.965   11.1848
   22.980   11.1638
   22.995    9.8578
   23.010    9.6998
   23.025    8.9100
   23.040    8.2464
   23.055    7.3512
   23.070    6.9194
   23.085    6.8668
   23.100    6.5719
   23.115    6.7299
   23.130    6.5087
   23.145    6.6245
   23.160    6.5613
   23.175    6.5403
   23.190    6.6035
   23.205    7.2670
   23.220    7.4671
   23.235    7.4144
   23.250    7.5408
   23.265    7.4987
   23.280    7.2249
   23.295    7.3828
   23.310    7.8673
   23.325    7.2775
   23.340    7.2880
   23.355    7.2459
   23.370    6.9616
   23.385    6.7404
   23.400    6.4034
   23.415    6.3402
   23.430    6.4244
   23.445    6.4455
   23.460    6.4139
   23.475    6.3928
   23.490    6.5824
   23.505    6.0558
   23.520    6.4666
   23.535    6.5298
   23.550    6.4771
   23.565    6.4244
   23.580    6.6456
   23.595    6.9616
   23.610    6.8036
   23.625    6.4244
   23.640    6.8352
   23.655    6.5403
   23.670    6.2665
   23.685    6.3402
   23.700    6.5087
   23.715    6.6877
   23.730    6.3507
   23.745    6.6035
   23.760    6.8668
   23.775    6.5719
   23.790    6.0979
   23.805    6.3086
   23.820    6.5192
   23.835    6.4350
   23.850    6.8036
   23.865    6.7615
   23.880    7.1301
   23.895    7.3407
   23.910    7.6777
   23.925    7.9094
   23.940    7.7936
   23.955    7.9516
   23.970    7.9200
   23.985    8.0358
   24.000    7.9937
   24.015    7.4987
   24.030    7.1722
   24.045    6.7088
   24.060    6.5298
   24.075    6.0979
   24.090    6.4034
   24.105    6.1506
   24.120    5.9821
   24.135    6.1611
   24.150    6.2981
   24.165    6.1927
   24.180    6.2138
   24.195    6.1190
   24.210    6.4139
   24.225    6.1927
   24.240    6.1927
   24.255    6.4350
   24.270    6.8036
   24.285    6.6351
   24.300    6.4455
   24.315    6.2349
   24.330    6.5298
   24.345    5.9716
   24.360    5.9505
   24.375    6.2981
   24.390    5.9505
   24.405    6.1717
   24.420    6.1611
   24.435    6.4982
   24.450    6.1717
   24.465    6.3191
   24.480    6.2981
   24.495    6.4560
   24.510    6.3612
   24.525    6.1085
   24.540    6.2349
   24.555    6.4455
   24.570    6.4139
   24.585    6.4455
   24.600    6.8457
   24.615    6.4876
   24.630    7.0248
   24.645    6.8878
   24.660    6.3718
   24.675    6.5719
   24.690    6.3612
   24.705    6.5508
   24.720    6.2770
   24.735    5.8768
   24.750    6.0874
   24.765    6.2033
   24.780    6.0453
   24.795    6.4034
   24.810    5.9505
   24.825    6.0874
   24.840    6.4350
   24.855    6.2033
   24.870    6.1085
   24.885    6.1927
   24.900    6.6351
   24.915    6.4876
   24.930    6.3402
   24.945    6.3718
   24.960    6.5613
   24.975    6.3823
   24.990    6.7193
   25.005    6.3507
   25.020    6.2981
   25.035    6.2981
   25.050    6.1506
   25.065    6.1717
   25.080    6.2981
   25.095    5.9505
   25.110    5.9610
   25.125    6.2243
   25.140    6.2665
   25.155    6.2138
   25.170    6.2770
   25.185    6.5192
   25.200    6.5192
   25.215    6.9089
   25.230    6.4982
   25.245    6.8668
   25.260    7.1827
   25.275    7.1827
   25.290    6.9089
   25.305    6.6561
   25.320    6.6351
   25.335    6.3928
   25.350    6.0453
   25.365    6.2770
   25.380    6.4139
   25.395    6.4034
   25.410    6.2138
   25.425    6.3191
   25.440    6.1190
   25.455    6.4982
   25.470    6.4560
   25.485    6.5508
   25.500    6.2033
   25.515    6.4560
   25.530    6.6561
   25.545    6.4034
   25.560    6.4560
   25.575    6.6245
   25.590    6.3823
   25.605    6.4244
   25.620    6.4139
   25.635    6.3086
   25.650    6.2559
   25.665    6.4771
   25.680    6.4034
   25.695    6.5824
   25.710    6.8352
   25.725    6.7509
   25.740    6.7509
   25.755    7.0563
   25.770    7.1090
   25.785    7.6672
   25.800    8.4044
   25.815    9.4050
   25.830    9.1417
   25.845    9.6051
   25.860    9.8473
   25.875    9.8684
   25.890    9.6577
   25.905    9.0679
   25.920    9.0574
   25.935    7.9621
   25.950    7.7936
   25.965    7.0879
   25.980    6.4034
   25.995    6.0348
   26.010    6.2665
   26.025    6.1927
   26.040    5.9294
   26.055    6.4455
   26.070    5.9084
   26.085    5.9189
   26.100    6.1822
   26.115    6.0769
   26.130    6.4455
   26.145    6.2665
   26.160    6.2665
   26.175    6.1190
   26.190    6.2349
   26.205    6.4034
   26.220    6.2138
   26.235    6.2138
   26.250    6.3507
   26.265    6.1717
   26.280    5.8978
   26.295    6.2770
   26.310    6.5824
   26.325    6.7404
   26.340    6.3402
   26.355    6.3612
   26.370    6.3718
   26.385    6.5824
   26.400    6.6561
   26.415    6.6456
   26.430    6.8246
   26.445    6.8352
   26.460    6.8878
   26.475    6.6772
   26.490    6.8773
   26.505    6.8984
   26.520    7.2143
   26.535    6.4244
   26.550    6.4666
   26.565    6.4139
   26.580    6.0979
   26.595    5.9926
   26.610    6.1822
   26.625    5.9716
   26.640    5.6029
   26.655    5.9084
   26.670    5.8662
   26.685    5.6872
   26.700    5.9821
   26.715    6.1611
   26.730    6.2454
   26.745    5.8978
   26.760    6.0769
   26.775    6.0242
   26.790    6.0242
   26.805    5.9189
   26.820    6.1611
   26.835    5.6240
   26.850    5.8031
   26.865    6.5403
   26.880    6.1822
   26.895    5.6977
   26.910    5.8031
   26.925    5.9189
   26.940    6.3191
   26.955    6.4560
   26.970    6.4666
   26.985    6.8984
   27.000    6.8562
   27.015    7.0458
   27.030    7.6145
   27.045    7.6883
   27.060    7.6356
   27.075    7.2459
   27.090    7.3723
   27.105    7.4987
   27.120    6.9194
   27.135    6.3823
   27.150    6.4876
   27.165    6.6667
   27.180    6.0453
   27.195    5.9505
   27.210    5.9821
   27.225    5.9821
   27.240    5.8347
   27.255    5.9400
   27.270    5.8662
   27.285    5.6451
   27.300    5.9821
   27.315    5.6767
   27.330    5.6451
   27.345    5.9084
   27.360    5.7609
   27.375    5.9400
   27.390    5.8768
   27.405    5.5292
   27.420    5.6767
   27.435    5.9189
   27.450    5.7293
   27.465    5.6661
   27.480    5.7293
   27.495    6.0032
   27.510    6.1822
   27.525    6.3296
   27.540    6.0664
   27.555    5.8347
   27.570    6.2559
   27.585    6.6245
   27.600    6.6351
   27.615    6.8141
   27.630    6.7509
   27.645    6.4244
   27.660    6.8352
   27.675    7.0248
   27.690    6.7720
   27.705    6.6245
   27.720    6.7299
   27.735    6.3718
   27.750    6.0032
   27.765    5.6872
   27.780    5.8241
   27.795    5.9189
   27.810    6.1401
   27.825    5.9610
   27.840    6.0979
   27.855    6.3296
   27.870    6.0664
   27.885    5.9610
   27.900    6.3718
   27.915    6.7509
   27.930    6.4876
   27.945    6.3296
   27.960    6.3296
   27.975    6.6667
   27.990    6.2665
   28.005    6.2559
   28.020    6.0453
   28.035    5.8241
   28.050    6.0874
   28.065    5.8873
   28.080    6.2875
   28.095    6.5403
   28.110    6.1927
   28.125    6.3612
   28.140    6.8036
   28.155    6.6877
   28.170    6.9510
   28.185    7.5197
   28.200    7.3723
   28.215    7.2143
   28.230    7.0669
   28.245    6.8878
   28.260    7.0985
   28.275    6.9721
   28.290    6.8246
   28.305    6.7193
   28.320    6.0453
   28.335    6.0348
   28.350    5.5082
   28.365    5.8031
   28.380    5.7188
   28.395    6.1401
   28.410    6.4876
   28.425    6.6667
   28.440    6.8562
   28.455    6.8246
   28.470    6.6983
   28.485    7.1195
   28.500    7.2459
   28.515    7.2459
   28.530    6.8562
   28.545    6.8352
   28.560    6.7930
   28.575    6.6035
   28.590    6.1717
   28.605    6.0032
   28.620    5.7293
   28.635    5.8031
   28.650    5.8557
   28.665    5.5608
   28.680    5.4871
   28.695    5.6029
   28.710    5.9294
   28.725    6.0137
   28.740    5.9821
   28.755    6.2559
   28.770    5.7715
   28.785    5.8031
   28.800    5.8241
   28.815    5.5187
   28.830    5.8031
   28.845    5.5398
   28.860    6.1295
   28.875    5.9084
   28.890    6.0348
   28.905    5.6240
   28.920    6.1717
   28.935    5.8031
   28.950    5.6977
   28.965    5.7609
   28.980    6.0348
   28.995    5.7715
   29.010    5.7083
   29.025    5.5819
   29.040    5.5608
   29.055    6.1085
   29.070    6.0137
   29.085    5.8452
   29.100    5.9084
   29.115    5.7504
   29.130    5.7609
   29.145    5.9294
   29.160    5.8768
   29.175    5.9505
   29.190    5.8136
   29.205    5.7925
   29.220    6.1822
   29.235    6.1295
   29.250    6.4982
   29.265    6.6245
   29.280    6.7299
   29.295    6.7930
   29.310    6.4982
   29.325    6.5508
   29.340    6.8036
   29.355    6.9721
   29.370    6.9405
   29.385    6.7615
   29.400    6.0348
   29.415    6.1927
   29.430    6.1085
   29.445    6.0664
   29.460    5.8452
   29.475    5.5292
   29.490    5.8241
   29.505    5.7188
   29.520    5.5398
   29.535    5.5082
   29.550    5.2870
   29.565    5.7188
   29.580    5.6556
   29.595    5.5292
   29.610    5.8452
   29.625    5.5608
   29.640    5.5924
   29.655    5.4450
   29.670    5.6135
   29.685    5.2659
   29.700    5.5292
   29.715    5.6556
   29.730    5.4555
   29.745    5.8768
   29.760    5.5608
   29.775    5.9294
   29.790    5.4766
   29.805    5.8557
   29.820    6.1190
   29.835    5.9610
   29.850    6.3086
   29.865    6.1295
   29.880    6.0242
   29.895    6.0769
   29.910    6.1190
   29.925    5.7609
   29.940    5.6661
   29.955    5.9084
   29.970    5.9294
   29.985    5.4344
   30.000    5.4660
   30.015    5.6029
   30.030    5.4976
   30.045    5.4450
   30.060    5.7293
   30.075    5.8241
   30.090    5.9716
   30.105    5.6661
   30.120    5.7925
   30.135    5.8557
   30.150    5.9189
   30.165    5.8347
   30.180    5.6029
   30.195    5.9084
   30.210    5.5924
   30.225    5.3923
   30.240    5.4134
   30.255    5.7504
   30.270    5.5292
   30.285    5.2975
   30.300    6.0348
   30.315    5.7504
   30.330    5.7504
   30.345    5.6345
   30.360    5.6977
   30.375    5.8241
   30.390    5.7609
   30.405    5.1501
   30.420    5.6661
   30.435    5.7293
   30.450    5.8662
   30.465    6.1295
   30.480    5.9189
   30.495    5.8136
   30.510    5.7083
   30.525    5.8031
   30.540    5.8557
   30.555    5.4134
   30.570    5.9084
   30.585    5.9926
   30.600    5.8768
   30.615    5.7820
   30.630    6.2243
   30.645    6.2138
   30.660    5.9084
   30.675    5.7083
   30.690    5.9926
   30.705    5.9821
   30.720    5.8347
   30.735    6.0242
   30.750    5.8768
   30.765    5.8557
   30.780    5.7820
   30.795    5.1711
   30.810    5.4134
   30.825    5.6240
   30.840    5.8347
   30.855    5.4450
   30.870    5.3607
   30.885    5.8557
   30.900    5.9926
   30.915    5.4766
   30.930    5.8031
   30.945    5.9400
   30.960    5.3923
   30.975    5.3923
   30.990    5.7609
   31.005    5.7609
   31.020    5.6767
   31.035    5.0658
   31.050    5.3712
   31.065    5.4555
   31.080    5.7715
   31.095    5.4976
   31.110    5.3186
   31.125    5.2659
   31.140    5.3923
   31.155    5.3923
   31.170    5.5819
   31.185    5.3712
   31.200    5.4871
   31.215    5.6556
   31.230    5.7820
   31.245    5.6135
   31.260    5.2659
   31.275    5.0553
   31.290    5.6556
   31.305    5.5503
   31.320    5.5292
   31.335    5.3081
   31.350    5.7293
   31.365    5.9505
   31.380    6.2665
   31.395    5.8768
   31.410    6.3612
   31.425    6.0348
   31.440    6.2138
   31.455    5.8452
   31.470    5.8978
   31.485    6.0979
   31.500    5.9926
   31.515    5.8136
   31.530    5.7609
   31.545    5.3818
   31.560    5.1711
   31.575    5.5398
   31.590    5.2765
   31.605    5.4134
   31.620    5.5924
   31.635    5.5398
   31.650    5.7083
   31.665    5.7293
   31.680    6.0137
   31.695    5.3923
   31.710    5.5714
   31.725    5.9400
   31.740    5.8978
   31.755    5.5292
   31.770    5.5082
   31.785    5.5292
   31.800    5.5819
   31.815    5.5714
   31.830    5.5187
   31.845    4.9816
   31.860    5.3186
   31.875    5.6661
   31.890    5.6451
   31.905    5.4028
   31.920    5.6029
   31.935    5.7083
   31.950    5.4344
   31.965    5.3607
   31.980    5.5082
   31.995    5.6451
   32.010    5.2870
   32.025    5.2975
   32.040    5.4555
   32.055    5.4028
   32.070    5.5819
   32.085    5.3397
   32.100    5.6872
   32.115    5.6240
   32.130    5.6240
   32.145    5.6345
   32.160    5.7715
   32.175    5.8031
   32.190    5.6872
   32.205    5.4871
   32.220    5.4450
   32.235    5.4976
   32.250    5.4344
   32.265    5.4766
   32.280    5.6872
   32.295    5.3712
   32.310    5.3712
   32.325    5.3712
   32.340    5.4555
   32.355    5.3502
   32.370    5.1290
   32.385    5.1922
   32.400    5.8768
   32.415    5.4028
   32.430    5.0553
   32.445    5.2554
   32.460    4.9921
   32.475    5.2659
   32.490    5.2659
   32.505    5.2870
   32.520    5.0658
   32.535    5.0974
   32.550    5.0764
   32.565    5.2975
   32.580    5.3291
   32.595    5.1817
   32.610    5.3291
   32.625    5.4555
   32.640    5.3291
   32.655    5.6977
   32.670    5.3923
   32.685    5.1501
   32.700    5.1817
   32.715    5.0658
   32.730    5.0342
   32.745    5.3712
   32.760    5.1606
   32.775    5.2343
   32.790    5.3291
   32.805    5.5082
   32.820    5.2449
   32.835    5.4450
   32.850    5.5292
   32.865    5.3923
   32.880    5.5503
   32.895    5.4871
   32.910    5.2975
   32.925    5.6029
   32.940    5.3186
   32.955    5.6135
   32.970    5.7188
   32.985    5.5819
   33.000    5.4871
   33.015    5.9505
   33.030    5.4660
   33.045    5.4028
   33.060    5.0026
   33.075    5.2238
   33.090    5.0764
   33.105    5.0974
   33.120    5.2027
   33.135    5.0764
   33.150    5.0342
   33.165    4.8447
   33.180    5.1395
   33.195    5.0974
   33.210    5.1395
   33.225    5.0869
   33.240    5.1185
   33.255    5.0132
   33.270    4.9816
   33.285    4.9605
   33.300    5.3397
   33.315    5.1711
   33.330    5.6135
   33.345    5.2133
   33.360    4.9500
   33.375    4.8131
   33.390    4.9605
   33.405    4.8447
   33.420    5.1606
   33.435    5.2765
   33.450    4.9605
   33.465    5.1606
   33.480    4.7077
   33.495    4.9078
   33.510    5.1290
   33.525    5.0026
   33.540    4.7288
   33.555    5.0553
   33.570    5.0764
   33.585    5.1290
   33.600    5.2238
   33.615    5.0342
   33.630    5.1606
   33.645    5.2765
   33.660    5.2449
   33.675    5.3818
   33.690    5.1290
   33.705    5.3712
   33.720    5.2343
   33.735    5.2659
   33.750    5.7715
   33.765    5.1711
   33.780    5.2870
   33.795    5.1606
   33.810    5.2659
   33.825    5.5082
   33.840    5.5819
   33.855    5.6872
   33.870    5.5819
   33.885    6.0874
   33.900    5.7293
   33.915    5.6556
   33.930    6.0032
   33.945    6.0348
   33.960    5.7715
   33.975    5.1501
   33.990    5.5714
   34.005    5.2870
   34.020    5.1922
   34.035    5.1395
   34.050    5.4976
   34.065    5.1080
   34.080    5.0658
   34.095    5.3291
   34.110    5.1606
   34.125    5.2975
   34.140    4.9394
   34.155    5.0026
   34.170    5.1711
   34.185    5.3186
   34.200    5.1185
   34.215    5.0553
   34.230    5.0132
   34.245    4.7393
   34.260    5.0237
   34.275    4.7288
   34.290    5.0553
   34.305    5.1606
   34.320    4.9289
   34.335    4.7499
   34.350    4.8447
   34.365    5.1395
   34.380    5.0974
   34.395    5.2238
   34.410    5.0237
   34.425    4.9394
   34.440    5.0869
   34.455    4.9710
   34.470    5.0658
   34.485    4.8447
   34.500    4.9394
   34.515    5.1711
   34.530    5.0553
   34.545    5.2870
   34.560    5.1606
   34.575    4.9184
   34.590    5.1185
   34.605    4.8025
   34.620    4.8868
   34.635    4.8868
   34.650    5.0764
   34.665    5.2870
   34.680    4.8447
   34.695    4.7288
   34.710    4.9394
   34.725    4.8341
   34.740    4.8868
   34.755    5.0553
   34.770    5.2449
   34.785    5.5503
   34.800    5.2975
   34.815    5.6240
   34.830    5.3502
   34.845    5.2975
   34.860    5.3818
   34.875    5.1395
   34.890    5.3081
   34.905    4.9816
   34.920    5.3081
   34.935    5.0237
   34.950    5.2343
   34.965    4.8973
   34.980    4.9816
   34.995    4.8447
   35.010    4.6024
   35.025    4.5603
   35.040    5.1817
   35.055    4.6551
   35.070    4.8131
   35.085    4.6761
   35.100    4.6235
   35.115    4.8236
   35.130    4.6340
   35.145    4.7077
   35.160    4.6445
   35.175    4.6445
   35.190    5.0553
   35.205    4.6761
   35.220    4.6340
   35.235    4.8763
   35.250    5.1922
   35.265    4.8236
   35.280    4.6761
   35.295    4.8552
   35.310    5.0237
   35.325    5.3607
   35.340    5.0658
   35.355    5.3291
   35.370    4.8236
   35.385    5.0974
   35.400    5.0658
   35.415    4.8025
   35.430    5.1185
   35.445    4.5392
   35.460    4.4760
   35.475    5.0553
   35.490    4.7077
   35.505    4.5182
   35.520    4.8131
   35.535    4.5708
   35.550    4.8447
   35.565    4.4550
   35.580    4.5919
   35.595    4.7393
   35.610    5.4555
   35.625    4.7183
   35.640    4.5498
   35.655    4.8447
   35.670    4.6235
   35.685    4.9710
   35.700    4.9078
   35.715    5.1290
   35.730    5.1080
   35.745    4.8236
   35.760    4.9289
   35.775    4.8552
   35.790    5.0026
   35.805    5.0974
   35.820    4.8552
   35.835    4.7499
   35.850    4.8657
   35.865    5.0237
   35.880    4.8341
   35.895    5.0237
   35.910    5.1711
   35.925    5.0869
   35.940    5.4134
   35.955    5.0132
   35.970    5.0237
   35.985    4.5498
   36.000    4.7709
   36.015    4.6445
   36.030    4.6445
   36.045    4.8552
   36.060    5.0974
   36.075    5.0974
   36.090    4.9921
   36.105    5.1711
   36.120    5.0237
   36.135    4.6235
   36.150    4.8973
   36.165    4.8552
   36.180    5.1080
   36.195    4.9605
   36.210    4.8025
   36.225    4.8868
   36.240    4.9289
   36.255    4.9921
   36.270    5.2343
   36.285    4.8868
   36.300    4.7077
   36.315    4.8973
   36.330    4.7604
   36.345    5.0553
   36.360    5.0869
   36.375    4.6235
   36.390    5.0132
   36.405    5.0764
   36.420    4.7920
   36.435    4.5498
   36.450    4.6130
   36.465    4.6445
   36.480    4.5814
   36.495    4.7920
   36.510    4.6761
   36.525    4.7393
   36.540    4.7077
   36.555    4.8763
   36.570    4.5076
   36.585    4.7709
   36.600    5.0342
   36.615    4.7920
   36.630    4.7393
   36.645    5.0764
   36.660    5.1606
   36.675    4.9710
   36.690    4.7499
   36.705    4.9605
   36.720    5.4028
   36.735    4.8341
   36.750    4.7077
   36.765    4.7288
   36.780    4.7077
   36.795    4.8552
   36.810    4.7077
   36.825    4.5814
   36.840    4.5498
   36.855    4.7077
   36.870    4.5076
   36.885    4.5814
   36.900    4.6551
   36.915    4.7077
   36.930    4.5919
   36.945    4.6656
   36.960    4.5076
   36.975    4.4128
   36.990    4.6551
   37.005    4.7920
   37.020    5.0132
   37.035    4.7604
   37.050    4.6972
   37.065    4.6972
   37.080    5.0026
   37.095    5.0974
   37.110    4.9816
   37.125    5.1395
   37.140    4.9921
   37.155    5.2027
   37.170    5.2765
   37.185    5.1395
   37.200    5.2554
   37.215    4.8763
   37.230    4.8973
   37.245    4.8657
   37.260    4.8236
   37.275    4.5708
   37.290    4.6024
   37.305    4.8657
   37.320    4.8973
   37.335    4.6024
   37.350    4.7183
   37.365    4.4866
   37.380    4.6340
   37.395    4.4760
   37.410    4.4971
   37.425    4.5814
   37.440    4.4866
   37.455    4.5392
   37.470    4.5708
   37.485    4.4971
   37.500    4.5287
   37.515    4.8552
   37.530    4.5708
   37.545    4.8868
   37.560    5.0658
   37.575    4.9921
   37.590    5.0237
   37.605    5.0132
   37.620    4.4971
   37.635    4.5498
   37.650    4.4234
   37.665    4.6130
   37.680    4.6761
   37.695    4.8973
   37.710    4.6445
   37.725    4.6445
   37.740    4.8341
   37.755    4.9816
   37.770    4.6235
   37.785    4.6445
   37.800    4.6656
   37.815    4.4866
   37.830    4.6656
   37.845    4.7499
   37.860    4.5392
   37.875    4.6340
   37.890    4.7393
   37.905    4.9184
   37.920    4.9078
   37.935    5.0132
   37.950    4.9816
   37.965    4.8447
   37.980    4.5919
   37.995    4.6972
   38.010    4.6235
   38.025    4.8447
   38.040    4.8025
   38.055    5.0132
   38.070    4.7709
   38.085    4.5392
   38.100    4.7920
   38.115    4.9816
   38.130    4.4760
   38.145    4.6340
   38.160    5.1290
   38.175    4.7604
   38.190    4.4444
   38.205    4.5392
   38.220    4.8131
   38.235    4.5919
   38.250    4.7393
   38.265    4.5182
   38.280    4.8131
   38.295    4.6972
   38.310    4.4655
   38.325    4.5708
   38.340    4.3181
   38.355    4.5498
   38.370    4.7815
   38.385    4.8341
   38.400    5.0026
   38.415    5.0658
   38.430    4.8341
   38.445    4.7815
   38.460    4.8763
   38.475    4.8236
   38.490    4.7183
   38.505    4.5708
   38.520    4.2865
   38.535    4.9605
   38.550    4.6656
   38.565    4.3391
   38.580    4.6340
   38.595    4.6235
   38.610    4.6867
   38.625    4.4234
   38.640    4.1811
   38.655    4.2549
   38.670    4.1496
   38.685    4.1917
   38.700    4.4550
   38.715    4.6445
   38.730    4.1811
   38.745    4.2127
   38.760    4.4444
   38.775    4.7077
   38.790    4.5287
   38.805    4.5498
   38.820    4.6761
   38.835    4.7288
   38.850    4.6656
   38.865    4.6130
   38.880    4.3075
   38.895    4.3286
   38.910    4.2022
   38.925    4.4128
   38.940    4.3918
   38.955    4.5076
   38.970    4.3602
   38.985    4.5814
   39.000    4.4971
   39.015    4.7920
   39.030    4.6340
   39.045    4.4971
   39.060    4.4234
   39.075    4.3181
   39.090    4.2127
   39.105    4.5814
   39.120    4.6130
   39.135    4.6656
   39.150    4.6656
   39.165    4.7604
   39.180    4.5287
   39.195    4.5076
   39.210    4.4339
   39.225    4.6340
   39.240    4.5919
   39.255    4.5076
   39.270    4.8131
   39.285    4.7288
   39.300    4.4655
   39.315    4.5392
   39.330    5.1080
   39.345    4.5919
   39.360    4.5287
   39.375    4.5814
   39.390    4.8236
   39.405    4.4971
   39.420    4.6340
   39.435    4.8131
   39.450    4.7183
   39.465    4.5814
   39.480    4.5076
   39.495    4.3602
   39.510    4.3075
   39.525    4.4339
   39.540    4.7183
   39.555    4.5498
   39.570    4.3813
   39.585    4.6551
   39.600    4.7604
   39.615    4.3286
   39.630    4.2970
   39.645    4.4655
   39.660    4.7709
   39.675    4.5076
   39.690    4.4128
   39.705    4.5392
   39.720    4.7499
   39.735    4.5919
   39.750    4.7393
   39.765    4.2654
   39.780    4.5603
   39.795    4.4655
   39.810    4.4550
   39.825    4.7288
   39.840    4.7604
   39.855    4.7183
   39.870    4.3602
   39.885    4.5603
   39.900    4.5392
   39.915    4.5603
   39.930    4.4444
   39.945    4.3707
   39.960    4.5287
   39.975    4.4655
   39.990    4.4866
