    1.500   14.5866
    1.515   14.7657
    1.530   14.4181
    1.545   14.2707
    1.560   14.2180
    1.575   14.1864
    1.590   13.5545
    1.605   13.5545
    1.620   13.0490
    1.635   13.2491
    1.650   12.8173
    1.665   12.8067
    1.680   12.1959
    1.695   11.9010
    1.710   11.9958
    1.725   11.7957
    1.740   11.5324
    1.755   11.1532
    1.770   11.1954
    1.785   10.8689
    1.800   11.2480
    1.815   11.1638
    1.830   10.9005
    1.845   10.5108
    1.860   10.3633
    1.875   10.4055
    1.890   10.7109
    1.905   10.5635
    1.920   10.2896
    1.935    9.9210
    1.950   10.2580
    1.965    9.9526
    1.980    9.9210
    1.995    9.8789
    2.010    9.6893
    2.025    9.5945
    2.040    9.2680
    2.055    9.0679
    2.070    8.9521
    2.085    8.7414
    2.100    9.0469
    2.115    8.6677
    2.130    8.6467
    2.145    8.9415
    2.160    8.4044
    2.175    9.0258
    2.190    8.8468
    2.205    8.2991
    2.220    8.6467
    2.235    8.7625
    2.250    8.1833
    2.265    8.2991
    2.280    8.8257
    2.295    8.2991
    2.310    8.1201
    2.325    8.0569
    2.340    8.1622
    2.355    8.2780
    2.370    7.9726
    2.385    8.1833
    2.400    8.2254
    2.415    8.1938
    2.430    8.1938
    2.445    8.0463
    2.460    8.1411
    2.475    7.6356
    2.490    7.6145
    2.505    7.8778
    2.520    8.3307
    2.535    7.9305
    2.550    8.0885
    2.565    7.6251
    2.580    7.7304
    2.595    7.7620
    2.610    7.8146
    2.625    7.5829
    2.640    7.9831
    2.655    7.1933
    2.670    7.0142
    2.685    7.3091
    2.700    7.1722
    2.715    7.2038
    2.730    7.4144
    2.745    7.5829
    2.760    7.5724
    2.775    7.3196
    2.790    7.5829
    2.805    7.6883
    2.820    8.2149
    2.835    7.5829
    2.850    7.7199
    2.865    7.4460
    2.880    7.4039
    2.895    7.2038
    2.910    7.4671
    2.925    7.4987
    2.940    7.3618
    2.955    7.3934
    2.970    7.6461
    2.985    7.2249
    3.000    7.5408
    3.015    7.2880
    3.030    7.5513
    3.045    7.9516
    3.060    7.8146
    3.075    7.4987
    3.090    7.3091
    3.105    7.7936
    3.120    7.9410
    3.135    8.1095
    3.150    8.1727
    3.165    7.9621
    3.180    7.6567
    3.195    7.9516
    3.210    8.0885
    3.225    7.8252
    3.240    7.8568
    3.255    7.8568
    3.270    7.8462
    3.285    7.9621
    3.300    8.0674
    3.315    8.6256
    3.330    8.4255
    3.345    7.9516
    3.360    8.2043
    3.375    8.3834
    3.390    8.6572
    3.405    8.8468
    3.420    8.7941
    3.435    8.8889
    3.450    8.5308
    3.465    8.7098
    3.480    9.1838
    3.495    9.3312
    3.510    8.8468
    3.525    8.9731
    3.540    8.9415
    3.555    9.3734
    3.570    9.2575
    3.585    9.4365
    3.600    8.9942
    3.615    9.4576
    3.630    9.9210
    3.645   10.4476
    3.660   10.0685
    3.675   10.0474
    3.690   10.5635
    3.705   10.5213
    3.720   10.7004
    3.735   10.8373
    3.750   11.8483
    3.765   11.8589
    3.780   12.4697
    3.795   13.4808
    3.810   13.7546
    3.825   14.5340
    3.840   15.6714
    3.855   16.5561
    3.870   16.5982
    3.885   15.9347
    3.900   14.7551
    3.915   13.3439
    3.930   11.6482
    3.945    9.9315
    3.960    8.8046
    3.975    8.4466
    3.990    7.8673
    4.005    7.5935
    4.020    7.6988
    4.035    7.6567
    4.050    7.4882
    4.065    6.8246
    4.080    7.0879
    4.095    7.2249
    4.110    7.1090
    4.125    6.8246
    4.140    6.8773
    4.155    6.9932
    4.170    6.4982
    4.185    6.8352
    4.200    6.8141
    4.215    6.6456
    4.230    6.7299
    4.245    6.7720
    4.260    6.4876
    4.275    6.8246
    4.290    6.7825
    4.305    7.2986
    4.320    7.2986
    4.335    7.1827
    4.350    6.8457
    4.365    6.7299
    4.380    7.1090
    4.395    6.4876
    4.410    6.4876
    4.425    6.8668
    4.440    7.0142
    4.455    7.1195
    4.470    6.6983
    4.485    6.6140
    4.500    6.7825
    4.515    7.0879
    4.530    6.7720
    4.545    6.6772
    4.560    6.9616
    4.575    6.7193
    4.590    6.4876
    4.605    6.6351
    4.620    6.8246
    4.635    6.6140
    4.650    6.6877
    4.665    6.6035
    4.680    6.7509
    4.695    6.4771
    4.710    6.6035
    4.725    6.9089
    4.740    6.6667
    4.755    6.5087
    4.770    6.9616
    4.785    7.0563
    4.800    6.8246
    4.815    6.7299
    4.830    6.6456
    4.845    6.8141
    4.860    6.4666
    4.875    6.6035
    4.890    6.4876
    4.905    6.8668
    4.920    6.7509
    4.935    6.9405
    4.950    6.8984
    4.965    6.4666
    4.980    6.5508
    4.995    7.1301
    5.010    6.9510
    5.025    6.8668
    5.040    6.6456
    5.055    6.5719
    5.070    6.8773
    5.085    6.8562
    5.100    6.7509
    5.115    6.9932
    5.130    6.6667
    5.145    6.8246
    5.160    6.9510
    5.175    6.8878
    5.190    6.9826
    5.205    6.7825
    5.220    6.6772
    5.235    6.8562
    5.250    6.9826
    5.265    7.2249
    5.280    7.2775
    5.295    7.2565
    5.310    7.1933
    5.325    7.3196
    5.340    7.4566
    5.355    7.1301
    5.370    7.3934
    5.385    7.4566
    5.400    7.8252
    5.415    7.5935
    5.430    7.5513
    5.445    7.9094
    5.460    8.3623
    5.475    8.4466
    5.490    8.0990
    5.505    8.3728
    5.520    8.1201
    5.535    8.2780
    5.550    7.9726
    5.565    7.2038
    5.580    7.2986
    5.595    6.7720
    5.610    6.7615
    5.625    6.7404
    5.640    6.6561
    5.655    7.1933
    5.670    6.7930
    5.685    6.4771
    5.700    6.7299
    5.715    6.5929
    5.730    6.9405
    5.745    7.0879
    5.760    6.9089
    5.775    6.3402
    5.790    6.2033
    5.805    6.7088
    5.820    6.7193
    5.835    6.6456
    5.850    6.6140
    5.865    6.5298
    5.880    6.7404
    5.895    6.8984
    5.910    6.8141
    5.925    6.6035
    5.940    6.8141
    5.955    6.8141
    5.970    6.7509
    5.985    6.4034
    6.000    6.3507
    6.015    6.3296
    6.030    6.4666
    6.045    6.7509
    6.060    6.6140
    6.075    6.4666
    6.090    6.6877
    6.105    6.4982
    6.120    6.1717
    6.135    6.8562
    6.150    6.7825
    6.165    6.4666
    6.180    6.8984
    6.195    6.7193
    6.210    6.5298
    6.225    6.2665
    6.240    6.7930
    6.255    6.6456
    6.270    6.7615
    6.285    6.6245
    6.300    6.6772
    6.315    6.3086
    6.330    7.0248
    6.345    6.7088
    6.360    6.9932
    6.375    6.8773
    6.390    6.7193
    6.405    6.6561
    6.420    6.6035
    6.435    6.8562
    6.450    6.6035
    6.465    7.0879
    6.480    7.0458
    6.495    7.2880
    6.510    6.9194
    6.525    7.2670
    6.540    7.4671
    6.555    7.2670
    6.570    7.6883
    6.585    7.6040
    6.600    7.6461
    6.615    7.7093
    6.630    7.7725
    6.645    8.2675
    6.660    8.3096
    6.675    8.3623
    6.690    8.4676
    6.705    8.8994
    6.720    9.1627
    6.735    9.0679
    6.750    9.4155
    6.765    9.0574
    6.780    8.3412
    6.795    7.7514
    6.810    7.6883
    6.825    7.2038
    6.840    7.0353
    6.855    7.0774
    6.870    7.0458
    6.885    6.7193
    6.900    6.7088
    6.915    6.7404
    6.930    6.4560
    6.945    6.8562
    6.960    6.8878
    6.975    6.9194
    6.990    6.9826
    7.005    6.6667
    7.020    6.8141
    7.035    6.7720
    7.050    6.8246
    7.065    6.8352
    7.080    7.0458
    7.095    6.7088
    7.110    6.6456
    7.125    6.5298
    7.140    6.8878
    7.155    6.5508
    7.170    6.6035
    7.185    6.7193
    7.200    6.5087
    7.215    6.7615
    7.230    6.5929
    7.245    6.8773
    7.260    6.9089
    7.275    6.6561
    7.290    6.8773
    7.305    6.7404
    7.320    6.8773
    7.335    6.9932
    7.350    6.9405
    7.365    6.8036
    7.380    6.7930
    7.395    6.6456
    7.410    6.3928
    7.425    6.8246
    7.440    6.8878
    7.455    6.8773
    7.470    6.7299
    7.485    6.6140
    7.500    6.9194
    7.515    7.0458
    7.530    7.6145
    7.545    7.0037
    7.560    6.6877
    7.575    6.7509
    7.590    7.1301
    7.605    6.8352
    7.620    6.8668
    7.635    7.1511
    7.650    7.1933
    7.665    6.8773
    7.680    7.1511
    7.695    7.3828
    7.710    7.1511
    7.725    7.8673
    7.740    7.8673
    7.755    7.9621
    7.770    8.2464
    7.785    8.1517
    7.800    7.9516
    7.815    7.8462
    7.830    7.8357
    7.845    7.6883
    7.860    7.4776
    7.875    7.2038
    7.890    7.1827
    7.905    7.0669
    7.920    6.9616
    7.935    6.7088
    7.950    6.8668
    7.965    6.7615
    7.980    6.9510
    7.995    7.0985
    8.010    7.3196
    8.025    6.6772
    8.040    6.7299
    8.055    6.8036
    8.070    7.2354
    8.085    7.0037
    8.100    6.6351
    8.115    6.8668
    8.130    6.9089
    8.145    7.0142
    8.160    7.1090
    8.175    7.2880
    8.190    7.0985
    8.205    7.1301
    8.220    7.2775
    8.235    7.4566
    8.250    7.2249
    8.265    6.9721
    8.280    6.8036
    8.295    7.1406
    8.310    7.2986
    8.325    6.7193
    8.340    7.2880
    8.355    7.3723
    8.370    7.4039
    8.385    7.1301
    8.400    7.2880
    8.415    6.9089
    8.430    7.6777
    8.445    7.0774
    8.460    7.1090
    8.475    7.1722
    8.490    7.1195
    8.505    6.9194
    8.520    7.1195
    8.535    7.3934
    8.550    7.3091
    8.565    7.1195
    8.580    7.0353
    8.595    7.1090
    8.610    7.4566
    8.625    7.4776
    8.640    7.1617
    8.655    7.3828
    8.670    7.5303
    8.685    7.6883
    8.700    7.6145
    8.715    7.4776
    8.730    7.1090
    8.745    7.6461
    8.760    7.0563
    8.775    7.5513
    8.790    7.2038
    8.805    7.5619
    8.820    7.1933
    8.835    7.2459
    8.850    7.4039
    8.865    7.6356
    8.880    6.8878
    8.895    7.0037
    8.910    7.0142
    8.925    7.2354
    8.940    7.6251
    8.955    7.7514
    8.970    7.7620
    8.985    7.7093
    9.000    7.4776
    9.015    7.4460
    9.030    7.6777
    9.045    7.8462
    9.060    7.7199
    9.075    7.7620
    9.090    7.2459
    9.105    7.4355
    9.120    7.6461
    9.135    7.6883
    9.150    7.0669
    9.165    7.7725
    9.180    8.1306
    9.195    8.1095
    9.210    7.8989
    9.225    7.9200
    9.240    8.0463
    9.255    8.2991
    9.270    8.5940
    9.285    8.0990
    9.300    8.4466
    9.315    8.7520
    9.330    8.7520
    9.345    7.6672
    9.360    8.0885
    9.375    8.6993
    9.390    8.6888
    9.405    8.6888
    9.420    8.7520
    9.435    9.0995
    9.450    9.2680
    9.465    9.6998
    9.480    9.6261
    9.495    9.3628
    9.510    9.7525
    9.525   10.1211
    9.540   11.2375
    9.555   11.4165
    9.570   10.6161
    9.585   10.3528
    9.600    9.6156
    9.615    9.2680
    9.630    8.4571
    9.645    7.9937
    9.660    7.6461
    9.675    7.4039
    9.690    7.6251
    9.705    7.7409
    9.720    7.9410
    9.735    7.0458
    9.750    7.2038
    9.765    7.5935
    9.780    7.2249
    9.795    7.3723
    9.810    7.6567
    9.825    7.6040
    9.840    7.0563
    9.855    7.2775
    9.870    6.7720
    9.885    7.4987
    9.900    7.4987
    9.915    6.9194
    9.930    7.5619
    9.945    7.8989
    9.960    7.7093
    9.975    7.6777
    9.990    7.9937
   10.005    7.7830
   10.020    7.4460
   10.035    7.6356
   10.050    7.8884
   10.065    8.1201
   10.080    7.9094
   10.095    7.8041
   10.110    7.9305
   10.125    7.8989
   10.140    8.1622
   10.155    7.9516
   10.170    8.0779
   10.185    8.2886
   10.200    8.1517
   10.215    8.5519
   10.230    9.0995
   10.245    9.2364
   10.260    8.9310
   10.275    9.2891
   10.290    9.7946
   10.305   10.0790
   10.320    9.9631
   10.335   10.0685
   10.350    9.2470
   10.365    8.4887
   10.380    8.6993
   10.395    8.2149
   10.410    7.8989
   10.425    7.5724
   10.440    7.2775
   10.455    7.2249
   10.470    7.1722
   10.485    7.3407
   10.500    7.1617
   10.515    7.8884
   10.530    7.7093
   10.545    7.4144
   10.560    7.4039
   10.575    7.1406
   10.590    7.5197
   10.605    6.9826
   10.620    7.4776
   10.635    7.3618
   10.650    7.4987
   10.665    7.8778
   10.680    6.9932
   10.695    6.9616
   10.710    7.8041
   10.725    7.0879
   10.740    7.0142
   10.755    7.2880
   10.770    7.1090
   10.785    7.3512
   10.800    7.4987
   10.815    7.2565
   10.830    7.4355
   10.845    7.4250
   10.860    7.8462
   10.875    7.7304
   10.890    7.6461
   10.905    7.9410
   10.920    7.3723
   10.935    7.4882
   10.950    7.4671
   10.965    7.8357
   10.980    8.1306
   10.995    8.2043
   11.010    8.2254
   11.025    8.3518
   11.040    8.3939
   11.055    8.3307
   11.070    7.8252
   11.085    8.2886
   11.100    8.3939
   11.115    7.8041
   11.130    7.2459
   11.145    6.9826
   11.160    6.7509
   11.175    7.1406
   11.190    7.1933
   11.205    6.8352
   11.220    6.9616
   11.235    7.1617
   11.250    6.9300
   11.265    7.0037
   11.280    6.7299
   11.295    7.1933
   11.310    6.8457
   11.325    6.9300
   11.340    7.2775
   11.355    6.9510
   11.370    7.1406
   11.385    7.0353
   11.400    6.9405
   11.415    6.8246
   11.430    7.1195
   11.445    7.0563
   11.460    6.6667
   11.475    7.2880
   11.490    6.9300
   11.505    6.8352
   11.520    6.9510
   11.535    7.6567
   11.550    7.1090
   11.565    7.1406
   11.580    7.6672
   11.595    7.7409
   11.610    7.9200
   11.625    7.7514
   11.640    7.8778
   11.655    8.0042
   11.670    8.3202
   11.685    8.3202
   11.700    8.3518
   11.715    8.6677
   11.730    8.3834
   11.745    8.5203
   11.760    8.4360
   11.775    7.4039
   11.790    7.2775
   11.805    7.2038
   11.820    7.1090
   11.835    7.0353
   11.850    6.7299
   11.865    6.7509
   11.880    6.5087
   11.895    6.4982
   11.910    6.2454
   11.925    6.5403
   11.940    6.4876
   11.955    6.8352
   11.970    7.1406
   11.985    6.8352
   12.000    6.7825
   12.015    6.5403
   12.030    6.4876
   12.045    6.6456
   12.060    6.4244
   12.075    7.0669
   12.090    6.7299
   12.105    7.0142
   12.120    6.9089
   12.135    6.7299
   12.150    6.7088
   12.165    6.8562
   12.180    6.5192
   12.195    6.7088
   12.210    7.1406
   12.225    7.0353
   12.240    6.8773
   12.255    7.1090
   12.270    7.2354
   12.285    6.8457
   12.300    6.9616
   12.315    6.7930
   12.330    6.9405
   12.345    6.6877
   12.360    6.7930
   12.375    6.7825
   12.390    6.9089
   12.405    6.8457
   12.420    6.9932
   12.435    6.7930
   12.450    6.9405
   12.465    6.9089
   12.480    6.8036
   12.495    6.8984
   12.510    6.6035
   12.525    6.4666
   12.540    6.7825
   12.555    6.6035
   12.570    6.4982
   12.585    6.9089
   12.600    6.9616
   12.615    6.6772
   12.630    6.6351
   12.645    6.7299
   12.660    6.6456
   12.675    6.6772
   12.690    6.8562
   12.705    6.8878
   12.720    6.3402
   12.735    6.6667
   12.750    6.5719
   12.765    6.9089
   12.780    6.7193
   12.795    6.2981
   12.810    6.7509
   12.825    7.1827
   12.840    7.1722
   12.855    7.3512
   12.870    7.1511
   12.885    7.2880
   12.900    7.3828
   12.915    7.6040
   12.930    7.4987
   12.945    7.6777
   12.960    8.0674
   12.975    7.9937
   12.990    7.8568
   13.005    7.9305
   13.020    7.3196
   13.035    6.9826
   13.050    6.6877
   13.065    6.7509
   13.080    6.7088
   13.095    6.3823
   13.110    6.7404
   13.125    7.0037
   13.140    6.3296
   13.155    6.6667
   13.170    6.8246
   13.185    6.7930
   13.200    6.7825
   13.215    6.7825
   13.230    6.3507
   13.245    6.2559
   13.260    6.7088
   13.275    6.3718
   13.290    6.4455
   13.305    6.6877
   13.320    6.3402
   13.335    6.6140
   13.350    6.8036
   13.365    6.3928
   13.380    6.4244
   13.395    6.4034
   13.410    6.3928
   13.425    6.6877
   13.440    6.5824
   13.455    6.3612
   13.470    6.5508
   13.485    6.4560
   13.500    6.6351
   13.515    6.9932
   13.530    6.8562
   13.545    6.9616
   13.560    6.7193
   13.575    6.8878
   13.590    7.0142
   13.605    6.7299
   13.620    6.5824
   13.635    6.3086
   13.650    6.5613
   13.665    6.6035
   13.680    6.4455
   13.695    6.6351
   13.710    6.5403
   13.725    6.3718
   13.740    6.0453
   13.755    6.2875
   13.770    6.5613
   13.785    6.6035
   13.800    6.4771
   13.815    6.2033
   13.830    6.1717
   13.845    6.2138
   13.860    6.5298
   13.875    6.6140
   13.890    6.4244
   13.905    6.2033
   13.920    6.3402
   13.935    6.7825
   13.950    6.7930
   13.965    6.8878
   13.980    6.7825
   13.995    7.0458
   14.010    7.0985
   14.025    7.1090
   14.040    7.2354
   14.055    7.1406
   14.070    6.7404
   14.085    6.6561
   14.100    7.4460
   14.115    7.2880
   14.130    6.8773
   14.145    6.9826
   14.160    6.7088
   14.175    6.9616
   14.190    6.4350
   14.205    6.5719
   14.220    6.3402
   14.235    6.4455
   14.250    6.3928
   14.265    6.2981
   14.280    6.4034
   14.295    6.3928
   14.310    6.3718
   14.325    6.4982
   14.340    6.5824
   14.355    6.0348
   14.370    6.2033
   14.385    6.4034
   14.400    6.4244
   14.415    6.4455
   14.430    6.4244
   14.445    6.2033
   14.460    6.3928
   14.475    6.3928
   14.490    6.1401
   14.505    6.1401
   14.520    6.1822
   14.535    6.4034
   14.550    6.4666
   14.565    6.2981
   14.580    6.3612
   14.595    6.2454
   14.610    6.0242
   14.625    6.0558
   14.640    5.8978
   14.655    6.4244
   14.670    6.4034
   14.685    6.8984
   14.700    6.5298
   14.715    6.2665
   14.730    6.4666
   14.745    6.6456
   14.760    6.4350
   14.775    6.3928
   14.790    6.2243
   14.805    6.4771
   14.820    6.4244
   14.835    6.3928
   14.850    6.5403
   14.865    6.6351
   14.880    6.7299
   14.895    6.4982
   14.910    6.3823
   14.925    6.3086
   14.940    6.2665
   14.955    6.5403
   14.970    6.3296
   14.985    6.3823
   15.000    6.6772
   15.015    6.4034
   15.030    6.5929
   15.045    6.9721
   15.060    6.3612
   15.075    6.1927
   15.090    6.4139
   15.105    6.5403
   15.120    6.7088
   15.135    6.9721
   15.150    6.6667
   15.165    6.6245
   15.180    6.4455
   15.195    6.5508
   15.210    6.6561
   15.225    6.5192
   15.240    6.7193
   15.255    6.6456
   15.270    6.6983
   15.285    6.8773
   15.300    6.7404
   15.315    6.7930
   15.330    6.5403
   15.345    6.3191
   15.360    6.2981
   15.375    6.5087
   15.390    6.6983
   15.405    6.2665
   15.420    6.9616
   15.435    6.6035
   15.450    6.4666
   15.465    6.2875
   15.480    6.5824
   15.495    6.2349
   15.510    6.5719
   15.525    6.6456
   15.540    6.1611
   15.555    6.3928
   15.570    6.3402
   15.585    6.2349
   15.600    6.3402
   15.615    6.2033
   15.630    6.8246
   15.645    6.5298
   15.660    6.2243
   15.675    6.5087
   15.690    6.3086
   15.705    6.4666
   15.720    6.5508
   15.735    6.6667
   15.750    6.4244
   15.765    6.5298
   15.780    6.5298
   15.795    6.4034
   15.810    6.1085
   15.825    6.2665
   15.840    7.0774
   15.855    6.4034
   15.870    6.1190
   15.885    6.1822
   15.900    6.3612
   15.915    6.3928
   15.930    6.2875
   15.945    6.8457
   15.960    6.5824
   15.975    6.4139
   15.990    6.4982
   16.005    6.4876
   16.020    6.3823
   16.035    6.4560
   16.050    6.8562
   16.065    6.5298
   16.080    6.7615
   16.095    6.6877
   16.110    7.1406
   16.125    6.7299
   16.140    6.6667
   16.155    6.7299
   16.170    6.8246
   16.185    6.8246
   16.200    6.6351
   16.215    6.4771
   16.230    6.7404
   16.245    6.8668
   16.260    6.1717
   16.275    6.5192
   16.290    6.1085
   16.305    6.1295
   16.320    6.2033
   16.335    6.3507
   16.350    6.4666
   16.365    6.5613
   16.380    6.3823
   16.395    6.6561
   16.410    6.0242
   16.425    6.5929
   16.440    6.6351
   16.455    6.5508
   16.470    6.2559
   16.485    6.4982
   16.500    6.5087
   16.515    6.8457
   16.530    6.6877
   16.545    6.5192
   16.560    6.5298
   16.575    6.7509
   16.590    6.5192
   16.605    6.9510
   16.620    6.8036
   16.635    6.7404
   16.650    6.8246
   16.665    6.8773
   16.680    6.6772
   16.695    6.6351
   16.710    6.9932
   16.725    6.7088
   16.740    6.6245
   16.755    6.2138
   16.770    6.5192
   16.785    6.6140
   16.800    6.8352
   16.815    7.0669
   16.830    6.6351
   16.845    6.3718
   16.860    6.4771
   16.875    6.8562
   16.890    6.7720
   16.905    6.3296
   16.920    6.4139
   16.935    6.9510
   16.950    6.6772
   16.965    6.9194
   16.980    6.9300
   16.995    7.3618
   17.010    7.5303
   17.025    7.0879
   17.040    7.1090
   17.055    7.7936
   17.070    7.8673
   17.085    7.6040
   17.100    7.3828
   17.115    7.2459
   17.130    7.1301
   17.145    7.2038
   17.160    7.3196
   17.175    6.8352
   17.190    6.4139
   17.205    6.5929
   17.220    6.6035
   17.235    6.4982
   17.250    6.4139
   17.265    6.5298
   17.280    6.0137
   17.295    6.5824
   17.310    6.8773
   17.325    6.7509
   17.340    6.5298
   17.355    6.4455
   17.370    6.5508
   17.385    6.9510
   17.400    6.7299
   17.415    6.6877
   17.430    6.7930
   17.445    6.2559
   17.460    6.4560
   17.475    6.5824
   17.490    6.6667
   17.505    6.6245
   17.520    6.8984
   17.535    6.6456
   17.550    6.6983
   17.565    6.8036
   17.580    6.7720
   17.595    6.6667
   17.610    6.5298
   17.625    7.0248
   17.640    6.8246
   17.655    6.6456
   17.670    6.5508
   17.685    6.6877
   17.700    6.4350
   17.715    6.6772
   17.730    6.1401
   17.745    6.4350
   17.760    6.9510
   17.775    6.6877
   17.790    6.1085
   17.805    6.5403
   17.820    6.5929
   17.835    6.7193
   17.850    6.8141
   17.865    6.7720
   17.880    6.7088
   17.895    6.7615
   17.910    6.6983
   17.925    6.4455
   17.940    6.2349
   17.955    6.4771
   17.970    6.6561
   17.985    7.0669
   18.000    7.0037
   18.015    6.7615
   18.030    6.7720
   18.045    6.6667
   18.060    6.7615
   18.075    6.3718
   18.090    6.7720
   18.105    6.8036
   18.120    6.8773
   18.135    6.5613
   18.150    6.2243
   18.165    6.4244
   18.180    6.5508
   18.195    7.0142
   18.210    6.4139
   18.225    6.6561
   18.240    6.9721
   18.255    6.5929
   18.270    6.6983
   18.285    7.0037
   18.300    7.2143
   18.315    6.8773
   18.330    6.7930
   18.345    6.8352
   18.360    6.7088
   18.375    6.6667
   18.390    6.9932
   18.405    7.0879
   18.420    6.8984
   18.435    6.8352
   18.450    6.6667
   18.465    6.9300
   18.480    6.4876
   18.495    6.2981
   18.510    6.5719
   18.525    6.8457
   18.540    6.7615
   18.555    6.6983
   18.570    6.3086
   18.585    6.2665
   18.600    6.1822
   18.615    6.5298
   18.630    6.6456
   18.645    6.4982
   18.660    6.6035
   18.675    6.5508
   18.690    6.3402
   18.705    6.5613
   18.720    6.6245
   18.735    6.5298
   18.750    6.6351
   18.765    6.4350
   18.780    6.8457
   18.795    7.1933
   18.810    6.8036
   18.825    6.8457
   18.840    6.5824
   18.855    6.4982
   18.870    6.6983
   18.885    6.9932
   18.900    6.9089
   18.915    6.5192
   18.930    6.7825
   18.945    7.3302
   18.960    7.2143
   18.975    7.0353
   18.990    7.0774
   19.005    7.0563
   19.020    7.6988
   19.035    7.4882
   19.050    6.8141
   19.065    6.6456
   19.080    6.6140
   19.095    6.7930
   19.110    6.6245
   19.125    6.5824
   19.140    6.7088
   19.155    6.5613
   19.170    6.5824
   19.185    6.9932
   19.200    7.0142
   19.215    6.8352
   19.230    6.3823
   19.245    6.3402
   19.260    6.9194
   19.275    7.0563
   19.290    6.8457
   19.305    6.6245
   19.320    6.6245
   19.335    6.6245
   19.350    6.6561
   19.365    6.6245
   19.380    6.8878
   19.395    6.6983
   19.410    6.3507
   19.425    6.4244
   19.440    6.5087
   19.455    6.5403
   19.470    6.9194
   19.485    6.7509
   19.500    7.2775
   19.515    6.8352
   19.530    6.8773
   19.545    6.5508
   19.560    6.8668
   19.575    6.9089
   19.590    7.0248
   19.605    6.8878
   19.620    6.5087
   19.635    7.0458
   19.650    7.4355
   19.665    7.3196
   19.680    7.3723
   19.695    6.6877
   19.710    6.7509
   19.725    6.7299
   19.740    6.8246
   19.755    6.7404
   19.770    7.3196
   19.785    6.8141
   19.800    6.9405
   19.815    6.9932
   19.830    7.0563
   19.845    7.1301
   19.860    6.7720
   19.875    6.6456
   19.890    6.8457
   19.905    6.9300
   19.920    7.1090
   19.935    6.6456
   19.950    6.6983
   19.965    6.6983
   19.980    6.6351
   19.995    6.8036
   20.010    6.7299
   20.025    6.6667
   20.040    6.9510
   20.055    6.8036
   20.070    6.9300
   20.085    6.9932
   20.100    6.8246
   20.115    6.7404
   20.130    6.6667
   20.145    6.6983
   20.160    7.3091
   20.175    7.0248
   20.190    6.8457
   20.205    6.7193
   20.220    7.0563
   20.235    7.0142
   20.250    6.8562
   20.265    6.5508
   20.280    6.8668
   20.295    7.2143
   20.310    7.2143
   20.325    7.1406
   20.340    6.9721
   20.355    7.3723
   20.370    7.4250
   20.385    7.5197
   20.400    7.2986
   20.415    7.4039
   20.430    7.4250
   20.445    7.1933
   20.460    7.2459
   20.475    7.2038
   20.490    6.9721
   20.505    6.4455
   20.520    6.9932
   20.535    7.4144
   20.550    7.0248
   20.565    6.5719
   20.580    6.8352
   20.595    7.2670
   20.610    6.7404
   20.625    6.6561
   20.640    7.2986
   20.655    7.1722
   20.670    6.9194
   20.685    6.5929
   20.700    6.9194
   20.715    6.9089
   20.730    6.7720
   20.745    6.5719
   20.760    6.7509
   20.775    7.1406
   20.790    7.1090
   20.805    7.3196
   20.820    7.2459
   20.835    6.7930
   20.850    6.9405
   20.865    6.6667
   20.880    6.9616
   20.895    6.6877
   20.910    6.9721
   20.925    6.5403
   20.940    6.8668
   20.955    6.6667
   20.970    6.6561
   20.985    6.4982
   21.000    6.8141
   21.015    6.4034
   21.030    6.8562
   21.045    6.5298
   21.060    6.8352
   21.075    6.9932
   21.090    7.2670
   21.105    7.2880
   21.120    6.8246
   21.135    7.1827
   21.150    7.0037
   21.165    7.0774
   21.180    7.2565
   21.195    7.4144
   21.210    6.8773
   21.225    7.0458
   21.240    6.9721
   21.255    6.9300
   21.270    6.7930
   21.285    6.7404
   21.300    6.8036
   21.315    6.9932
   21.330    7.0879
   21.345    7.0458
   21.360    7.0985
   21.375    7.0985
   21.390    6.8984
   21.405    6.7825
   21.420    6.5192
   21.435    6.3612
   21.450    6.7720
   21.465    6.9932
   21.480    6.6351
   21.495    6.8141
   21.510    6.7930
   21.525    7.0879
   21.540    6.6983
   21.555    6.7193
   21.570    7.0142
   21.585    6.5824
   21.600    6.8352
   21.615    6.8668
   21.630    7.0142
   21.645    7.0248
   21.660    7.0985
   21.675    6.7930
   21.690    6.8773
   21.705    6.5929
   21.720    7.1195
   21.735    7.3302
   21.750    7.2354
   21.765    7.3407
   21.780    7.3196
   21.795    7.4460
   21.810    7.4987
   21.825    7.6356
   21.840    7.3934
   21.855    7.4250
   21.870    7.5619
   21.885    7.2775
   21.900    7.4460
   21.915    7.5408
   21.930    7.2565
   21.945    6.9721
   21.960    7.5092
   21.975    7.4039
   21.990    7.1301
   22.005    6.9405
   22.020    6.9616
   22.035    7.4144
   22.050    7.1933
   22.065    7.1722
   22.080    7.1722
   22.095    7.1933
   22.110    7.1722
   22.125    7.0248
   22.140    7.0248
   22.155    7.5513
   22.170    7.2038
   22.185    7.7199
   22.200    7.6988
   22.215    7.5829
   22.230    7.1511
   22.245    7.3934
   22.260    7.2986
   22.275    6.8457
   22.290    6.8984
   22.305    7.1090
   22.320    7.3828
   22.335    7.5619
   22.350    7.5408
   22.365    7.4566
   22.380    6.9510
   22.395    7.2986
   22.410    7.7514
   22.425    7.1195
   22.440    7.8041
   22.455    8.0990
   22.470    7.8989
   22.485    7.6040
   22.500    7.6567
   22.515    8.2570
   22.530    8.3623
   22.545    8.5097
   22.560    8.1517
   22.575    8.2780
   22.590    8.4571
   22.605    8.1622
   22.620    8.3834
   22.635    8.1727
   22.650    7.3407
   22.665    7.5724
   22.680    7.5197
   22.695    7.2986
   22.710    7.1933
   22.725    7.0563
   22.740    7.3828
   22.755    7.8778
   22.770    7.6461
   22.785    7.6461
   22.800    8.1517
   22.815    7.6988
   22.830    7.3618
   22.845    7.5829
   22.860    8.2570
   22.875    7.6883
   22.890    8.2570
   22.905    8.2780
   22.920    8.2359
   22.935    8.5097
   22.950    7.8884
   22.965    7.9410
   22.980    8.0147
   22.995    8.0674
   23.010    7.7304
   23.025    7.9094
   23.040    8.1201
   23.055    7.5197
   23.070    6.8878
   23.085    7.1722
   23.100    7.2143
   23.115    7.3828
   23.130    7.2775
   23.145    7.4144
   23.160    7.5724
   23.175    7.2565
   23.190    7.1933
   23.205    7.6777
   23.220    7.6145
   23.235    7.0774
   23.250    7.3934
   23.265    7.7620
   23.280    6.6245
   23.295    7.1722
   23.310    7.5829
   23.325    7.2038
   23.340    6.9089
   23.355    7.1301
   23.370    7.2354
   23.385    7.4671
   23.400    7.0248
   23.415    7.3196
   23.430    7.1195
   23.445    7.6040
   23.460    7.2143
   23.475    7.3512
   23.490    7.5408
   23.505    7.4355
   23.520    7.0353
   23.535    7.0353
   23.550    7.1195
   23.565    7.3828
   23.580    7.7725
   23.595    7.6145
   23.610    7.5408
   23.625    7.7514
   23.640    7.6461
   23.655    7.0985
   23.670    7.1090
   23.685    7.0774
   23.700    7.3618
   23.715    7.0774
   23.730    6.9405
   23.745    6.8668
   23.760    7.1617
   23.775    7.1827
   23.790    7.1090
   23.805    6.6456
   23.820    7.2038
   23.835    7.3723
   23.850    7.0879
   23.865    7.1827
   23.880    7.6883
   23.895    7.2143
   23.910    6.9721
   23.925    7.5935
   23.940    7.1511
   23.955    6.9405
   23.970    7.4039
   23.985    7.1827
   24.000    6.8984
   24.015    7.1195
   24.030    6.9721
   24.045    7.4250
   24.060    7.4250
   24.075    7.1722
   24.090    7.2565
   24.105    7.1933
   24.120    7.1301
   24.135    6.9721
   24.150    7.0879
   24.165    7.0037
   24.180    6.9616
   24.195    6.7825
   24.210    6.8141
   24.225    7.1301
   24.240    7.0037
   24.255    6.7825
   24.270    6.8878
   24.285    6.9300
   24.300    7.1933
   24.315    6.8457
   24.330    6.9721
   24.345    6.9405
   24.360    6.7299
   24.375    6.8773
   24.390    6.9300
   24.405    7.0037
   24.420    6.7720
   24.435    6.8036
   24.450    7.1617
   24.465    6.8246
   24.480    7.1301
   24.495    7.3828
   24.510    7.3302
   24.525    7.0563
   24.540    7.0142
   24.555    7.4671
   24.570    7.2459
   24.585    7.3407
   24.600    7.2565
   24.615    7.4144
   24.630    6.9089
   24.645    6.8141
   24.660    6.8668
   24.675    6.6877
   24.690    6.7825
   24.705    7.2986
   24.720    7.2249
   24.735    6.9510
   24.750    7.1722
   24.765    7.0353
   24.780    6.8562
   24.795    6.9721
   24.810    7.0142
   24.825    7.1195
   24.840    7.6145
   24.855    7.3512
   24.870    7.0985
   24.885    7.0353
   24.900    7.1933
   24.915    7.2565
   24.930    7.0037
   24.945    7.3723
   24.960    6.8036
   24.975    6.7930
   24.990    6.9300
   25.005    6.6877
   25.020    6.6877
   25.035    7.0669
   25.050    7.0142
   25.065    7.0458
   25.080    6.8352
   25.095    7.0248
   25.110    7.1617
   25.125    6.8878
   25.140    7.2880
   25.155    7.1933
   25.170    6.8457
   25.185    7.0248
   25.200    7.2565
   25.215    7.2880
   25.230    6.5719
   25.245    7.0985
   25.260    6.7615
   25.275    6.6667
   25.290    6.8457
   25.305    7.0563
   25.320    6.7404
   25.335    7.1617
   25.350    7.0669
   25.365    6.8457
   25.380    7.1722
   25.395    7.3407
   25.410    7.1933
   25.425    6.7930
   25.440    6.7088
   25.455    7.4566
   25.470    7.2565
   25.485    7.2986
   25.500    7.3196
   25.515    7.2670
   25.530    7.4144
   25.545    7.3723
   25.560    7.1933
   25.575    7.3407
   25.590    7.0458
   25.605    7.0879
   25.620    7.0774
   25.635    7.1406
   25.650    7.1090
   25.665    7.0142
   25.680    7.1195
   25.695    7.4355
   25.710    6.8668
   25.725    7.2775
   25.740    7.3934
   25.755    7.3512
   25.770    7.1511
   25.785    7.5092
   25.800    7.5724
   25.815    7.2354
   25.830    7.4566
   25.845    7.7199
   25.860    7.6251
   25.875    7.4460
   25.890    7.4776
   25.905    7.0353
   25.920    7.2249
   25.935    7.2986
   25.950    7.0774
   25.965    7.3512
   25.980    6.7404
   25.995    6.7299
   26.010    6.6351
   26.025    6.6561
   26.040    6.7720
   26.055    6.8878
   26.070    6.7825
   26.085    6.7615
   26.100    7.0669
   26.115    6.9616
   26.130    6.8984
   26.145    6.8984
   26.160    7.0248
   26.175    7.0669
   26.190    7.3934
   26.205    7.0142
   26.220    6.7615
   26.235    6.5719
   26.250    6.4034
   26.265    6.6351
   26.280    6.8246
   26.295    6.7720
   26.310    6.8773
   26.325    6.9826
   26.340    6.9194
   26.355    7.0563
   26.370    6.8984
   26.385    7.1617
   26.400    7.0879
   26.415    7.0037
   26.430    7.0563
   26.445    6.8668
   26.460    7.2459
   26.475    6.8773
   26.490    7.0563
   26.505    6.9194
   26.520    6.9194
   26.535    6.9510
   26.550    6.9510
   26.565    6.6351
   26.580    6.3928
   26.595    6.7509
   26.610    6.9194
   26.625    6.7825
   26.640    7.0879
   26.655    6.9194
   26.670    6.5719
   26.685    6.6561
   26.700    6.4666
   26.715    6.7404
   26.730    7.4566
   26.745    6.8457
   26.760    6.3928
   26.775    6.4560
   26.790    6.6140
   26.805    6.9089
   26.820    6.5613
   26.835    6.7930
   26.850    6.7193
   26.865    6.8773
   26.880    6.9194
   26.895    7.2249
   26.910    7.0774
   26.925    6.9510
   26.940    6.5824
   26.955    7.2249
   26.970    7.0037
   26.985    6.7088
   27.000    7.2143
   27.015    7.2565
   27.030    6.9826
   27.045    7.4671
   27.060    7.4355
   27.075    7.4671
   27.090    7.1827
   27.105    7.2775
   27.120    6.8246
   27.135    7.2249
   27.150    7.0458
   27.165    6.8878
   27.180    6.2454
   27.195    6.9089
   27.210    6.7088
   27.225    6.4876
   27.240    6.6351
   27.255    6.6561
   27.270    6.4034
   27.285    6.5719
   27.300    6.5508
   27.315    6.6035
   27.330    6.4560
   27.345    6.8562
   27.360    6.7404
   27.375    6.7930
   27.390    6.8878
   27.405    7.0879
   27.420    6.6351
   27.435    6.7930
   27.450    6.7088
   27.465    6.6667
   27.480    6.9089
   27.495    6.4982
   27.510    6.6245
   27.525    6.4560
   27.540    6.7193
   27.555    6.4666
   27.570    6.4666
   27.585    6.8141
   27.600    7.2565
   27.615    6.8562
   27.630    7.1090
   27.645    6.7509
   27.660    6.9089
   27.675    6.9405
   27.690    7.1827
   27.705    6.7088
   27.720    6.2665
   27.735    6.6877
   27.750    6.7615
   27.765    6.5613
   27.780    6.6351
   27.795    6.6667
   27.810    7.3091
   27.825    7.0563
   27.840    6.8878
   27.855    6.9616
   27.870    6.8562
   27.885    7.0037
   27.900    7.1090
   27.915    6.9616
   27.930    6.9510
   27.945    7.0458
   27.960    6.8668
   27.975    7.0563
   27.990    7.2670
   28.005    7.6988
   28.020    7.2670
   28.035    7.4987
   28.050    6.8036
   28.065    6.6561
   28.080    6.8984
   28.095    6.9721
   28.110    6.5508
   28.125    6.6351
   28.140    6.5929
   28.155    6.6772
   28.170    7.1511
   28.185    6.9405
   28.200    7.3512
   28.215    7.0248
   28.230    7.1933
   28.245    6.8141
   28.260    7.0669
   28.275    6.8352
   28.290    6.7404
   28.305    6.7404
   28.320    6.6035
   28.335    6.4982
   28.350    6.5824
   28.365    6.5613
   28.380    6.8141
   28.395    6.8352
   28.410    6.7404
   28.425    6.8352
   28.440    6.7088
   28.455    6.7193
   28.470    6.4455
   28.485    6.5719
   28.500    6.6245
   28.515    6.4139
   28.530    6.5192
   28.545    6.4876
   28.560    6.9300
   28.575    7.1406
   28.590    6.6561
   28.605    6.7299
   28.620    6.6561
   28.635    6.2349
   28.650    6.4139
   28.665    6.2981
   28.680    6.7509
   28.695    6.6035
   28.710    6.3507
   28.725    6.8352
   28.740    6.6456
   28.755    6.7193
   28.770    6.5929
   28.785    6.4982
   28.800    6.3296
   28.815    6.6245
   28.830    6.3086
   28.845    6.4666
   28.860    6.7930
   28.875    6.9300
   28.890    6.6561
   28.905    6.7193
   28.920    6.5929
   28.935    6.5824
   28.950    6.7615
   28.965    6.4666
   28.980    6.8036
   28.995    6.9405
   29.010    7.1511
   29.025    6.7509
   29.040    6.3612
   29.055    6.8668
   29.070    7.0248
   29.085    6.9194
   29.100    6.3612
   29.115    6.2981
   29.130    6.4244
   29.145    6.5087
   29.160    6.4034
   29.175    6.5298
   29.190    6.5087
   29.205    6.7299
   29.220    6.6877
   29.235    6.3928
   29.250    6.6772
   29.265    6.6245
   29.280    6.7825
   29.295    6.8668
   29.310    6.3086
   29.325    6.5403
   29.340    6.4666
   29.355    6.5192
   29.370    6.2770
   29.385    6.8457
   29.400    6.5613
   29.415    6.2033
   29.430    6.6877
   29.445    6.7088
   29.460    6.3402
   29.475    6.7615
   29.490    6.2454
   29.505    6.1085
   29.520    6.6035
   29.535    6.6035
   29.550    6.1190
   29.565    6.4139
   29.580    6.4771
   29.595    6.4455
   29.610    6.2454
   29.625    6.6561
   29.640    6.4771
   29.655    6.8457
   29.670    6.3402
   29.685    6.0979
   29.700    6.2138
   29.715    6.2243
   29.730    6.3296
   29.745    6.7088
   29.760    6.4666
   29.775    6.7088
   29.790    6.2981
   29.805    6.3402
   29.820    6.2770
   29.835    6.8457
   29.850    6.2349
   29.865    6.2981
   29.880    6.4771
   29.895    6.3612
   29.910    6.3928
   29.925    6.2349
   29.940    6.0664
   29.955    6.4560
   29.970    6.4139
   29.985    6.4666
   30.000    6.3823
   30.015    6.4982
   30.030    6.6667
   30.045    6.4666
   30.060    6.3612
   30.075    6.3928
   30.090    6.2875
   30.105    6.0032
   30.120    6.2770
   30.135    6.2033
   30.150    6.2875
   30.165    6.1401
   30.180    5.9610
   30.195    6.3823
   30.210    6.3823
   30.225    5.9610
   30.240    5.9189
   30.255    6.5613
   30.270    6.4982
   30.285    5.9926
   30.300    5.9189
   30.315    6.4666
   30.330    6.3191
   30.345    6.2665
   30.360    6.5719
   30.375    6.2981
   30.390    6.4350
   30.405    6.2981
   30.420    6.3928
   30.435    6.3612
   30.450    6.3296
   30.465    6.5192
   30.480    6.2559
   30.495    6.4034
   30.510    6.2875
   30.525    6.1085
   30.540    6.2138
   30.555    6.0348
   30.570    6.5719
   30.585    5.9505
   30.600    5.8662
   30.615    6.2981
   30.630    6.4244
   30.645    6.2559
   30.660    5.9084
   30.675    6.2349
   30.690    6.2665
   30.705    6.4139
   30.720    5.8768
   30.735    6.3612
   30.750    5.8557
   30.765    6.2138
   30.780    6.0769
   30.795    6.0979
   30.810    6.2033
   30.825    5.9084
   30.840    5.8662
   30.855    6.0769
   30.870    6.1611
   30.885    5.8452
   30.900    5.9716
   30.915    5.7083
   30.930    5.5398
   30.945    5.8768
   30.960    5.8873
   30.975    5.9505
   30.990    6.0032
   31.005    6.2243
   31.020    6.3086
   31.035    5.8241
   31.050    6.1611
   31.065    6.2454
   31.080    6.0242
   31.095    5.6767
   31.110    5.8873
   31.125    5.7188
   31.140    5.9821
   31.155    6.0453
   31.170    5.7188
   31.185    6.1927
   31.200    6.2770
   31.215    6.0874
   31.230    5.7820
   31.245    6.0769
   31.260    6.0137
   31.275    6.2243
   31.290    6.0032
   31.305    6.1927
   31.320    6.1506
   31.335    6.0979
   31.350    6.5087
   31.365    6.3296
   31.380    6.6351
   31.395    6.2770
   31.410    6.0664
   31.425    6.1295
   31.440    6.2665
   31.455    6.1717
   31.470    6.4771
   31.485    6.1085
   31.500    6.0453
   31.515    6.1295
   31.530    5.9400
   31.545    6.2349
   31.560    6.1401
   31.575    6.1295
   31.590    6.1611
   31.605    6.3928
   31.620    6.0348
   31.635    5.8136
   31.650    5.9294
   31.665    6.3086
   31.680    6.6035
   31.695    6.1822
   31.710    5.9821
   31.725    6.1295
   31.740    6.1190
   31.755    6.2454
   31.770    6.6351
   31.785    6.2770
   31.800    6.3507
   31.815    6.3612
   31.830    6.1295
   31.845    6.4771
   31.860    6.2138
   31.875    6.3086
   31.890    6.2033
   31.905    6.2138
   31.920    5.9716
   31.935    6.0453
   31.950    6.1506
   31.965    5.8557
   31.980    6.3507
   31.995    6.2243
   32.010    6.3402
   32.025    6.1611
   32.040    6.3507
   32.055    6.2559
   32.070    6.2559
   32.085    6.5508
   32.100    6.4771
   32.115    6.2559
   32.130    6.5087
   32.145    6.6351
   32.160    6.4982
   32.175    6.1401
   32.190    6.0664
   32.205    5.8136
   32.220    6.0664
   32.235    6.0558
   32.250    6.2138
   32.265    5.9505
   32.280    5.8136
   32.295    5.8873
   32.310    5.5398
   32.325    5.9716
   32.340    5.8347
   32.355    5.8136
   32.370    5.6240
   32.385    5.5819
   32.400    5.7715
   32.415    5.8452
   32.430    6.0979
   32.445    6.2559
   32.460    5.8136
   32.475    5.8347
   32.490    5.6977
   32.505    5.7715
   32.520    5.8557
   32.535    5.7925
   32.550    5.8557
   32.565    5.3502
   32.580    5.6977
   32.595    5.5714
   32.610    5.5819
   32.625    5.8873
   32.640    5.8768
   32.655    5.6135
   32.670    6.1190
   32.685    5.8662
   32.700    5.7609
   32.715    5.4344
   32.730    5.7504
   32.745    5.8241
   32.760    5.3607
   32.775    5.8031
   32.790    5.6451
   32.805    5.8136
   32.820    5.8978
   32.835    5.9610
   32.850    5.6135
   32.865    5.8452
   32.880    5.7504
   32.895    6.0032
   32.910    6.0874
   32.925    5.6556
   32.940    5.9294
   32.955    6.0453
   32.970    5.8452
   32.985    5.6661
   33.000    5.6767
   33.015    5.5292
   33.030    5.6240
   33.045    5.8662
   33.060    5.6556
   33.075    5.8978
   33.090    5.6451
   33.105    5.5187
   33.120    5.5714
   33.135    5.6345
   33.150    5.7925
   33.165    5.8347
   33.180    5.5608
   33.195    5.9189
   33.210    5.7399
   33.225    5.5924
   33.240    5.6345
   33.255    5.4871
   33.270    5.6556
   33.285    5.5714
   33.300    5.4871
   33.315    5.7188
   33.330    5.5398
   33.345    5.4344
   33.360    5.8241
   33.375    5.6661
   33.390    5.4976
   33.405    5.7820
   33.420    5.4660
   33.435    5.3291
   33.450    5.4660
   33.465    6.1190
   33.480    5.6767
   33.495    5.4660
   33.510    5.9189
   33.525    5.4976
   33.540    5.4976
   33.555    5.6556
   33.570    5.8241
   33.585    5.8241
   33.600    5.5819
   33.615    5.7188
   33.630    5.8873
   33.645    5.7399
   33.660    5.8241
   33.675    5.6135
   33.690    5.3818
   33.705    5.6029
   33.720    5.7399
   33.735    5.8031
   33.750    5.8136
   33.765    5.7715
   33.780    5.8978
   33.795    5.6661
   33.810    6.0137
   33.825    6.2875
   33.840    6.3086
   33.855    5.9505
   33.870    5.9084
   33.885    5.8662
   33.900    6.1822
   33.915    6.0242
   33.930    6.1190
   33.945    5.9926
   33.960    6.2243
   33.975    5.6977
   33.990    6.0242
   34.005    5.9084
   34.020    5.7715
   34.035    5.8031
   34.050    5.8347
   34.065    5.5503
   34.080    5.9294
   34.095    5.7399
   34.110    5.6135
   34.125    5.4450
   34.140    5.6767
   34.155    5.4871
   34.170    5.3712
   34.185    5.6345
   34.200    5.3186
   34.215    5.8031
   34.230    5.7188
   34.245    5.3186
   34.260    5.5082
   34.275    5.1606
   34.290    5.1922
   34.305    5.3502
   34.320    5.8978
   34.335    5.6135
   34.350    5.2659
   34.365    5.5503
   34.380    5.3712
   34.395    5.1606
   34.410    5.3081
   34.425    5.2975
   34.440    5.5714
   34.455    5.7925
   34.470    5.4028
   34.485    5.3397
   34.500    5.5503
   34.515    5.4028
   34.530    5.6451
   34.545    5.4344
   34.560    5.5292
   34.575    5.6240
   34.590    5.2133
   34.605    5.2975
   34.620    5.4555
   34.635    5.6029
   34.650    5.7293
   34.665    5.4028
   34.680    5.4976
   34.695    5.5398
   34.710    5.2870
   34.725    5.1922
   34.740    5.8768
   34.755    5.2765
   34.770    5.6872
   34.785    5.3712
   34.800    5.6240
   34.815    5.4239
   34.830    5.5503
   34.845    5.7083
   34.860    5.3607
   34.875    5.4450
   34.890    5.2870
   34.905    5.5082
   34.920    5.3502
   34.935    5.5608
   34.950    5.6661
   34.965    5.2659
   34.980    4.9816
   34.995    5.3818
   35.010    5.4239
   35.025    5.3502
   35.040    5.5819
   35.055    5.4028
   35.070    5.5398
   35.085    5.7399
   35.100    5.0448
   35.115    5.2238
   35.130    5.5082
   35.145    5.3923
   35.160    5.4450
   35.175    5.4871
   35.190    5.6872
   35.205    5.7293
   35.220    5.5714
   35.235    5.3607
   35.250    5.8452
   35.265    5.3712
   35.280    5.1395
   35.295    5.5924
   35.310    5.3186
   35.325    5.1711
   35.340    5.4766
   35.355    5.4450
   35.370    5.1606
   35.385    5.4344
   35.400    5.6135
   35.415    5.5292
   35.430    5.7293
   35.445    5.4450
   35.460    5.5187
   35.475    4.9078
   35.490    5.5292
   35.505    5.8347
   35.520    5.2870
   35.535    5.4450
   35.550    5.3923
   35.565    5.3607
   35.580    5.4976
   35.595    5.4239
   35.610    5.3712
   35.625    5.1606
   35.640    5.2659
   35.655    5.3397
   35.670    5.8978
   35.685    5.7504
   35.700    5.4344
   35.715    5.6345
   35.730    5.5714
   35.745    5.7925
   35.760    5.3712
   35.775    5.5608
   35.790    5.7925
   35.805    5.5398
   35.820    5.2133
   35.835    5.2765
   35.850    5.3291
   35.865    5.4028
   35.880    5.2449
   35.895    5.2554
   35.910    5.3397
   35.925    5.4450
   35.940    5.5398
   35.955    5.6661
   35.970    5.3502
   35.985    5.5082
   36.000    5.4660
   36.015    5.1501
   36.030    5.1922
   36.045    5.8557
   36.060    5.4028
   36.075    5.3081
   36.090    5.7820
   36.105    5.6767
   36.120    5.3818
   36.135    5.4766
   36.150    5.3291
   36.165    5.4871
   36.180    5.3923
   36.195    5.1080
   36.210    5.4976
   36.225    5.4555
   36.240    5.6872
   36.255    5.7504
   36.270    5.5082
   36.285    5.4660
   36.300    5.4871
   36.315    5.6135
   36.330    5.6029
   36.345    5.1080
   36.360    4.8552
   36.375    5.0869
   36.390    5.3607
   36.405    5.2449
   36.420    5.5819
   36.435    5.5292
   36.450    5.4344
   36.465    5.6556
   36.480    5.6556
   36.495    5.6556
   36.510    5.3081
   36.525    4.9394
   36.540    5.1817
   36.555    5.4766
   36.570    5.3818
   36.585    5.4134
   36.600    5.1606
   36.615    5.2975
   36.630    5.2449
   36.645    5.4134
   36.660    5.3081
   36.675    5.4555
   36.690    5.4976
   36.705    5.7188
   36.720    5.6556
   36.735    5.4239
   36.750    5.2449
   36.765    5.0869
   36.780    5.0026
   36.795    5.4871
   36.810    5.4555
   36.825    5.3081
   36.840    5.1080
   36.855    5.4871
   36.870    5.2133
   36.885    5.3081
   36.900    5.2765
   36.915    5.2027
   36.930    5.5819
   36.945    5.0764
   36.960    5.2765
   36.975    5.1395
   36.990    5.2133
   37.005    5.0869
   37.020    5.2765
   37.035    5.1817
   37.050    5.5924
   37.065    5.3502
   37.080    5.2870
   37.095    5.5503
   37.110    5.7609
   37.125    5.4344
   37.140    5.2238
   37.155    5.6977
   37.170    5.2238
   37.185    5.2870
   37.200    5.2343
   37.215    5.1395
   37.230    5.3502
   37.245    5.3291
   37.260    5.0237
   37.275    5.2659
   37.290    5.1395
   37.305    5.2870
   37.320    5.6451
   37.335    5.1290
   37.350    5.2027
   37.365    5.5187
   37.380    5.0132
   37.395    5.3081
   37.410    5.5608
   37.425    5.2659
   37.440    5.4028
   37.455    5.5292
   37.470    5.2870
   37.485    5.2554
   37.500    5.3502
   37.515    5.0132
   37.530    5.2554
   37.545    5.2238
   37.560    5.2449
   37.575    5.4766
   37.590    5.2027
   37.605    5.2343
   37.620    5.2870
   37.635    5.3818
   37.650    5.2133
   37.665    5.2238
   37.680    5.0448
   37.695    5.4134
   37.710    5.3818
   37.725    5.1501
   37.740    4.8341
   37.755    4.9394
   37.770    5.1395
   37.785    5.0237
   37.800    5.4344
   37.815    5.1711
   37.830    5.2133
   37.845    5.3081
   37.860    5.3923
   37.875    5.2765
   37.890    4.8868
   37.905    5.2554
   37.920    5.4239
   37.935    5.2659
   37.950    5.3818
   37.965    5.5924
   37.980    5.1817
   37.995    5.4028
   38.010    5.3502
   38.025    5.3607
   38.040    4.8868
   38.055    4.9500
   38.070    5.2870
   38.085    5.2870
   38.100    5.1395
   38.115    5.1185
   38.130    5.0658
   38.145    4.9816
   38.160    5.0448
   38.175    5.3291
   38.190    5.2449
   38.205    5.1395
   38.220    5.3502
   38.235    5.5924
   38.250    5.5714
   38.265    5.4239
   38.280    5.3923
   38.295    5.2027
   38.310    5.3818
   38.325    4.9289
   38.340    4.8868
   38.355    5.1711
   38.370    5.1817
   38.385    5.4555
   38.400    5.3397
   38.415    5.0764
   38.430    5.4555
   38.445    5.3607
   38.460    5.1922
   38.475    4.8763
   38.490    5.1395
   38.505    5.3607
   38.520    5.5819
   38.535    5.4239
   38.550    5.0553
   38.565    5.0764
   38.580    5.2027
   38.595    5.4028
   38.610    5.3923
   38.625    5.3081
   38.640    5.5924
   38.655    5.2027
   38.670    5.1606
   38.685    5.0764
   38.700    5.2238
   38.715    5.1817
   38.730    4.8447
   38.745    5.0869
   38.760    4.9816
   38.775    4.9921
   38.790    4.8973
   38.805    5.2449
   38.820    5.2027
   38.835    5.7609
   38.850    5.0974
   38.865    5.0132
   38.880    5.3712
   38.895    5.0237
   38.910    5.0448
   38.925    5.1395
   38.940    5.1711
   38.955    5.2554
   38.970    5.1395
   38.985    4.9816
   39.000    5.2238
   39.015    5.0448
   39.030    5.0658
   39.045    4.8763
   39.060    4.7393
   39.075    4.8868
   39.090    5.1395
   39.105    5.4344
   39.120    4.8341
   39.135    5.0658
   39.150    5.2870
   39.165    5.0658
   39.180    4.9289
   39.195    4.9710
   39.210    5.1711
   39.225    5.0974
   39.240    5.2133
   39.255    5.1185
   39.270    5.4766
   39.285    5.0869
   39.300    5.6661
   39.315    5.0448
   39.330    5.3081
   39.345    5.1395
   39.360    5.0658
   39.375    5.1711
   39.390    4.9289
   39.405    5.2449
   39.420    5.2449
   39.435    5.2343
   39.450    4.9289
   39.465    5.2343
   39.480    5.2027
   39.495    5.2449
   39.510    5.0237
   39.525    5.1395
   39.540    5.4028
   39.555    5.1817
   39.570    4.9605
   39.585    5.3291
   39.600    5.5187
   39.615    5.4344
   39.630    5.0026
   39.645    5.3081
   39.660    5.0764
   39.675    5.2975
   39.690    5.3081
   39.705    5.3186
   39.720    5.3923
   39.735    5.2133
   39.750    4.9078
   39.765    5.2449
   39.780    5.2027
   39.795    4.8447
   39.810    5.3923
   39.825    5.1922
   39.840    5.1290
   39.855    5.2343
   39.870    5.3502
   39.885    5.3081
   39.900    5.5292
   39.915    5.4660
   39.930    5.0026
   39.945    5.3607
   39.960    5.5714
   39.975    5.1290
   39.990    5.4450
