    1.500   10.8268
    1.515   11.3744
    1.530   10.2791
    1.545   10.1738
    1.560   10.7530
    1.575   10.6582
    1.590    9.7314
    1.605   10.1106
    1.620    9.6472
    1.635   10.0474
    1.650    9.8052
    1.665    9.8894
    1.680    9.9421
    1.695    9.6261
    1.710    9.4787
    1.725    8.9205
    1.740    9.4155
    1.755    9.4155
    1.770    8.9731
    1.785    9.3312
    1.800    9.4260
    1.815    9.6367
    1.830    8.9205
    1.845    8.8784
    1.860    8.5413
    1.875    8.4676
    1.890    8.3202
    1.905    8.6256
    1.920    8.4676
    1.935    8.4466
    1.950    8.0990
    1.965    8.0042
    1.980    7.9305
    1.995    7.8146
    2.010    7.7304
    2.025    8.0042
    2.040    7.7093
    2.055    7.7409
    2.070    7.6777
    2.085    7.3512
    2.100    7.6988
    2.115    7.7199
    2.130    7.6251
    2.145    7.5303
    2.160    7.5619
    2.175    7.0985
    2.190    7.7409
    2.205    7.7620
    2.220    7.6461
    2.235    7.0985
    2.250    7.0458
    2.265    7.2354
    2.280    7.3407
    2.295    7.2986
    2.310    7.3196
    2.325    7.0669
    2.340    6.8878
    2.355    6.9089
    2.370    6.9405
    2.385    7.1090
    2.400    6.6561
    2.415    6.8773
    2.430    6.6035
    2.445    7.1617
    2.460    6.7825
    2.475    6.6772
    2.490    6.4560
    2.505    7.1722
    2.520    6.2349
    2.535    6.4982
    2.550    6.7088
    2.565    6.2770
    2.580    6.7720
    2.595    6.5929
    2.610    6.6351
    2.625    6.5403
    2.640    6.5298
    2.655    6.6561
    2.670    6.4666
    2.685    6.2875
    2.700    6.5508
    2.715    5.9505
    2.730    6.3718
    2.745    6.9194
    2.760    6.5613
    2.775    6.5719
    2.790    5.5819
    2.805    5.9400
    2.820    5.7715
    2.835    5.8557
    2.850    6.1295
    2.865    6.2033
    2.880    6.1822
    2.895    5.9716
    2.910    5.7820
    2.925    6.0769
    2.940    6.3928
    2.955    6.3402
    2.970    6.2770
    2.985    5.7083
    3.000    6.2349
    3.015    6.4139
    3.030    5.9189
    3.045    6.0769
    3.060    5.9084
    3.075    6.3928
    3.090    6.3718
    3.105    5.8978
    3.120    6.6877
    3.135    6.3191
    3.150    6.0558
    3.165    6.2770
    3.180    6.1717
    3.195    5.8452
    3.210    6.1401
    3.225    6.0979
    3.240    6.0558
    3.255    6.0769
    3.270    6.3507
    3.285    6.1717
    3.300    6.4244
    3.315    6.4034
    3.330    5.9189
    3.345    6.2243
    3.360    6.5298
    3.375    6.5613
    3.390    6.8773
    3.405    6.9826
    3.420    6.7088
    3.435    6.4771
    3.450    6.9510
    3.465    7.0142
    3.480    7.1511
    3.495    7.7936
    3.510    7.3934
    3.525    7.4776
    3.540    7.6777
    3.555    7.8462
    3.570    7.8357
    3.585    8.0463
    3.600    7.8989
    3.615    8.5519
    3.630    8.2570
    3.645    8.9942
    3.660    8.8468
    3.675    9.3418
    3.690    9.9210
    3.705   10.0790
    3.720   10.6266
    3.735   11.4587
    3.750   11.5429
    3.765   12.2380
    3.780   13.2596
    3.795   14.2285
    3.810   15.2817
    3.825   17.0721
    3.840   19.0311
    3.855   22.1696
    3.870   22.9805
    3.885   23.1385
    3.900   21.7378
    3.915   18.8415
    3.930   14.1443
    3.945    9.8473
    3.960    7.7830
    3.975    7.0037
    3.990    6.6983
    4.005    6.4455
    4.020    6.5613
    4.035    6.4139
    4.050    6.5403
    4.065    6.2559
    4.080    5.6240
    4.095    5.7293
    4.110    5.7715
    4.125    5.8452
    4.140    5.8873
    4.155    6.0137
    4.170    6.0664
    4.185    5.7609
    4.200    6.0664
    4.215    5.8768
    4.230    5.4239
    4.245    5.8557
    4.260    6.2981
    4.275    6.0348
    4.290    6.2559
    4.305    6.1506
    4.320    5.8768
    4.335    5.6240
    4.350    5.8873
    4.365    6.1295
    4.380    6.2243
    4.395    5.8031
    4.410    5.9294
    4.425    5.5819
    4.440    5.6767
    4.455    5.9084
    4.470    5.5187
    4.485    5.7820
    4.500    6.2981
    4.515    5.8557
    4.530    5.7188
    4.545    5.4871
    4.560    5.6872
    4.575    5.6661
    4.590    5.8031
    4.605    5.5398
    4.620    5.9610
    4.635    5.8031
    4.650    5.9821
    4.665    5.8978
    4.680    5.8347
    4.695    5.9926
    4.710    6.0979
    4.725    6.0558
    4.740    6.1401
    4.755    6.0348
    4.770    6.0137
    4.785    5.8557
    4.800    5.9400
    4.815    5.9189
    4.830    6.2349
    4.845    6.1295
    4.860    5.8452
    4.875    6.2875
    4.890    6.1401
    4.905    5.9821
    4.920    6.3086
    4.935    6.1401
    4.950    6.3402
    4.965    6.1190
    4.980    6.3612
    4.995    6.6035
    5.010    6.1085
    5.025    6.3086
    5.040    6.3086
    5.055    6.4455
    5.070    6.4560
    5.085    6.4982
    5.100    6.4876
    5.115    6.3402
    5.130    6.5719
    5.145    6.9932
    5.160    6.7299
    5.175    7.1617
    5.190    6.7720
    5.205    7.1511
    5.220    7.5408
    5.235    7.5724
    5.250    7.4250
    5.265    7.7199
    5.280    8.0358
    5.295    8.4466
    5.310    8.2570
    5.325    8.1727
    5.340    8.3939
    5.355    8.2149
    5.370    8.6993
    5.385    9.1522
    5.400    9.1206
    5.415    9.4997
    5.430   10.5108
    5.445   10.4371
    5.460   11.4165
    5.475   12.0379
    5.490   12.6172
    5.505   13.1543
    5.520   12.2275
    5.535   11.4481
    5.550   10.1527
    5.565    8.7098
    5.580    8.0779
    5.595    7.8568
    5.610    7.5513
    5.625    7.5724
    5.640    7.8146
    5.655    7.9516
    5.670    7.5513
    5.685    7.5303
    5.700    7.1090
    5.715    6.9932
    5.730    6.9826
    5.745    7.3618
    5.760    7.1827
    5.775    7.3934
    5.790    7.3723
    5.805    6.4139
    5.820    6.7299
    5.835    6.7299
    5.850    6.9089
    5.865    6.5298
    5.880    6.9932
    5.895    6.9826
    5.910    6.6035
    5.925    6.0769
    5.940    6.3086
    5.955    6.1190
    5.970    6.2875
    5.985    6.1611
    6.000    6.2033
    6.015    6.2665
    6.030    6.1506
    6.045    6.0453
    6.060    5.9926
    6.075    6.0979
    6.090    5.8241
    6.105    6.1085
    6.120    5.8241
    6.135    6.0348
    6.150    6.2665
    6.165    5.9189
    6.180    5.7399
    6.195    5.5608
    6.210    5.6977
    6.225    5.6872
    6.240    5.5503
    6.255    5.7083
    6.270    5.5608
    6.285    5.6556
    6.300    4.9710
    6.315    5.6977
    6.330    5.5503
    6.345    5.7188
    6.360    5.5292
    6.375    5.0658
    6.390    5.3923
    6.405    5.5608
    6.420    5.3186
    6.435    5.3502
    6.450    5.6767
    6.465    5.2659
    6.480    5.2659
    6.495    5.1080
    6.510    5.3712
    6.525    5.6872
    6.540    5.9926
    6.555    5.4766
    6.570    5.6451
    6.585    5.6767
    6.600    5.7715
    6.615    5.7083
    6.630    5.5924
    6.645    5.3607
    6.660    5.9400
    6.675    5.9505
    6.690    6.3191
    6.705    6.4455
    6.720    6.4560
    6.735    6.6772
    6.750    7.0037
    6.765    7.0669
    6.780    6.6035
    6.795    6.0348
    6.810    5.6240
    6.825    4.9605
    6.840    5.2765
    6.855    5.1606
    6.870    5.1711
    6.885    4.8973
    6.900    5.2027
    6.915    5.2870
    6.930    4.9500
    6.945    4.9921
    6.960    4.8657
    6.975    4.9078
    6.990    5.2975
    7.005    5.0342
    7.020    4.7815
    7.035    4.9394
    7.050    4.6867
    7.065    4.9710
    7.080    5.0026
    7.095    4.8763
    7.110    4.8763
    7.125    4.6445
    7.140    4.8973
    7.155    4.8131
    7.170    4.9921
    7.185    4.6867
    7.200    4.8868
    7.215    4.6656
    7.230    4.5392
    7.245    4.3918
    7.260    4.8025
    7.275    4.5076
    7.290    4.5392
    7.305    4.5603
    7.320    4.6656
    7.335    4.7604
    7.350    4.6867
    7.365    4.5708
    7.380    4.3075
    7.395    4.6130
    7.410    4.6024
    7.425    4.4234
    7.440    4.6130
    7.455    4.2759
    7.470    4.5603
    7.485    4.3707
    7.500    3.9494
    7.515    4.6656
    7.530    4.7920
    7.545    4.5708
    7.560    4.2127
    7.575    4.2759
    7.590    4.3181
    7.605    4.4234
    7.620    4.4971
    7.635    4.8868
    7.650    4.3391
    7.665    4.4655
    7.680    4.2338
    7.695    4.5392
    7.710    4.7604
    7.725    4.9394
    7.740    5.1395
    7.755    5.0237
    7.770    4.9078
    7.785    5.2659
    7.800    5.1501
    7.815    5.4028
    7.830    5.0658
    7.845    4.9184
    7.860    4.6340
    7.875    4.7393
    7.890    4.4444
    7.905    3.7704
    7.920    4.1074
    7.935    4.1390
    7.950    4.0337
    7.965    4.2127
    7.980    4.1180
    7.995    3.8125
    8.010    3.8231
    8.025    4.3075
    8.040    4.1180
    8.055    4.0126
    8.070    3.7704
    8.085    3.9916
    8.100    4.0758
    8.115    4.0232
    8.130    3.9284
    8.145    4.0021
    8.160    4.3391
    8.175    4.3497
    8.190    3.8968
    8.205    3.8547
    8.220    4.0126
    8.235    3.9705
    8.250    3.9284
    8.265    4.1390
    8.280    4.4339
    8.295    3.7388
    8.310    3.8863
    8.325    4.0758
    8.340    4.1285
    8.355    4.0021
    8.370    4.0548
    8.385    3.8441
    8.400    3.9179
    8.415    3.9179
    8.430    3.9600
    8.445    3.8336
    8.460    3.7493
    8.475    3.9705
    8.490    4.1706
    8.505    3.7915
    8.520    3.8336
    8.535    3.9916
    8.550    3.9810
    8.565    3.8441
    8.580    3.8336
    8.595    3.9073
    8.610    3.9916
    8.625    3.9916
    8.640    3.8020
    8.655    3.8757
    8.670    4.0864
    8.685    4.3497
    8.700    4.1811
    8.715    3.8863
    8.730    4.1390
    8.745    4.2022
    8.760    4.0758
    8.775    3.8757
    8.790    3.6230
    8.805    3.7915
    8.820    3.8231
    8.835    3.7493
    8.850    3.6440
    8.865    3.8020
    8.880    3.8231
    8.895    3.9284
    8.910    3.8336
    8.925    3.6967
    8.940    3.5914
    8.955    3.7493
    8.970    3.7177
    8.985    3.5808
    9.000    3.5282
    9.015    3.5282
    9.030    3.8441
    9.045    3.8441
    9.060    3.6862
    9.075    3.4123
    9.090    3.4544
    9.105    3.6335
    9.120    3.5282
    9.135    3.8441
    9.150    4.0232
    9.165    3.8547
    9.180    3.8547
    9.195    3.4544
    9.210    3.5914
    9.225    3.7388
    9.240    3.4650
    9.255    3.5492
    9.270    3.8968
    9.285    3.7177
    9.300    3.6862
    9.315    3.6335
    9.330    3.8547
    9.345    3.9389
    9.360    4.1917
    9.375    3.9810
    9.390    4.0653
    9.405    4.0548
    9.420    4.0653
    9.435    3.6756
    9.450    4.0337
    9.465    3.9494
    9.480    4.7815
    9.495    4.9816
    9.510    5.2027
    9.525    6.0348
    9.540    6.3086
    9.555    6.2243
    9.570    6.6035
    9.585    6.4244
    9.600    5.7820
    9.615    5.2870
    9.630    4.4550
    9.645    4.2654
    9.660    3.6335
    9.675    4.0442
    9.690    3.8441
    9.705    3.7599
    9.720    3.8231
    9.735    3.7915
    9.750    3.7704
    9.765    3.6651
    9.780    3.4650
    9.795    3.7704
    9.810    3.4229
    9.825    3.5492
    9.840    3.5703
    9.855    3.6230
    9.870    4.1285
    9.885    3.8757
    9.900    3.7072
    9.915    3.8863
    9.930    3.8020
    9.945    3.7809
    9.960    3.8441
    9.975    3.6862
    9.990    3.7809
   10.005    3.7493
   10.020    3.5914
   10.035    3.7493
   10.050    3.7809
   10.065    3.4755
   10.080    3.8231
   10.095    3.9284
   10.110    3.7388
   10.125    3.7177
   10.140    3.6862
   10.155    3.7493
   10.170    4.0021
   10.185    3.7915
   10.200    4.1285
   10.215    4.4866
   10.230    4.0548
   10.245    4.1811
   10.260    4.3918
   10.275    4.3813
   10.290    4.8236
   10.305    4.8763
   10.320    4.9710
   10.335    4.9078
   10.350    5.0974
   10.365    4.7499
   10.380    4.4866
   10.395    4.1496
   10.410    3.9810
   10.425    3.9494
   10.440    3.8231
   10.455    3.8020
   10.470    3.6546
   10.485    3.8231
   10.500    3.6335
   10.515    3.9494
   10.530    3.7809
   10.545    3.6967
   10.560    3.7704
   10.575    3.9916
   10.590    4.0548
   10.605    3.7388
   10.620    3.6862
   10.635    3.8757
   10.650    3.8757
   10.665    3.9073
   10.680    4.0126
   10.695    3.8441
   10.710    3.8231
   10.725    4.0232
   10.740    3.7388
   10.755    3.7809
   10.770    3.8968
   10.785    3.9916
   10.800    4.0548
   10.815    3.8336
   10.830    3.9284
   10.845    3.5703
   10.860    3.9073
   10.875    4.0653
   10.890    3.8652
   10.905    3.8125
   10.920    3.9284
   10.935    4.0442
   10.950    3.8547
   10.965    4.4760
   10.980    4.6235
   10.995    4.3075
   11.010    4.6235
   11.025    4.9394
   11.040    5.0974
   11.055    4.9289
   11.070    4.6761
   11.085    4.5076
   11.100    4.3813
   11.115    4.2127
   11.130    4.2654
   11.145    4.0126
   11.160    4.0337
   11.175    3.9810
   11.190    3.8863
   11.205    3.8863
   11.220    4.0337
   11.235    4.1601
   11.250    3.9916
   11.265    3.9494
   11.280    3.6967
   11.295    3.8757
   11.310    3.9494
   11.325    3.8231
   11.340    3.6967
   11.355    3.9073
   11.370    3.9284
   11.385    3.9600
   11.400    4.0969
   11.415    4.0126
   11.430    3.7177
   11.445    3.4755
   11.460    3.7177
   11.475    3.7493
   11.490    3.8652
   11.505    3.9600
   11.520    3.7388
   11.535    3.7072
   11.550    3.8757
   11.565    3.7599
   11.580    4.0758
   11.595    4.0864
   11.610    4.0337
   11.625    4.0864
   11.640    4.0337
   11.655    4.1390
   11.670    4.1496
   11.685    4.4971
   11.700    4.6445
   11.715    4.6656
   11.730    4.7920
   11.745    5.0026
   11.760    4.6445
   11.775    4.2970
   11.790    4.1917
   11.805    4.0653
   11.820    3.9600
   11.835    4.0337
   11.850    3.8652
   11.865    3.9073
   11.880    3.8125
   11.895    3.8757
   11.910    3.9073
   11.925    4.0126
   11.940    3.8020
   11.955    3.9284
   11.970    3.6230
   11.985    3.7599
   12.000    3.7915
   12.015    3.9284
   12.030    3.6230
   12.045    3.9494
   12.060    3.5598
   12.075    3.4650
   12.090    3.6967
   12.105    3.8336
   12.120    3.4439
   12.135    3.7915
   12.150    3.7072
   12.165    3.6651
   12.180    3.4755
   12.195    3.8125
   12.210    3.6967
   12.225    3.5492
   12.240    3.5071
   12.255    3.6230
   12.270    3.5808
   12.285    3.5703
   12.300    3.7809
   12.315    3.8757
   12.330    4.1390
   12.345    3.8336
   12.360    3.7283
   12.375    3.6546
   12.390    3.5808
   12.405    3.9916
   12.420    3.9284
   12.435    3.9284
   12.450    3.5808
   12.465    3.8020
   12.480    3.7388
   12.495    3.6335
   12.510    3.4860
   12.525    3.6651
   12.540    3.7915
   12.555    3.6230
   12.570    3.6440
   12.585    3.6967
   12.600    3.7072
   12.615    3.4544
   12.630    3.4229
   12.645    3.3491
   12.660    3.4966
   12.675    3.4860
   12.690    3.5071
   12.705    3.6651
   12.720    3.6440
   12.735    3.5808
   12.750    3.6335
   12.765    4.0548
   12.780    3.9916
   12.795    4.0758
   12.810    3.8020
   12.825    3.2543
   12.840    3.6019
   12.855    3.4966
   12.870    3.8125
   12.885    3.6862
   12.900    3.6756
   12.915    3.9916
   12.930    4.2233
   12.945    4.5287
   12.960    4.5182
   12.975    4.4128
   12.990    4.4128
   13.005    4.1180
   13.020    4.3181
   13.035    3.7283
   13.050    3.7072
   13.065    3.5703
   13.080    3.5387
   13.095    3.7283
   13.110    3.7072
   13.125    3.5808
   13.140    3.3913
   13.155    3.5282
   13.170    3.4544
   13.185    3.6230
   13.200    3.7599
   13.215    3.5492
   13.230    3.3702
   13.245    3.4650
   13.260    3.5282
   13.275    3.5598
   13.290    3.4229
   13.305    3.4755
   13.320    3.4334
   13.335    3.3913
   13.350    3.5808
   13.365    3.3491
   13.380    3.2649
   13.395    3.4123
   13.410    3.5598
   13.425    3.4755
   13.440    3.4439
   13.455    3.7388
   13.470    3.5176
   13.485    3.6019
   13.500    3.5703
   13.515    3.7388
   13.530    3.8547
   13.545    3.7177
   13.560    3.4018
   13.575    3.5598
   13.590    3.5914
   13.605    3.6756
   13.620    3.7704
   13.635    3.6862
   13.650    3.5598
   13.665    3.5808
   13.680    3.2649
   13.695    3.3175
   13.710    3.6230
   13.725    3.5598
   13.740    3.4860
   13.755    3.6440
   13.770    3.6440
   13.785    3.2122
   13.800    3.3491
   13.815    3.9179
   13.830    3.4123
   13.845    3.7809
   13.860    3.5914
   13.875    3.4018
   13.890    3.7493
   13.905    3.4755
   13.920    3.3807
   13.935    3.2859
   13.950    3.4650
   13.965    3.5914
   13.980    4.2338
   13.995    3.7493
   14.010    3.8547
   14.025    3.7283
   14.040    3.8757
   14.055    4.0969
   14.070    4.0126
   14.085    3.9600
   14.100    4.2022
   14.115    4.4444
   14.130    4.2970
   14.145    4.0864
   14.160    4.1390
   14.175    3.7283
   14.190    3.8863
   14.205    3.9389
   14.220    3.8968
   14.235    3.9494
   14.250    3.8231
   14.265    3.9810
   14.280    3.7915
   14.295    3.8652
   14.310    3.7388
   14.325    3.6967
   14.340    3.5176
   14.355    3.8441
   14.370    3.8336
   14.385    3.9179
   14.400    3.8863
   14.415    3.7177
   14.430    3.8336
   14.445    3.7493
   14.460    3.8125
   14.475    3.8020
   14.490    3.5598
   14.505    3.8125
   14.520    3.8968
   14.535    3.5282
   14.550    3.6335
   14.565    3.7809
   14.580    3.5492
   14.595    3.8231
   14.610    3.9494
   14.625    4.0548
   14.640    3.5914
   14.655    3.6440
   14.670    3.7177
   14.685    3.6967
   14.700    3.6546
   14.715    3.7599
   14.730    3.6862
   14.745    3.6124
   14.760    3.8020
   14.775    3.7915
   14.790    3.5914
   14.805    3.7072
   14.820    3.8125
   14.835    3.7177
   14.850    3.6440
   14.865    3.6440
   14.880    3.6967
   14.895    4.0548
   14.910    3.7599
   14.925    3.5703
   14.940    3.6862
   14.955    3.7388
   14.970    3.7599
   14.985    3.9179
   15.000    3.6230
   15.015    3.9284
   15.030    3.4229
   15.045    3.4544
   15.060    3.4755
   15.075    3.3386
   15.090    3.5703
   15.105    3.7388
   15.120    3.8441
   15.135    3.5071
   15.150    3.5914
   15.165    3.4755
   15.180    3.5914
   15.195    3.6546
   15.210    3.4334
   15.225    3.4123
   15.240    3.5176
   15.255    3.7599
   15.270    3.4650
   15.285    3.3597
   15.300    3.3386
   15.315    3.4650
   15.330    3.4334
   15.345    3.4544
   15.360    3.5282
   15.375    3.6756
   15.390    3.5808
   15.405    3.2122
   15.420    3.4334
   15.435    3.5176
   15.450    3.6335
   15.465    3.6546
   15.480    3.2859
   15.495    3.4755
   15.510    3.5071
   15.525    3.3281
   15.540    3.2227
   15.555    3.3702
   15.570    3.4755
   15.585    3.6967
   15.600    3.3702
   15.615    3.3597
   15.630    3.5914
   15.645    3.3913
   15.660    3.7704
   15.675    3.5282
   15.690    3.3491
   15.705    3.3807
   15.720    3.4650
   15.735    3.5387
   15.750    3.3175
   15.765    3.4860
   15.780    3.4860
   15.795    3.4018
   15.810    3.4966
   15.825    3.5176
   15.840    3.6335
   15.855    3.4966
   15.870    3.0648
   15.885    3.2649
   15.900    3.4334
   15.915    3.4439
   15.930    3.5598
   15.945    3.5176
   15.960    3.8020
   15.975    3.4860
   15.990    3.5492
   16.005    3.4966
   16.020    3.5492
   16.035    3.3070
   16.050    3.4439
   16.065    3.4860
   16.080    3.4966
   16.095    3.6230
   16.110    3.6440
   16.125    3.7809
   16.140    3.5176
   16.155    3.5598
   16.170    3.5176
   16.185    3.2965
   16.200    3.5808
   16.215    3.6230
   16.230    3.6230
   16.245    3.6651
   16.260    3.5071
   16.275    3.5282
   16.290    3.2965
   16.305    3.4544
   16.320    3.7599
   16.335    3.6019
   16.350    3.4018
   16.365    3.1490
   16.380    3.3597
   16.395    3.3175
   16.410    3.4966
   16.425    3.4860
   16.440    3.5176
   16.455    3.4018
   16.470    3.3070
   16.485    3.2754
   16.500    3.6335
   16.515    3.3913
   16.530    3.6862
   16.545    3.6019
   16.560    3.5914
   16.575    3.4966
   16.590    3.4650
   16.605    3.4544
   16.620    3.5914
   16.635    3.6756
   16.650    3.7915
   16.665    3.9916
   16.680    3.6967
   16.695    3.7072
   16.710    3.7177
   16.725    3.2859
   16.740    3.4650
   16.755    3.5914
   16.770    3.4334
   16.785    3.5387
   16.800    3.5703
   16.815    3.5282
   16.830    3.4229
   16.845    3.4229
   16.860    3.2333
   16.875    3.1280
   16.890    3.3491
   16.905    3.4966
   16.920    3.4860
   16.935    3.5387
   16.950    3.3386
   16.965    3.5176
   16.980    3.3597
   16.995    3.5808
   17.010    3.7915
   17.025    3.8547
   17.040    3.7177
   17.055    3.8125
   17.070    3.6335
   17.085    3.5282
   17.100    3.8863
   17.115    4.3286
   17.130    4.2549
   17.145    3.9810
   17.160    3.3491
   17.175    3.5387
   17.190    3.6124
   17.205    3.6124
   17.220    3.5071
   17.235    3.1912
   17.250    3.3807
   17.265    3.4860
   17.280    3.4018
   17.295    3.4650
   17.310    3.3070
   17.325    3.0753
   17.340    3.4860
   17.355    3.6546
   17.370    3.3597
   17.385    3.4229
   17.400    3.6967
   17.415    3.5071
   17.430    3.2859
   17.445    3.4755
   17.460    3.1069
   17.475    3.3070
   17.490    3.5071
   17.505    3.5071
   17.520    3.5808
   17.535    3.7283
   17.550    3.5282
   17.565    3.2122
   17.580    3.5492
   17.595    3.5914
   17.610    3.1385
   17.625    3.3175
   17.640    3.5808
   17.655    3.5282
   17.670    3.3281
   17.685    3.1806
   17.700    3.4650
   17.715    3.2754
   17.730    3.4334
   17.745    3.2333
   17.760    3.4544
   17.775    3.6124
   17.790    3.4123
   17.805    3.2859
   17.820    3.4439
   17.835    3.1596
   17.850    3.3175
   17.865    3.4650
   17.880    3.3281
   17.895    3.2122
   17.910    3.4439
   17.925    3.4229
   17.940    3.4018
   17.955    3.7283
   17.970    3.5914
   17.985    3.3597
   18.000    3.3807
   18.015    3.7072
   18.030    3.4334
   18.045    3.5282
   18.060    3.2859
   18.075    3.3281
   18.090    3.2649
   18.105    3.1701
   18.120    3.4123
   18.135    3.2859
   18.150    3.3597
   18.165    3.5387
   18.180    3.6230
   18.195    3.6862
   18.210    3.4860
   18.225    3.2438
   18.240    3.2543
   18.255    3.3386
   18.270    3.3386
   18.285    3.4334
   18.300    3.5703
   18.315    3.2227
   18.330    3.2649
   18.345    3.4650
   18.360    3.2122
   18.375    3.6019
   18.390    3.4123
   18.405    3.6124
   18.420    3.4755
   18.435    3.9389
   18.450    3.8652
   18.465    3.8231
   18.480    3.4755
   18.495    3.6230
   18.510    3.3702
   18.525    3.5176
   18.540    3.6335
   18.555    3.1174
   18.570    3.5387
   18.585    3.3175
   18.600    3.3807
   18.615    3.2859
   18.630    3.2017
   18.645    3.2859
   18.660    3.4755
   18.675    3.5808
   18.690    3.4755
   18.705    3.5703
   18.720    3.4334
   18.735    3.4334
   18.750    3.6124
   18.765    3.4860
   18.780    3.5282
   18.795    3.2438
   18.810    3.3702
   18.825    3.1174
   18.840    3.2754
   18.855    3.4755
   18.870    3.4860
   18.885    3.5071
   18.900    3.3386
   18.915    3.4018
   18.930    3.5176
   18.945    3.6546
   18.960    3.4439
   18.975    4.0232
   18.990    3.8547
   19.005    3.8652
   19.020    3.6019
   19.035    3.4650
   19.050    3.3702
   19.065    3.4123
   19.080    3.5176
   19.095    3.3386
   19.110    3.2965
   19.125    3.5387
   19.140    3.4439
   19.155    3.5387
   19.170    3.4018
   19.185    3.4018
   19.200    2.9805
   19.215    3.1806
   19.230    3.3175
   19.245    3.5071
   19.260    3.4018
   19.275    3.5492
   19.290    3.3070
   19.305    3.3807
   19.320    3.4334
   19.335    3.6019
   19.350    3.3070
   19.365    3.2017
   19.380    3.1596
   19.395    3.0332
   19.410    3.3913
   19.425    3.6335
   19.440    3.6440
   19.455    3.3491
   19.470    3.2017
   19.485    3.3702
   19.500    3.2754
   19.515    3.4966
   19.530    3.7493
   19.545    3.6335
   19.560    3.7388
   19.575    3.2649
   19.590    3.4123
   19.605    3.2649
   19.620    3.2122
   19.635    3.2543
   19.650    3.3070
   19.665    3.3175
   19.680    3.1069
   19.695    3.2543
   19.710    3.3070
   19.725    3.2649
   19.740    3.2438
   19.755    3.1490
   19.770    3.2227
   19.785    3.2438
   19.800    3.1385
   19.815    3.1596
   19.830    3.4334
   19.845    3.5282
   19.860    3.4334
   19.875    3.3597
   19.890    3.2333
   19.905    3.3597
   19.920    3.1701
   19.935    3.3386
   19.950    3.4334
   19.965    3.2333
   19.980    3.0332
   19.995    3.3491
   20.010    3.1280
   20.025    3.4018
   20.040    3.2543
   20.055    3.3070
   20.070    3.2543
   20.085    3.1174
   20.100    3.2122
   20.115    3.2122
   20.130    3.4229
   20.145    3.2965
   20.160    3.1280
   20.175    3.4439
   20.190    3.1280
   20.205    3.5176
   20.220    3.2754
   20.235    2.9700
   20.250    3.0016
   20.265    3.2438
   20.280    3.2754
   20.295    3.3281
   20.310    3.4229
   20.325    2.9384
   20.340    3.1912
   20.355    3.4439
   20.370    3.4334
   20.385    3.5071
   20.400    3.5492
   20.415    3.4334
   20.430    3.6756
   20.445    3.4650
   20.460    3.3597
   20.475    3.1069
   20.490    3.1385
   20.505    3.2122
   20.520    3.2017
   20.535    3.3597
   20.550    3.2017
   20.565    3.2122
   20.580    3.3491
   20.595    2.9173
   20.610    3.1069
   20.625    3.2649
   20.640    3.2859
   20.655    3.3281
   20.670    3.4544
   20.685    3.3175
   20.700    3.0437
   20.715    3.2333
   20.730    3.1490
   20.745    3.1490
   20.760    2.8541
   20.775    3.1490
   20.790    3.2122
   20.805    3.4439
   20.820    3.2017
   20.835    2.9700
   20.850    2.7593
   20.865    2.8541
   20.880    3.0858
   20.895    3.1069
   20.910    3.0542
   20.925    3.0332
   20.940    2.7804
   20.955    3.1806
   20.970    3.1806
   20.985    3.0437
   21.000    2.8541
   21.015    3.1385
   21.030    3.2122
   21.045    3.1806
   21.060    3.1385
   21.075    3.0753
   21.090    3.0753
   21.105    3.1912
   21.120    3.4229
   21.135    3.1596
   21.150    3.1490
   21.165    2.9489
   21.180    3.3913
   21.195    3.1174
   21.210    3.1069
   21.225    3.0437
   21.240    3.1069
   21.255    2.6751
   21.270    3.0121
   21.285    3.4334
   21.300    3.0332
   21.315    3.1069
   21.330    3.2543
   21.345    3.0332
   21.360    3.2122
   21.375    2.9805
   21.390    3.2754
   21.405    3.3281
   21.420    3.0648
   21.435    2.9173
   21.450    3.2122
   21.465    3.1385
   21.480    3.2227
   21.495    3.1069
   21.510    3.2227
   21.525    2.9910
   21.540    3.1174
   21.555    3.2649
   21.570    3.3913
   21.585    3.0858
   21.600    3.0542
   21.615    3.2438
   21.630    2.9173
   21.645    2.9700
   21.660    3.0226
   21.675    3.1490
   21.690    3.1490
   21.705    3.2859
   21.720    3.2438
   21.735    3.3281
   21.750    2.9595
   21.765    3.3386
   21.780    3.4123
   21.795    3.1912
   21.810    3.4650
   21.825    3.2438
   21.840    3.2649
   21.855    3.0964
   21.870    3.2543
   21.885    3.3913
   21.900    3.1490
   21.915    3.4334
   21.930    3.2017
   21.945    3.0542
   21.960    3.2227
   21.975    3.0648
   21.990    2.9595
   22.005    3.2227
   22.020    3.2227
   22.035    3.0753
   22.050    3.1385
   22.065    2.9489
   22.080    3.0542
   22.095    2.9700
   22.110    2.8120
   22.125    3.1490
   22.140    3.0753
   22.155    3.0226
   22.170    3.1596
   22.185    2.9384
   22.200    3.1596
   22.215    3.1280
   22.230    3.0121
   22.245    3.3386
   22.260    3.4755
   22.275    3.3175
   22.290    3.1912
   22.305    3.1069
   22.320    2.9384
   22.335    2.9279
   22.350    2.9384
   22.365    3.0753
   22.380    3.1912
   22.395    3.2227
   22.410    3.2543
   22.425    3.2543
   22.440    3.2122
   22.455    3.0332
   22.470    3.0332
   22.485    2.8541
   22.500    3.2333
   22.515    3.2754
   22.530    3.0437
   22.545    3.0437
   22.560    3.1806
   22.575    3.5598
   22.590    3.4966
   22.605    3.1385
   22.620    3.4334
   22.635    3.5492
   22.650    3.0648
   22.665    3.0437
   22.680    3.3913
   22.695    3.2859
   22.710    3.0016
   22.725    3.2438
   22.740    3.0753
   22.755    3.0648
   22.770    2.9068
   22.785    2.9595
   22.800    3.0226
   22.815    2.7488
   22.830    2.8857
   22.845    3.2333
   22.860    3.0648
   22.875    2.9489
   22.890    2.9805
   22.905    3.2122
   22.920    3.4544
   22.935    3.4018
   22.950    3.5176
   22.965    3.4439
   22.980    3.3913
   22.995    3.1806
   23.010    3.0121
   23.025    3.1806
   23.040    2.9805
   23.055    3.2543
   23.070    3.2965
   23.085    3.2017
   23.100    3.3175
   23.115    3.3070
   23.130    3.3175
   23.145    3.1069
   23.160    2.8015
   23.175    2.7278
   23.190    2.7383
   23.205    2.9489
   23.220    3.0542
   23.235    3.0121
   23.250    2.8647
   23.265    2.7488
   23.280    2.8541
   23.295    3.2333
   23.310    3.1174
   23.325    3.0121
   23.340    2.9805
   23.355    2.7383
   23.370    2.9489
   23.385    2.9489
   23.400    2.8541
   23.415    2.7067
   23.430    2.6646
   23.445    3.0964
   23.460    3.1069
   23.475    3.2543
   23.490    2.9910
   23.505    3.1069
   23.520    2.6962
   23.535    2.9910
   23.550    3.1385
   23.565    3.0226
   23.580    3.0648
   23.595    3.0964
   23.610    3.0648
   23.625    2.7909
   23.640    2.6856
   23.655    2.5171
   23.670    2.6751
   23.685    2.4223
   23.700    2.7172
   23.715    2.8541
   23.730    2.9595
   23.745    3.0016
   23.760    2.8857
   23.775    2.5382
   23.790    2.7593
   23.805    2.6962
   23.820    2.8436
   23.835    2.9173
   23.850    2.8647
   23.865    2.8436
   23.880    2.8436
   23.895    2.8857
   23.910    2.7383
   23.925    2.8541
   23.940    2.9595
   23.955    2.7488
   23.970    2.9700
   23.985    3.1806
   24.000    2.9595
   24.015    2.9279
   24.030    2.9910
   24.045    3.1280
   24.060    2.6962
   24.075    2.5698
   24.090    2.6540
   24.105    2.7488
   24.120    2.7488
   24.135    2.8541
   24.150    2.9805
   24.165    3.1701
   24.180    2.8647
   24.195    2.9279
   24.210    2.7172
   24.225    2.7909
   24.240    2.6224
   24.255    2.6856
   24.270    2.6014
   24.285    2.7488
   24.300    2.6224
   24.315    2.8436
   24.330    2.7699
   24.345    2.9173
   24.360    3.0332
   24.375    2.7488
   24.390    2.6962
   24.405    2.7909
   24.420    2.8120
   24.435    2.6646
   24.450    2.7383
   24.465    2.6751
   24.480    2.5382
   24.495    2.8857
   24.510    2.5908
   24.525    2.5171
   24.540    2.8015
   24.555    2.7909
   24.570    2.7067
   24.585    2.8120
   24.600    3.0226
   24.615    2.9489
   24.630    2.5803
   24.645    2.6856
   24.660    2.9068
   24.675    2.6751
   24.690    2.6646
   24.705    2.6962
   24.720    2.8331
   24.735    2.9595
   24.750    2.9700
   24.765    2.6224
   24.780    2.6224
   24.795    2.9173
   24.810    2.9279
   24.825    2.8647
   24.840    2.6751
   24.855    2.7699
   24.870    2.5908
   24.885    2.6856
   24.900    2.9384
   24.915    2.6435
   24.930    2.6646
   24.945    2.8541
   24.960    2.9489
   24.975    2.7699
   24.990    2.6962
   25.005    3.0542
   25.020    2.7488
   25.035    2.8225
   25.050    2.7488
   25.065    2.8857
   25.080    2.9489
   25.095    2.8331
   25.110    2.6435
   25.125    2.6119
   25.140    2.6856
   25.155    2.6119
   25.170    2.7699
   25.185    2.6646
   25.200    2.8120
   25.215    2.7909
   25.230    2.6014
   25.245    2.8120
   25.260    2.9068
   25.275    2.7909
   25.290    2.8225
   25.305    2.8857
   25.320    2.6119
   25.335    2.7278
   25.350    2.6751
   25.365    2.6540
   25.380    2.7699
   25.395    2.7804
   25.410    2.4645
   25.425    2.6751
   25.440    2.6962
   25.455    2.6330
   25.470    2.6962
   25.485    2.6119
   25.500    2.7804
   25.515    2.5171
   25.530    2.6119
   25.545    2.7067
   25.560    2.7172
   25.575    2.8963
   25.590    3.0332
   25.605    3.0332
   25.620    2.8963
   25.635    2.8436
   25.650    2.8225
   25.665    2.7383
   25.680    2.6014
   25.695    2.7278
   25.710    2.6751
   25.725    2.4118
   25.740    2.5698
   25.755    2.6014
   25.770    2.6435
   25.785    2.9068
   25.800    2.8541
   25.815    2.8120
   25.830    2.7172
   25.845    2.7488
   25.860    2.9068
   25.875    2.7909
   25.890    3.2333
   25.905    2.7067
   25.920    2.8225
   25.935    2.8120
   25.950    2.7804
   25.965    2.7172
   25.980    2.7172
   25.995    2.6962
   26.010    2.6435
   26.025    2.6646
   26.040    2.6751
   26.055    2.5066
   26.070    2.6751
   26.085    2.5698
   26.100    2.6119
   26.115    2.4013
   26.130    2.8225
   26.145    2.8120
   26.160    2.6330
   26.175    2.7278
   26.190    2.5698
   26.205    2.4750
   26.220    2.7067
   26.235    2.8541
   26.250    2.6540
   26.265    2.6751
   26.280    2.6962
   26.295    2.4750
   26.310    2.5698
   26.325    2.5592
   26.340    2.3907
   26.355    2.8436
   26.370    2.4855
   26.385    2.7488
   26.400    2.8436
   26.415    2.6962
   26.430    2.6330
   26.445    2.6224
   26.460    2.7699
   26.475    2.4855
   26.490    2.5276
   26.505    2.6540
   26.520    2.7804
   26.535    3.0437
   26.550    2.7383
   26.565    2.4223
   26.580    2.5698
   26.595    2.6224
   26.610    2.5276
   26.625    2.6856
   26.640    2.6224
   26.655    2.6119
   26.670    2.7699
   26.685    2.7067
   26.700    2.7383
   26.715    2.6330
   26.730    2.2959
   26.745    2.7067
   26.760    2.5803
   26.775    2.6330
   26.790    2.2643
   26.805    2.4434
   26.820    2.3065
   26.835    2.2117
   26.850    2.4013
   26.865    2.6540
   26.880    2.6751
   26.895    2.4645
   26.910    2.3381
   26.925    2.4539
   26.940    2.3907
   26.955    2.3381
   26.970    2.4539
   26.985    2.5803
   27.000    2.5487
   27.015    2.6014
   27.030    2.6330
   27.045    2.8225
   27.060    2.7593
   27.075    2.7593
   27.090    2.6330
   27.105    2.6435
   27.120    2.6751
   27.135    2.8541
   27.150    2.6119
   27.165    2.5066
   27.180    2.6330
   27.195    2.6330
   27.210    2.5066
   27.225    2.2328
   27.240    2.1801
   27.255    2.4645
   27.270    2.4223
   27.285    2.4434
   27.300    2.4645
   27.315    2.2749
   27.330    2.2959
   27.345    2.2012
   27.360    2.4539
   27.375    2.4539
   27.390    2.7383
   27.405    2.3697
   27.420    2.4013
   27.435    2.2959
   27.450    2.4855
   27.465    2.2959
   27.480    2.2959
   27.495    2.3170
   27.510    2.3275
   27.525    2.4434
   27.540    2.5171
   27.555    2.3907
   27.570    2.5171
   27.585    2.4961
   27.600    2.3486
   27.615    2.4645
   27.630    2.6540
   27.645    2.6751
   27.660    2.3381
   27.675    2.5171
   27.690    2.5908
   27.705    2.4855
   27.720    2.5803
   27.735    2.4118
   27.750    2.2328
   27.765    2.4855
   27.780    2.5276
   27.795    2.3591
   27.810    2.4013
   27.825    2.3275
   27.840    2.3591
   27.855    2.3697
   27.870    2.6646
   27.885    2.4750
   27.900    2.4223
   27.915    2.3275
   27.930    2.3170
   27.945    2.2222
   27.960    2.6435
   27.975    3.0226
   27.990    2.9595
   28.005    2.9700
   28.020    2.8752
   28.035    2.7593
   28.050    2.6751
   28.065    2.4645
   28.080    2.3802
   28.095    2.5171
   28.110    2.6330
   28.125    2.3802
   28.140    2.6224
   28.155    2.6224
   28.170    2.4645
   28.185    2.5487
   28.200    2.3697
   28.215    2.3591
   28.230    2.5066
   28.245    2.4329
   28.260    2.3697
   28.275    2.3907
   28.290    2.4013
   28.305    2.4961
   28.320    2.3697
   28.335    2.4223
   28.350    2.4118
   28.365    2.5171
   28.380    2.3170
   28.395    2.3591
   28.410    2.3486
   28.425    2.3486
   28.440    2.3591
   28.455    2.5487
   28.470    2.4118
   28.485    2.5382
   28.500    2.3170
   28.515    2.5066
   28.530    2.4434
   28.545    2.4434
   28.560    2.4118
   28.575    2.5698
   28.590    2.3802
   28.605    2.2433
   28.620    2.3802
   28.635    2.5698
   28.650    2.5276
   28.665    2.4750
   28.680    2.2117
   28.695    2.3802
   28.710    2.2959
   28.725    2.5592
   28.740    2.5803
   28.755    2.2959
   28.770    2.3486
   28.785    2.4961
   28.800    2.3802
   28.815    2.4434
   28.830    2.4434
   28.845    2.4223
   28.860    2.3907
   28.875    2.1801
   28.890    2.4013
   28.905    2.5382
   28.920    2.6540
   28.935    2.5276
   28.950    2.4961
   28.965    2.6119
   28.980    2.7804
   28.995    2.5698
   29.010    2.4118
   29.025    2.2749
   29.040    2.2538
   29.055    2.4434
   29.070    2.6014
   29.085    2.2012
   29.100    2.4013
   29.115    2.2854
   29.130    2.4961
   29.145    2.2643
   29.160    2.4645
   29.175    2.3275
   29.190    2.0748
   29.205    2.3907
   29.220    2.6014
   29.235    2.2854
   29.250    2.1169
   29.265    2.3907
   29.280    2.3591
   29.295    2.4329
   29.310    2.2854
   29.325    2.4118
   29.340    2.4750
   29.355    2.5276
   29.370    2.4855
   29.385    2.1590
   29.400    2.0958
   29.415    2.4645
   29.430    2.0642
   29.445    1.9168
   29.460    2.0326
   29.475    2.0748
   29.490    2.3275
   29.505    2.2328
   29.520    2.2538
   29.535    2.2433
   29.550    2.1169
   29.565    2.1064
   29.580    2.0537
   29.595    2.1696
   29.610    1.9379
   29.625    2.0958
   29.640    2.0853
   29.655    2.1696
   29.670    2.1380
   29.685    2.2328
   29.700    2.0221
   29.715    2.0642
   29.730    2.2222
   29.745    2.2117
   29.760    2.0748
   29.775    2.0748
   29.790    2.0642
   29.805    2.2749
   29.820    2.1169
   29.835    2.0326
   29.850    2.1380
   29.865    2.3170
   29.880    1.9379
   29.895    2.0642
   29.910    2.1696
   29.925    2.1169
   29.940    2.0537
   29.955    2.2117
   29.970    2.1696
   29.985    2.2959
   30.000    1.8852
   30.015    2.0642
   30.030    2.0432
   30.045    2.1064
   30.060    1.9695
   30.075    1.9484
   30.090    1.9168
   30.105    2.0116
   30.120    2.0748
   30.135    2.0221
   30.150    2.1064
   30.165    2.1590
   30.180    2.2117
   30.195    2.1590
   30.210    1.9800
   30.225    1.8957
   30.240    2.0958
   30.255    1.9905
   30.270    1.9695
   30.285    2.0011
   30.300    2.0642
   30.315    2.0642
   30.330    2.0748
   30.345    2.1485
   30.360    2.0853
   30.375    2.1274
   30.390    2.2012
   30.405    2.0221
   30.420    2.0326
   30.435    1.7588
   30.450    1.7378
   30.465    1.8957
   30.480    2.1801
   30.495    1.9800
   30.510    2.2012
   30.525    2.0853
   30.540    1.8747
   30.555    2.0958
   30.570    2.1696
   30.585    2.2854
   30.600    2.1274
   30.615    2.1274
   30.630    1.9484
   30.645    2.0642
   30.660    2.0958
   30.675    2.0326
   30.690    2.0642
   30.705    2.0011
   30.720    2.0326
   30.735    2.1485
   30.750    2.0642
   30.765    2.1169
   30.780    1.9589
   30.795    1.9379
   30.810    2.0116
   30.825    1.9168
   30.840    1.9589
   30.855    2.0853
   30.870    1.9273
   30.885    1.9800
   30.900    1.9273
   30.915    1.9168
   30.930    1.9800
   30.945    2.0011
   30.960    1.9063
   30.975    1.8431
   30.990    1.8220
   31.005    1.8747
   31.020    1.9589
   31.035    2.0116
   31.050    2.1274
   31.065    1.8220
   31.080    1.9695
   31.095    1.9379
   31.110    1.8431
   31.125    1.9484
   31.140    1.9800
   31.155    2.1485
   31.170    2.3802
   31.185    2.1906
   31.200    2.1169
   31.215    2.0537
   31.230    1.9273
   31.245    1.8220
   31.260    1.9273
   31.275    2.0748
   31.290    1.8536
   31.305    1.7904
   31.320    1.8747
   31.335    2.0011
   31.350    2.0642
   31.365    1.9484
   31.380    1.8009
   31.395    1.9379
   31.410    1.9273
   31.425    2.0748
   31.440    1.9273
   31.455    1.8641
   31.470    1.9484
   31.485    1.9589
   31.500    2.0748
   31.515    1.7694
   31.530    1.8536
   31.545    1.7588
   31.560    2.0326
   31.575    2.0221
   31.590    1.9273
   31.605    1.9695
   31.620    1.8431
   31.635    1.9695
   31.650    2.0326
   31.665    1.8747
   31.680    1.8009
   31.695    1.9273
   31.710    1.8957
   31.725    2.0853
   31.740    2.3697
   31.755    2.5066
   31.770    2.3065
   31.785    2.1485
   31.800    1.9484
   31.815    1.8957
   31.830    1.7694
   31.845    1.7904
   31.860    2.0011
   31.875    1.8325
   31.890    1.8220
   31.905    1.9905
   31.920    1.8641
   31.935    1.8220
   31.950    1.8431
   31.965    1.8641
   31.980    1.9905
   31.995    1.8852
   32.010    1.8115
   32.025    1.9273
   32.040    2.2117
   32.055    2.3802
   32.070    2.5487
   32.085    2.4645
   32.100    2.2012
   32.115    2.2749
   32.130    2.1801
   32.145    1.7904
   32.160    1.6956
   32.175    1.5377
   32.190    1.5587
   32.205    1.7799
   32.220    1.9800
   32.235    1.8747
   32.250    1.9589
   32.265    1.9379
   32.280    1.8115
   32.295    1.7378
   32.310    1.8536
   32.325    1.8431
   32.340    1.6956
   32.355    1.8009
   32.370    1.7272
   32.385    1.7694
   32.400    1.8431
   32.415    1.8747
   32.430    1.8115
   32.445    1.7588
   32.460    1.9273
   32.475    1.9800
   32.490    1.7483
   32.505    1.8220
   32.520    1.8747
   32.535    1.6535
   32.550    1.9800
   32.565    1.8220
   32.580    1.7483
   32.595    1.8220
   32.610    1.9063
   32.625    2.1380
   32.640    2.0116
   32.655    1.7378
   32.670    1.7272
   32.685    1.8536
   32.700    2.0116
   32.715    1.8641
   32.730    1.5587
   32.745    1.8115
   32.760    1.7167
   32.775    1.6746
   32.790    1.6956
   32.805    1.7694
   32.820    1.9168
   32.835    2.0011
   32.850    1.9168
   32.865    1.8325
   32.880    1.8747
   32.895    1.8536
   32.910    1.8431
   32.925    1.8747
   32.940    1.8220
   32.955    1.6851
   32.970    1.7694
   32.985    1.5377
   33.000    1.7694
   33.015    1.8957
   33.030    1.7588
   33.045    1.8957
   33.060    1.7799
   33.075    1.7694
   33.090    1.7694
   33.105    1.6430
   33.120    1.6956
   33.135    1.7483
   33.150    1.7904
   33.165    1.6640
   33.180    1.7904
   33.195    1.6746
   33.210    1.8852
   33.225    1.7062
   33.240    1.6640
   33.255    1.6008
   33.270    1.7062
   33.285    1.7483
   33.300    1.6956
   33.315    1.7799
   33.330    1.7588
   33.345    1.6640
   33.360    1.6956
   33.375    1.5587
   33.390    1.6746
   33.405    1.6535
   33.420    1.6430
   33.435    1.7483
   33.450    2.0116
   33.465    1.7904
   33.480    1.7272
   33.495    1.7799
   33.510    1.5692
   33.525    1.6956
   33.540    1.7062
   33.555    1.8115
   33.570    1.6430
   33.585    1.7062
   33.600    1.8957
   33.615    1.7167
   33.630    1.8536
   33.645    1.6746
   33.660    1.6324
   33.675    1.6114
   33.690    1.8220
   33.705    1.7904
   33.720    1.6535
   33.735    1.6535
   33.750    1.5692
   33.765    1.8220
   33.780    1.7483
   33.795    1.9379
   33.810    2.2643
   33.825    2.0642
   33.840    2.1380
   33.855    1.7272
   33.870    1.6956
   33.885    1.6851
   33.900    1.8747
   33.915    1.7167
   33.930    1.8641
   33.945    1.8536
   33.960    1.9379
   33.975    1.7167
   33.990    1.7904
   34.005    1.8115
   34.020    1.7062
   34.035    1.8431
   34.050    1.7694
   34.065    1.8431
   34.080    1.8009
   34.095    1.8957
   34.110    1.6324
   34.125    1.6430
   34.140    1.6746
   34.155    1.7167
   34.170    1.6746
   34.185    1.5903
   34.200    1.6430
   34.215    1.5692
   34.230    1.7588
   34.245    1.8115
   34.260    1.7904
   34.275    1.5587
   34.290    1.8431
   34.305    1.7483
   34.320    1.7483
   34.335    1.5903
   34.350    1.8220
   34.365    1.9273
   34.380    1.6640
   34.395    1.7062
   34.410    1.6746
   34.425    1.6640
   34.440    1.6430
   34.455    1.6535
   34.470    1.7062
   34.485    1.7167
   34.500    1.7062
   34.515    1.7694
   34.530    1.7272
   34.545    1.7378
   34.560    1.6535
   34.575    1.6640
   34.590    1.8009
   34.605    1.7167
   34.620    1.7904
   34.635    1.9168
   34.650    1.8431
   34.665    1.7904
   34.680    1.9589
   34.695    1.5798
   34.710    1.7483
   34.725    1.6746
   34.740    1.5482
   34.755    1.5166
   34.770    1.7483
   34.785    1.8115
   34.800    1.7904
   34.815    1.6746
   34.830    1.8009
   34.845    1.8852
   34.860    1.5903
   34.875    1.5587
   34.890    1.7272
   34.905    1.5692
   34.920    1.6430
   34.935    1.9063
   34.950    1.7694
   34.965    1.8431
   34.980    1.7272
   34.995    1.7483
   35.010    1.7272
   35.025    1.9273
   35.040    1.8641
   35.055    1.6956
   35.070    1.6114
   35.085    1.7167
   35.100    1.8747
   35.115    1.7272
   35.130    1.8220
   35.145    1.5798
   35.160    1.7799
   35.175    1.6956
   35.190    1.6324
   35.205    1.9379
   35.220    1.7694
   35.235    1.7588
   35.250    1.6114
   35.265    1.7904
   35.280    1.8431
   35.295    1.9589
   35.310    1.8641
   35.325    1.7272
   35.340    1.7272
   35.355    1.9484
   35.370    1.8536
   35.385    1.7904
   35.400    1.6956
   35.415    1.7272
   35.430    1.6114
   35.445    1.5692
   35.460    1.8009
   35.475    1.7799
   35.490    1.7062
   35.505    1.5587
   35.520    1.6535
   35.535    1.6430
   35.550    1.7378
   35.565    1.7272
   35.580    1.6851
   35.595    1.5482
   35.610    1.5061
   35.625    1.5903
   35.640    1.5692
   35.655    1.7694
   35.670    1.7799
   35.685    1.8852
   35.700    1.7062
   35.715    1.5377
   35.730    1.5692
   35.745    1.5587
   35.760    1.6956
   35.775    1.7588
   35.790    1.7062
   35.805    1.6008
   35.820    1.7062
   35.835    1.6851
   35.850    1.8325
   35.865    1.6535
   35.880    1.7904
   35.895    1.7167
   35.910    1.6219
   35.925    1.5482
   35.940    1.6535
   35.955    1.8641
   35.970    1.8957
   35.985    1.6956
   36.000    1.8220
   36.015    1.6746
   36.030    1.5271
   36.045    1.7167
   36.060    1.9484
   36.075    1.8431
   36.090    1.5903
   36.105    1.5798
   36.120    1.6324
   36.135    1.6746
   36.150    1.4429
   36.165    1.7483
   36.180    1.6640
   36.195    1.6746
   36.210    1.6535
   36.225    1.6535
   36.240    1.8325
   36.255    1.7378
   36.270    1.8220
   36.285    1.7694
   36.300    1.6535
   36.315    1.7588
   36.330    1.6219
   36.345    1.7272
   36.360    1.8431
   36.375    1.8220
   36.390    1.7904
   36.405    1.6851
   36.420    1.7904
   36.435    1.5903
   36.450    1.6640
   36.465    1.6008
   36.480    1.4429
   36.495    1.5903
   36.510    1.5692
   36.525    1.5587
   36.540    1.5903
   36.555    1.8009
   36.570    1.9484
   36.585    1.6219
   36.600    1.7904
   36.615    1.6640
   36.630    1.5061
   36.645    1.7483
   36.660    1.7588
   36.675    1.6430
   36.690    1.5692
   36.705    1.8115
   36.720    1.7694
   36.735    1.8115
   36.750    1.7167
   36.765    1.5587
   36.780    1.7062
   36.795    1.6640
   36.810    1.5903
   36.825    1.6008
   36.840    1.7272
   36.855    1.5271
   36.870    1.8325
   36.885    1.7904
   36.900    1.6430
   36.915    1.7378
   36.930    1.6324
   36.945    1.8115
   36.960    1.7483
   36.975    1.6219
   36.990    1.5377
   37.005    1.6219
   37.020    1.9063
   37.035    1.7167
   37.050    1.6219
   37.065    1.7062
   37.080    1.7904
   37.095    1.5798
   37.110    1.7272
   37.125    1.6956
   37.140    1.5377
   37.155    1.5587
   37.170    1.7062
   37.185    1.7694
   37.200    1.4113
   37.215    1.6640
   37.230    1.8536
   37.245    1.6746
   37.260    1.6324
   37.275    1.6956
   37.290    1.6851
   37.305    1.6114
   37.320    1.5798
   37.335    1.6324
   37.350    1.6219
   37.365    1.6746
   37.380    1.6324
   37.395    1.6851
   37.410    1.5482
   37.425    1.5692
   37.440    1.7694
   37.455    1.7694
   37.470    1.6114
   37.485    1.6324
   37.500    1.4850
   37.515    1.5692
   37.530    1.6114
   37.545    1.7272
   37.560    1.5798
   37.575    1.6640
   37.590    1.5798
   37.605    1.6535
   37.620    1.6851
   37.635    1.6746
   37.650    1.6851
   37.665    1.7378
   37.680    1.6851
   37.695    1.8641
   37.710    1.7062
   37.725    1.8641
   37.740    1.6430
   37.755    1.6219
   37.770    1.6430
   37.785    1.4323
   37.800    1.6535
   37.815    1.6324
   37.830    1.7167
   37.845    1.7588
   37.860    1.4429
   37.875    1.7799
   37.890    1.6851
   37.905    1.5271
   37.920    1.6851
   37.935    1.6535
   37.950    1.8325
   37.965    1.6324
   37.980    1.5271
   37.995    1.5798
   38.010    1.6008
   38.025    1.7167
   38.040    1.7483
   38.055    1.5798
   38.070    1.5377
   38.085    1.7799
   38.100    1.7799
   38.115    1.5061
   38.130    1.6535
   38.145    1.5587
   38.160    1.5061
   38.175    1.4955
   38.190    1.7062
   38.205    1.6114
   38.220    1.5377
   38.235    1.4429
   38.250    1.5482
   38.265    1.6746
   38.280    1.6219
   38.295    1.6535
   38.310    1.7588
   38.325    1.4955
   38.340    1.4745
   38.355    1.5271
   38.370    1.4955
   38.385    1.7588
   38.400    1.6535
   38.415    1.6219
   38.430    1.7272
   38.445    1.5271
   38.460    1.6430
   38.475    1.7378
   38.490    1.7378
   38.505    1.5587
   38.520    1.3691
   38.535    1.6008
   38.550    1.6219
   38.565    1.4955
   38.580    1.7272
   38.595    1.8957
   38.610    1.8852
   38.625    1.7062
   38.640    1.6114
   38.655    1.7483
   38.670    1.6956
   38.685    1.7062
   38.700    1.5587
   38.715    1.5271
   38.730    1.6219
   38.745    1.4850
   38.760    1.6219
   38.775    1.7378
   38.790    1.6324
   38.805    1.6956
   38.820    1.5061
   38.835    1.4534
   38.850    1.5903
   38.865    1.5166
   38.880    1.6114
   38.895    1.5692
   38.910    1.5377
   38.925    1.4745
   38.940    1.5903
   38.955    1.7483
   38.970    1.4639
   38.985    1.6324
   39.000    1.5903
   39.015    1.4218
   39.030    1.5271
   39.045    1.6219
   39.060    1.6114
   39.075    1.5482
   39.090    1.5903
   39.105    1.5271
   39.120    1.4639
   39.135    1.5587
   39.150    1.5798
   39.165    1.5798
   39.180    1.5166
   39.195    1.7062
   39.210    1.4850
   39.225    1.6746
   39.240    1.7062
   39.255    1.6008
   39.270    1.3481
   39.285    1.5587
   39.300    1.3375
   39.315    1.4007
   39.330    1.6851
   39.345    1.6008
   39.360    1.5587
   39.375    1.6219
   39.390    1.6114
   39.405    1.6640
   39.420    1.6640
   39.435    1.4639
   39.450    1.5271
   39.465    1.4534
   39.480    1.5482
   39.495    1.6430
   39.510    1.6114
   39.525    1.5377
   39.540    1.5271
   39.555    1.4323
   39.570    1.5482
   39.585    1.5903
   39.600    1.5377
   39.615    1.6535
   39.630    1.4850
   39.645    1.4745
   39.660    1.6008
   39.675    1.6956
   39.690    1.6219
   39.705    1.5587
   39.720    1.4534
   39.735    1.5587
   39.750    1.5692
   39.765    1.6114
   39.780    1.2849
   39.795    1.4534
   39.810    1.5061
   39.825    1.4218
   39.840    1.4429
   39.855    1.5271
   39.870    1.5692
   39.885    1.7167
   39.900    1.6535
   39.915    1.5166
   39.930    1.5482
   39.945    1.5798
   39.960    1.8325
   39.975    1.4639
   39.990    1.3586
