    1.500   22.9068
    1.515   22.9805
    1.530   22.8436
    1.545   22.0853
    1.560   21.3481
    1.575   20.7583
    1.590   20.6635
    1.605   20.2001
    1.620   19.8104
    1.635   19.1364
    1.650   18.9995
    1.665   18.9363
    1.680   18.5361
    1.695   17.7567
    1.710   17.8831
    1.725   17.4934
    1.740   16.9036
    1.755   16.8299
    1.770   17.2617
    1.785   16.7667
    1.800   16.9458
    1.815   16.3244
    1.830   15.9136
    1.845   16.0716
    1.860   15.4081
    1.875   15.1343
    1.890   15.3133
    1.905   15.2607
    1.920   14.4286
    1.935   14.1127
    1.950   14.2917
    1.965   14.1969
    1.980   14.1969
    1.995   13.5650
    2.010   13.0068
    2.025   13.1754
    2.040   13.5334
    2.055   13.5756
    2.070   12.7436
    2.085   12.3012
    2.100   12.5329
    2.115   12.5434
    2.130   12.1327
    2.145   12.3433
    2.160   12.3749
    2.175   12.2170
    2.190   11.8378
    2.205   11.6904
    2.220   11.9221
    2.235   11.5745
    2.250   11.1954
    2.265   11.0795
    2.280   11.2164
    2.295   11.3533
    2.310   11.3849
    2.325   10.8373
    2.340   10.9321
    2.355   10.5951
    2.370   10.9637
    2.385   10.3949
    2.400   10.8794
    2.415   10.4160
    2.430   10.3528
    2.445   10.6582
    2.460   10.3633
    2.475   10.3423
    2.490   10.5635
    2.505   10.1422
    2.520    9.7420
    2.535    9.4576
    2.550    9.7420
    2.565    9.8684
    2.580    9.9947
    2.595    9.6367
    2.610    8.8152
    2.625    9.4260
    2.640    9.4892
    2.655    9.1522
    2.670    9.1522
    2.685    9.3102
    2.700    9.3944
    2.715    9.1522
    2.730    8.7520
    2.745    8.8678
    2.760    8.6677
    2.775    8.6151
    2.790    9.1417
    2.805    9.1943
    2.820    9.0047
    2.835    9.2996
    2.850    8.8573
    2.865    8.5624
    2.880    8.7520
    2.895    8.6151
    2.910    8.5940
    2.925    8.4044
    2.940    8.6572
    2.955    8.5308
    2.970    8.5413
    2.985    8.4571
    3.000    8.5097
    3.015    8.7730
    3.030    8.4571
    3.045    8.0253
    3.060    8.5519
    3.075    7.8462
    3.090    8.2043
    3.105    7.7199
    3.120    7.8568
    3.135    7.9200
    3.150    8.0253
    3.165    7.8568
    3.180    7.6356
    3.195    7.6356
    3.210    7.2775
    3.225    7.6672
    3.240    7.7514
    3.255    7.8462
    3.270    7.5619
    3.285    7.7514
    3.300    8.0569
    3.315    7.9200
    3.330    7.5935
    3.345    7.7093
    3.360    7.6461
    3.375    7.5935
    3.390    7.4776
    3.405    7.8041
    3.420    7.3196
    3.435    7.4776
    3.450    7.8462
    3.465    7.6040
    3.480    7.9410
    3.495    7.6145
    3.510    7.2354
    3.525    7.1511
    3.540    6.9721
    3.555    7.1722
    3.570    7.4987
    3.585    7.6777
    3.600    7.4355
    3.615    7.2775
    3.630    6.9405
    3.645    7.3723
    3.660    7.8884
    3.675    7.2249
    3.690    7.1722
    3.705    7.1827
    3.720    7.3723
    3.735    6.7930
    3.750    7.1722
    3.765    7.2565
    3.780    6.8773
    3.795    7.1090
    3.810    7.1195
    3.825    7.1406
    3.840    7.1617
    3.855    7.3828
    3.870    7.2670
    3.885    7.2143
    3.900    7.1301
    3.915    7.1406
    3.930    7.0142
    3.945    7.1827
    3.960    6.7193
    3.975    6.9194
    3.990    7.2565
    4.005    7.0985
    4.020    7.1195
    4.035    7.2354
    4.050    7.6251
    4.065    7.2670
    4.080    7.3091
    4.095    7.2986
    4.110    7.2038
    4.125    7.1090
    4.140    6.8246
    4.155    7.1301
    4.170    7.2986
    4.185    7.0669
    4.200    7.0248
    4.215    6.9194
    4.230    7.3302
    4.245    6.8773
    4.260    6.8878
    4.275    6.7930
    4.290    6.9510
    4.305    6.3402
    4.320    6.5298
    4.335    7.0248
    4.350    6.6877
    4.365    6.8141
    4.380    6.5929
    4.395    6.5508
    4.410    6.4876
    4.425    6.5613
    4.440    6.8878
    4.455    7.0248
    4.470    6.5929
    4.485    6.8457
    4.500    6.9616
    4.515    6.6351
    4.530    7.1090
    4.545    6.7193
    4.560    6.7930
    4.575    7.0563
    4.590    6.6456
    4.605    7.0563
    4.620    6.9405
    4.635    6.8352
    4.650    6.6561
    4.665    6.6772
    4.680    6.4244
    4.695    6.4455
    4.710    6.1717
    4.725    6.2559
    4.740    6.2665
    4.755    6.4034
    4.770    6.5929
    4.785    6.3191
    4.800    6.2875
    4.815    6.8984
    4.830    6.6772
    4.845    6.5403
    4.860    6.3296
    4.875    6.2665
    4.890    6.6245
    4.905    6.8352
    4.920    6.5298
    4.935    6.4771
    4.950    6.5929
    4.965    6.5719
    4.980    6.4876
    4.995    6.4139
    5.010    6.1927
    5.025    6.2033
    5.040    6.6456
    5.055    6.4455
    5.070    6.4244
    5.085    6.0979
    5.100    6.3086
    5.115    6.1717
    5.130    6.6667
    5.145    6.5719
    5.160    6.4771
    5.175    6.0453
    5.190    6.2770
    5.205    6.5298
    5.220    6.1611
    5.235    6.3823
    5.250    6.4876
    5.265    6.2559
    5.280    6.1190
    5.295    6.1085
    5.310    6.7193
    5.325    6.1190
    5.340    6.1822
    5.355    6.2454
    5.370    6.4034
    5.385    6.5929
    5.400    6.4139
    5.415    5.9505
    5.430    6.0558
    5.445    6.1295
    5.460    5.8452
    5.475    6.1822
    5.490    6.2349
    5.505    6.1085
    5.520    6.3928
    5.535    6.3402
    5.550    6.2875
    5.565    6.1295
    5.580    6.0979
    5.595    6.4244
    5.610    6.1822
    5.625    5.8136
    5.640    5.6451
    5.655    5.9084
    5.670    5.8347
    5.685    6.0769
    5.700    6.3928
    5.715    6.3296
    5.730    6.0769
    5.745    6.0769
    5.760    5.9926
    5.775    6.0348
    5.790    6.1085
    5.805    6.0979
    5.820    6.1717
    5.835    5.9189
    5.850    5.9084
    5.865    6.1506
    5.880    6.0664
    5.895    5.9926
    5.910    5.7504
    5.925    6.0242
    5.940    5.7293
    5.955    5.9610
    5.970    6.1295
    5.985    6.1717
    6.000    5.8873
    6.015    6.1822
    6.030    5.9505
    6.045    6.0558
    6.060    5.9716
    6.075    5.9716
    6.090    6.2559
    6.105    6.0769
    6.120    5.8557
    6.135    6.1190
    6.150    6.0453
    6.165    6.0558
    6.180    6.2454
    6.195    6.4139
    6.210    6.5929
    6.225    5.8031
    6.240    6.5508
    6.255    6.3507
    6.270    6.2243
    6.285    6.1822
    6.300    6.2138
    6.315    5.8241
    6.330    6.0769
    6.345    6.0348
    6.360    5.8347
    6.375    5.7925
    6.390    5.8241
    6.405    6.1190
    6.420    6.4876
    6.435    6.2243
    6.450    6.1506
    6.465    5.9610
    6.480    6.2454
    6.495    6.2665
    6.510    5.9189
    6.525    6.0874
    6.540    6.4350
    6.555    5.9610
    6.570    5.7504
    6.585    6.2875
    6.600    6.4876
    6.615    6.0769
    6.630    6.4560
    6.645    6.1927
    6.660    5.8136
    6.675    5.7925
    6.690    5.8452
    6.705    5.9294
    6.720    6.2665
    6.735    6.2559
    6.750    6.0979
    6.765    6.1295
    6.780    6.1401
    6.795    6.0664
    6.810    5.9926
    6.825    5.9294
    6.840    6.2665
    6.855    6.2033
    6.870    6.1822
    6.885    6.7299
    6.900    6.1295
    6.915    6.1822
    6.930    6.0348
    6.945    6.0769
    6.960    6.1401
    6.975    6.0242
    6.990    5.9400
    7.005    6.3507
    7.020    5.9610
    7.035    5.9716
    7.050    6.0979
    7.065    6.2243
    7.080    6.0769
    7.095    5.8978
    7.110    6.1822
    7.125    6.1190
    7.140    6.2559
    7.155    6.0769
    7.170    6.1085
    7.185    6.4350
    7.200    6.1085
    7.215    6.2454
    7.230    6.3402
    7.245    6.1295
    7.260    6.2665
    7.275    6.1717
    7.290    6.4560
    7.305    6.4034
    7.320    6.1295
    7.335    5.9926
    7.350    6.0769
    7.365    5.9821
    7.380    6.2875
    7.395    6.1717
    7.410    6.5403
    7.425    6.2138
    7.440    6.4771
    7.455    6.3507
    7.470    6.2349
    7.485    5.8978
    7.500    5.9084
    7.515    6.1295
    7.530    6.4876
    7.545    6.2454
    7.560    6.6561
    7.575    6.1295
    7.590    6.1822
    7.605    6.4244
    7.620    6.4560
    7.635    6.2454
    7.650    6.1927
    7.665    6.0664
    7.680    6.1190
    7.695    6.2138
    7.710    6.1927
    7.725    6.0453
    7.740    6.4560
    7.755    6.2559
    7.770    6.2033
    7.785    5.9610
    7.800    6.2138
    7.815    5.8873
    7.830    6.4244
    7.845    6.1717
    7.860    5.9926
    7.875    6.2665
    7.890    6.1717
    7.905    6.0979
    7.920    6.1506
    7.935    6.0137
    7.950    5.9926
    7.965    6.1717
    7.980    6.0453
    7.995    6.1717
    8.010    6.4876
    8.025    6.1401
    8.040    6.0137
    8.055    5.7715
    8.070    6.3296
    8.085    6.1401
    8.100    5.8978
    8.115    6.2349
    8.130    6.0137
    8.145    6.0558
    8.160    6.4244
    8.175    5.8768
    8.190    5.9505
    8.205    6.1401
    8.220    6.4350
    8.235    5.6345
    8.250    5.7609
    8.265    6.1401
    8.280    5.9084
    8.295    6.4244
    8.310    6.0242
    8.325    6.0453
    8.340    6.4560
    8.355    6.1085
    8.370    5.9821
    8.385    6.1401
    8.400    6.0453
    8.415    6.0348
    8.430    5.9189
    8.445    6.1190
    8.460    6.2349
    8.475    6.1822
    8.490    6.0664
    8.505    5.9400
    8.520    6.0874
    8.535    6.0558
    8.550    6.4455
    8.565    6.6140
    8.580    6.1611
    8.595    6.3402
    8.610    6.3086
    8.625    5.9400
    8.640    6.2559
    8.655    6.2349
    8.670    5.9084
    8.685    5.7293
    8.700    6.0664
    8.715    6.0664
    8.730    6.0558
    8.745    5.9926
    8.760    6.0348
    8.775    5.8873
    8.790    6.1717
    8.805    5.8873
    8.820    6.1717
    8.835    6.2454
    8.850    6.0348
    8.865    5.9716
    8.880    6.0348
    8.895    6.2665
    8.910    6.1295
    8.925    6.1717
    8.940    5.9189
    8.955    6.2454
    8.970    6.1822
    8.985    6.0032
    9.000    6.1822
    9.015    6.5403
    9.030    6.1717
    9.045    6.0242
    9.060    6.0242
    9.075    6.4244
    9.090    6.2349
    9.105    6.0979
    9.120    5.9926
    9.135    5.6556
    9.150    6.1611
    9.165    5.8768
    9.180    6.2243
    9.195    5.9610
    9.210    6.1717
    9.225    5.9505
    9.240    6.1717
    9.255    5.7715
    9.270    6.1190
    9.285    5.9189
    9.300    6.0769
    9.315    6.1295
    9.330    6.0032
    9.345    6.0874
    9.360    5.6661
    9.375    5.9716
    9.390    5.8136
    9.405    6.0348
    9.420    6.1190
    9.435    5.6767
    9.450    5.7609
    9.465    6.0242
    9.480    6.0664
    9.495    5.8136
    9.510    6.1717
    9.525    6.1085
    9.540    6.1295
    9.555    5.9084
    9.570    5.9084
    9.585    5.8136
    9.600    5.9084
    9.615    6.2138
    9.630    5.9294
    9.645    6.2349
    9.660    6.2770
    9.675    6.0137
    9.690    5.7399
    9.705    6.0874
    9.720    6.2559
    9.735    5.9821
    9.750    5.8136
    9.765    6.0558
    9.780    6.2981
    9.795    5.8662
    9.810    6.0032
    9.825    5.9505
    9.840    6.2138
    9.855    6.1611
    9.870    6.3507
    9.885    5.7609
    9.900    5.8768
    9.915    6.0979
    9.930    5.8978
    9.945    5.8978
    9.960    5.6767
    9.975    5.8978
    9.990    5.8662
   10.005    6.0348
   10.020    5.9400
   10.035    5.7609
   10.050    6.0453
   10.065    6.0558
   10.080    6.0032
   10.095    5.9400
   10.110    5.9084
   10.125    5.9926
   10.140    6.0558
   10.155    5.6767
   10.170    5.6767
   10.185    5.5714
   10.200    5.6977
   10.215    6.0874
   10.230    6.1927
   10.245    5.7609
   10.260    5.6451
   10.275    5.6661
   10.290    6.0242
   10.305    5.9189
   10.320    5.9505
   10.335    5.9821
   10.350    6.0032
   10.365    5.8662
   10.380    5.5924
   10.395    5.7820
   10.410    6.2665
   10.425    6.0453
   10.440    6.0242
   10.455    5.7293
   10.470    5.9189
   10.485    5.8347
   10.500    5.8241
   10.515    5.9610
   10.530    5.8768
   10.545    5.7083
   10.560    5.9505
   10.575    5.8978
   10.590    6.0032
   10.605    5.9294
   10.620    5.8768
   10.635    5.6029
   10.650    5.7293
   10.665    5.7609
   10.680    5.9189
   10.695    6.0348
   10.710    6.0664
   10.725    6.2454
   10.740    5.8662
   10.755    6.0558
   10.770    6.1401
   10.785    6.1717
   10.800    6.0032
   10.815    5.9505
   10.830    5.7083
   10.845    5.6345
   10.860    5.4871
   10.875    5.4871
   10.890    5.9610
   10.905    6.1295
   10.920    6.1717
   10.935    6.1085
   10.950    6.2559
   10.965    5.3712
   10.980    5.3818
   10.995    5.5292
   11.010    5.9505
   11.025    6.1085
   11.040    5.9400
   11.055    6.0032
   11.070    6.1611
   11.085    6.0769
   11.100    5.8662
   11.115    5.8136
   11.130    5.9505
   11.145    5.9610
   11.160    6.1190
   11.175    5.7399
   11.190    5.9505
   11.205    6.0769
   11.220    6.2349
   11.235    6.1611
   11.250    5.8452
   11.265    5.7715
   11.280    6.0242
   11.295    6.0664
   11.310    5.8136
   11.325    6.1295
   11.340    6.1506
   11.355    5.5924
   11.370    5.7820
   11.385    5.7504
   11.400    5.7188
   11.415    6.0558
   11.430    5.7504
   11.445    6.1822
   11.460    5.6977
   11.475    5.6767
   11.490    5.6661
   11.505    5.7820
   11.520    5.9505
   11.535    6.0032
   11.550    5.7504
   11.565    5.6451
   11.580    5.8031
   11.595    6.0032
   11.610    6.1822
   11.625    5.1290
   11.640    5.5608
   11.655    5.5714
   11.670    5.7820
   11.685    5.3818
   11.700    5.7293
   11.715    5.7293
   11.730    5.9189
   11.745    6.0242
   11.760    5.8768
   11.775    6.0242
   11.790    6.1401
   11.805    5.8768
   11.820    5.7504
   11.835    5.9084
   11.850    6.0664
   11.865    6.1822
   11.880    5.8873
   11.895    6.0242
   11.910    5.9610
   11.925    5.6977
   11.940    5.8557
   11.955    5.8768
   11.970    5.8031
   11.985    5.7504
   12.000    5.9084
   12.015    6.0348
   12.030    6.2349
   12.045    5.7925
   12.060    6.0664
   12.075    6.0453
   12.090    6.0664
   12.105    5.6029
   12.120    5.2765
   12.135    5.7820
   12.150    5.4766
   12.165    5.5608
   12.180    6.0242
   12.195    5.8873
   12.210    5.8768
   12.225    5.6872
   12.240    5.3818
   12.255    6.0137
   12.270    6.0032
   12.285    5.6977
   12.300    5.9821
   12.315    5.4976
   12.330    5.7083
   12.345    5.7715
   12.360    5.6135
   12.375    5.4660
   12.390    5.4976
   12.405    6.1506
   12.420    6.0032
   12.435    5.6345
   12.450    5.5714
   12.465    5.8031
   12.480    5.3923
   12.495    5.6556
   12.510    5.6661
   12.525    5.8452
   12.540    6.0979
   12.555    5.9084
   12.570    5.6872
   12.585    5.9716
   12.600    6.2349
   12.615    5.4871
   12.630    5.4660
   12.645    5.4871
   12.660    5.8031
   12.675    5.8136
   12.690    5.7609
   12.705    5.7188
   12.720    5.3397
   12.735    5.5187
   12.750    5.5924
   12.765    5.6872
   12.780    5.3923
   12.795    5.8241
   12.810    5.6345
   12.825    5.6135
   12.840    5.4134
   12.855    5.8873
   12.870    5.8347
   12.885    6.0137
   12.900    5.9505
   12.915    5.5608
   12.930    5.6767
   12.945    5.6029
   12.960    5.5082
   12.975    5.7715
   12.990    5.3607
   13.005    5.5187
   13.020    5.8241
   13.035    5.7715
   13.050    5.8241
   13.065    5.5714
   13.080    5.7083
   13.095    5.5082
   13.110    5.8136
   13.125    5.6977
   13.140    5.1711
   13.155    5.7293
   13.170    5.3186
   13.185    5.4239
   13.200    5.8768
   13.215    5.8768
   13.230    5.5503
   13.245    5.3502
   13.260    5.6977
   13.275    5.6451
   13.290    5.5714
   13.305    5.5187
   13.320    5.6872
   13.335    5.6135
   13.350    5.6135
   13.365    5.5608
   13.380    5.5819
   13.395    5.8873
   13.410    6.0348
   13.425    5.7188
   13.440    5.8031
   13.455    5.4134
   13.470    5.6135
   13.485    5.3923
   13.500    5.4766
   13.515    5.1711
   13.530    5.4976
   13.545    5.7293
   13.560    5.4450
   13.575    5.5608
   13.590    5.8031
   13.605    5.5292
   13.620    5.7083
   13.635    5.4450
   13.650    5.8136
   13.665    5.6451
   13.680    5.3502
   13.695    5.7399
   13.710    5.3291
   13.725    5.5924
   13.740    5.7609
   13.755    5.8662
   13.770    5.8662
   13.785    5.4344
   13.800    5.6135
   13.815    5.6029
   13.830    5.3712
   13.845    5.4976
   13.860    4.8131
   13.875    5.6451
   13.890    5.7820
   13.905    5.7399
   13.920    6.0664
   13.935    5.5608
   13.950    5.3818
   13.965    5.5503
   13.980    5.4450
   13.995    5.2870
   14.010    5.5503
   14.025    5.9400
   14.040    5.6029
   14.055    5.6977
   14.070    5.9189
   14.085    5.5608
   14.100    5.9610
   14.115    5.6240
   14.130    5.7083
   14.145    5.2975
   14.160    5.5503
   14.175    5.3818
   14.190    5.6240
   14.205    5.5398
   14.220    5.1922
   14.235    5.5503
   14.250    5.5503
   14.265    5.5082
   14.280    5.4871
   14.295    5.5398
   14.310    5.9400
   14.325    5.3923
   14.340    5.6872
   14.355    5.8873
   14.370    5.8557
   14.385    5.4976
   14.400    5.3291
   14.415    5.6661
   14.430    5.3502
   14.445    5.4239
   14.460    5.5187
   14.475    5.4239
   14.490    6.0032
   14.505    5.6767
   14.520    5.5398
   14.535    5.9294
   14.550    5.4660
   14.565    5.7504
   14.580    5.6451
   14.595    5.5608
   14.610    6.2243
   14.625    5.8557
   14.640    5.2133
   14.655    5.6135
   14.670    5.8662
   14.685    5.6872
   14.700    5.3081
   14.715    5.5398
   14.730    5.6767
   14.745    5.8031
   14.760    5.6135
   14.775    5.4976
   14.790    5.7715
   14.805    5.6872
   14.820    5.5819
   14.835    5.4555
   14.850    5.6345
   14.865    5.3291
   14.880    5.9294
   14.895    5.7925
   14.910    5.6345
   14.925    5.5503
   14.940    5.5924
   14.955    5.7504
   14.970    5.6029
   14.985    5.3186
   15.000    5.7715
   15.015    5.6661
   15.030    5.8873
   15.045    6.1717
   15.060    5.4344
   15.075    5.7188
   15.090    5.5398
   15.105    5.8136
   15.120    5.4450
   15.135    5.4871
   15.150    5.2449
   15.165    5.6872
   15.180    6.3507
   15.195    6.0032
   15.210    5.2659
   15.225    5.5608
   15.240    5.7399
   15.255    5.9926
   15.270    5.9084
   15.285    5.5819
   15.300    5.6872
   15.315    5.4028
   15.330    5.2975
   15.345    5.7609
   15.360    5.7504
   15.375    5.5924
   15.390    5.6240
   15.405    5.5187
   15.420    5.7399
   15.435    5.6767
   15.450    5.8768
   15.465    5.5398
   15.480    5.7715
   15.495    5.6451
   15.510    5.6977
   15.525    6.0032
   15.540    5.7609
   15.555    6.0348
   15.570    5.8136
   15.585    6.1085
   15.600    5.9716
   15.615    5.4239
   15.630    5.5924
   15.645    5.8031
   15.660    5.5714
   15.675    5.5503
   15.690    5.7715
   15.705    5.7715
   15.720    5.7399
   15.735    5.7083
   15.750    5.7293
   15.765    5.8768
   15.780    5.6556
   15.795    5.3818
   15.810    5.7925
   15.825    5.7925
   15.840    6.0137
   15.855    6.0453
   15.870    5.9926
   15.885    6.0242
   15.900    6.0032
   15.915    6.0453
   15.930    6.2349
   15.945    6.0769
   15.960    6.2665
   15.975    6.2454
   15.990    6.1506
   16.005    6.2559
   16.020    6.1927
   16.035    6.2243
   16.050    6.6035
   16.065    6.2349
   16.080    6.4034
   16.095    6.2138
   16.110    5.8662
   16.125    6.1717
   16.140    6.0453
   16.155    6.0348
   16.170    6.0979
   16.185    6.1085
   16.200    5.9926
   16.215    6.0664
   16.230    6.1611
   16.245    6.3191
   16.260    6.2981
   16.275    6.1822
   16.290    6.2665
   16.305    6.3823
   16.320    6.8141
   16.335    6.2033
   16.350    6.2349
   16.365    5.8241
   16.380    5.8873
   16.395    5.7504
   16.410    6.1295
   16.425    6.0979
   16.440    6.1295
   16.455    6.1506
   16.470    5.7083
   16.485    5.9400
   16.500    5.7504
   16.515    6.1190
   16.530    5.6135
   16.545    5.5714
   16.560    5.9926
   16.575    6.0874
   16.590    5.8768
   16.605    5.7504
   16.620    5.5714
   16.635    5.7820
   16.650    5.6767
   16.665    5.6029
   16.680    5.9189
   16.695    5.8873
   16.710    5.8662
   16.725    6.1295
   16.740    5.7820
   16.755    5.9926
   16.770    5.9400
   16.785    5.7715
   16.800    5.9610
   16.815    5.5714
   16.830    5.8136
   16.845    5.4766
   16.860    5.6029
   16.875    5.7820
   16.890    5.5819
   16.905    5.6451
   16.920    6.0032
   16.935    5.7504
   16.950    5.7188
   16.965    5.6977
   16.980    5.5398
   16.995    5.5819
   17.010    5.5714
   17.025    5.6135
   17.040    5.8662
   17.055    5.6345
   17.070    5.4028
   17.085    5.9716
   17.100    5.7399
   17.115    5.8136
   17.130    5.7083
   17.145    5.4344
   17.160    5.6977
   17.175    5.6556
   17.190    5.8347
   17.205    6.2138
   17.220    5.9084
   17.235    5.4976
   17.250    5.9716
   17.265    5.7820
   17.280    5.8768
   17.295    5.5608
   17.310    5.6345
   17.325    5.8241
   17.340    5.7925
   17.355    5.7925
   17.370    5.8557
   17.385    6.0242
   17.400    6.2875
   17.415    5.6661
   17.430    5.6767
   17.445    6.0242
   17.460    5.6767
   17.475    6.1085
   17.490    6.0453
   17.505    5.7820
   17.520    5.6872
   17.535    5.8978
   17.550    5.8136
   17.565    6.0453
   17.580    5.7715
   17.595    5.9926
   17.610    5.5608
   17.625    5.4766
   17.640    5.8347
   17.655    5.6872
   17.670    5.8241
   17.685    5.8347
   17.700    5.6451
   17.715    5.9716
   17.730    5.9716
   17.745    5.8557
   17.760    5.8452
   17.775    5.6767
   17.790    5.9294
   17.805    6.0769
   17.820    5.6240
   17.835    5.4871
   17.850    5.6556
   17.865    6.2349
   17.880    5.4976
   17.895    5.5503
   17.910    6.1927
   17.925    5.9189
   17.940    6.3612
   17.955    5.9821
   17.970    5.7188
   17.985    6.2665
   18.000    5.7609
   18.015    5.9294
   18.030    6.0769
   18.045    6.1611
   18.060    5.7820
   18.075    5.5292
   18.090    5.5292
   18.105    5.5819
   18.120    6.0137
   18.135    5.9716
   18.150    5.9294
   18.165    6.3086
   18.180    5.9189
   18.195    5.7609
   18.210    5.9926
   18.225    5.9610
   18.240    5.8031
   18.255    5.8136
   18.270    5.8873
   18.285    5.7504
   18.300    5.7820
   18.315    5.5819
   18.330    5.8136
   18.345    6.0558
   18.360    5.7715
   18.375    5.7715
   18.390    6.0348
   18.405    5.4660
   18.420    5.5608
   18.435    5.8452
   18.450    5.6029
   18.465    5.6240
   18.480    6.0348
   18.495    6.2243
   18.510    6.0137
   18.525    5.2449
   18.540    5.1711
   18.555    5.7293
   18.570    5.5398
   18.585    5.7820
   18.600    5.8557
   18.615    5.7293
   18.630    6.0348
   18.645    5.9821
   18.660    5.6661
   18.675    5.7188
   18.690    5.9189
   18.705    5.7293
   18.720    5.5608
   18.735    5.7820
   18.750    5.8768
   18.765    5.7820
   18.780    5.8136
   18.795    6.0137
   18.810    5.7925
   18.825    5.8452
   18.840    5.5608
   18.855    5.6872
   18.870    5.8241
   18.885    6.1927
   18.900    5.9716
   18.915    6.1295
   18.930    6.0874
   18.945    5.9084
   18.960    6.3507
   18.975    6.0348
   18.990    5.9716
   19.005    5.8557
   19.020    5.8452
   19.035    6.1506
   19.050    6.0242
   19.065    5.9189
   19.080    5.8557
   19.095    6.1401
   19.110    5.9716
   19.125    5.6977
   19.140    5.9400
   19.155    5.4555
   19.170    5.6556
   19.185    5.8873
   19.200    5.5398
   19.215    5.6872
   19.230    5.6556
   19.245    5.5924
   19.260    5.6240
   19.275    5.7715
   19.290    5.7820
   19.305    5.4660
   19.320    5.8452
   19.335    5.6135
   19.350    6.0348
   19.365    5.9400
   19.380    5.9926
   19.395    5.7925
   19.410    5.7293
   19.425    5.8347
   19.440    5.3291
   19.455    5.8873
   19.470    5.7925
   19.485    5.4555
   19.500    5.8768
   19.515    5.8662
   19.530    5.9821
   19.545    6.1190
   19.560    5.6977
   19.575    5.5819
   19.590    5.8347
   19.605    6.0032
   19.620    5.9821
   19.635    5.8452
   19.650    5.8873
   19.665    5.6451
   19.680    5.5608
   19.695    5.9294
   19.710    6.0664
   19.725    5.7715
   19.740    5.8241
   19.755    6.0874
   19.770    5.7399
   19.785    5.8031
   19.800    5.8662
   19.815    6.0348
   19.830    5.6556
   19.845    5.6029
   19.860    5.9400
   19.875    5.8031
   19.890    5.9926
   19.905    6.1085
   19.920    5.7820
   19.935    5.7715
   19.950    5.9189
   19.965    5.8768
   19.980    5.8978
   19.995    6.1085
   20.010    5.9505
   20.025    5.8978
   20.040    5.8662
   20.055    6.0242
   20.070    6.2138
   20.085    5.9610
   20.100    6.0137
   20.115    5.8662
   20.130    5.8031
   20.145    5.7293
   20.160    5.8452
   20.175    6.0664
   20.190    5.6556
   20.205    5.4344
   20.220    5.8452
   20.235    6.0032
   20.250    5.7715
   20.265    6.0137
   20.280    5.3397
   20.295    6.0348
   20.310    5.9610
   20.325    5.8136
   20.340    6.0242
   20.355    6.2033
   20.370    5.9400
   20.385    5.5819
   20.400    6.0032
   20.415    5.4976
   20.430    5.4134
   20.445    6.0348
   20.460    6.1506
   20.475    5.8347
   20.490    5.8557
   20.505    5.7504
   20.520    5.7715
   20.535    5.9610
   20.550    5.6872
   20.565    5.2449
   20.580    5.7188
   20.595    5.9821
   20.610    5.6345
   20.625    6.0242
   20.640    5.7293
   20.655    6.2875
   20.670    6.0137
   20.685    5.8662
   20.700    5.9189
   20.715    6.0348
   20.730    5.7504
   20.745    5.5503
   20.760    6.0664
   20.775    5.9821
   20.790    5.9084
   20.805    5.9610
   20.820    6.2243
   20.835    5.9189
   20.850    6.0664
   20.865    6.0769
   20.880    6.3823
   20.895    6.4982
   20.910    5.9821
   20.925    5.8873
   20.940    5.8347
   20.955    5.9821
   20.970    5.9294
   20.985    5.9189
   21.000    6.0242
   21.015    5.9189
   21.030    5.9610
   21.045    6.2454
   21.060    5.7293
   21.075    5.7083
   21.090    5.5187
   21.105    5.8662
   21.120    6.0874
   21.135    5.7504
   21.150    5.6556
   21.165    6.1927
   21.180    6.0348
   21.195    6.0137
   21.210    6.0453
   21.225    5.9189
   21.240    5.9716
   21.255    5.9400
   21.270    5.9610
   21.285    6.1927
   21.300    6.0137
   21.315    6.0874
   21.330    6.5192
   21.345    5.9084
   21.360    6.2033
   21.375    6.2559
   21.390    5.7820
   21.405    5.6767
   21.420    5.7925
   21.435    6.0137
   21.450    5.8768
   21.465    5.8557
   21.480    5.9821
   21.495    5.8452
   21.510    5.7188
   21.525    5.7609
   21.540    5.6556
   21.555    5.6767
   21.570    5.9400
   21.585    5.9926
   21.600    6.1717
   21.615    5.9505
   21.630    6.0558
   21.645    6.0664
   21.660    6.0137
   21.675    5.7293
   21.690    5.5714
   21.705    6.3191
   21.720    6.3086
   21.735    6.0032
   21.750    5.8241
   21.765    5.9084
   21.780    5.6345
   21.795    5.8347
   21.810    5.6661
   21.825    5.6029
   21.840    5.4344
   21.855    5.7820
   21.870    6.3928
   21.885    5.7925
   21.900    5.6556
   21.915    5.6451
   21.930    5.8557
   21.945    6.0032
   21.960    6.0137
   21.975    6.1717
   21.990    5.8662
   22.005    5.6135
   22.020    5.8873
   22.035    5.9821
   22.050    5.9400
   22.065    6.1295
   22.080    5.7083
   22.095    5.8031
   22.110    6.0137
   22.125    5.9610
   22.140    6.0558
   22.155    5.7188
   22.170    5.8662
   22.185    6.0032
   22.200    5.9505
   22.215    5.9400
   22.230    5.8662
   22.245    5.7188
   22.260    5.8347
   22.275    6.0664
   22.290    5.8241
   22.305    5.6767
   22.320    5.7504
   22.335    6.0769
   22.350    6.2665
   22.365    5.9505
   22.380    5.5608
   22.395    6.2454
   22.410    5.9610
   22.425    5.5503
   22.440    5.6977
   22.455    5.9084
   22.470    5.9084
   22.485    6.6245
   22.500    5.8241
   22.515    5.7504
   22.530    5.7083
   22.545    5.5714
   22.560    5.8241
   22.575    5.9505
   22.590    5.9926
   22.605    5.9294
   22.620    5.7504
   22.635    6.1085
   22.650    6.0032
   22.665    6.0874
   22.680    6.1506
   22.695    6.0558
   22.710    5.7925
   22.725    6.1717
   22.740    5.7399
   22.755    5.8347
   22.770    5.5187
   22.785    5.8136
   22.800    5.7083
   22.815    5.6240
   22.830    5.8662
   22.845    5.8347
   22.860    6.0453
   22.875    6.0348
   22.890    6.0348
   22.905    6.0979
   22.920    5.9400
   22.935    6.0979
   22.950    6.3191
   22.965    5.8241
   22.980    5.8768
   22.995    5.9505
   23.010    6.1506
   23.025    6.1927
   23.040    5.9821
   23.055    5.8873
   23.070    5.8136
   23.085    5.9610
   23.100    5.9400
   23.115    5.9610
   23.130    5.7188
   23.145    5.8241
   23.160    5.8873
   23.175    6.2033
   23.190    6.0242
   23.205    5.8768
   23.220    5.6345
   23.235    5.8557
   23.250    6.4876
   23.265    6.4350
   23.280    5.9821
   23.295    5.5292
   23.310    5.6556
   23.325    5.9189
   23.340    5.7188
   23.355    5.9084
   23.370    5.7715
   23.385    5.5398
   23.400    5.8873
   23.415    5.6556
   23.430    5.9084
   23.445    6.1611
   23.460    5.6661
   23.475    5.6977
   23.490    5.8768
   23.505    5.5608
   23.520    6.1717
   23.535    5.6345
   23.550    5.8873
   23.565    6.4455
   23.580    6.2559
   23.595    6.3718
   23.610    6.0453
   23.625    5.6767
   23.640    5.8662
   23.655    6.0348
   23.670    5.6451
   23.685    5.6767
   23.700    6.1611
   23.715    6.0769
   23.730    6.1506
   23.745    5.7293
   23.760    5.7293
   23.775    5.8347
   23.790    5.6345
   23.805    6.1506
   23.820    6.1927
   23.835    6.1085
   23.850    6.0769
   23.865    5.7715
   23.880    5.7293
   23.895    5.9189
   23.910    5.7925
   23.925    5.4028
   23.940    5.4766
   23.955    5.8557
   23.970    5.9189
   23.985    5.8873
   24.000    6.0979
   24.015    5.7504
   24.030    5.7609
   24.045    5.8136
   24.060    5.8136
   24.075    5.6661
   24.090    6.0979
   24.105    5.8873
   24.120    5.6240
   24.135    5.7504
   24.150    6.0664
   24.165    5.9294
   24.180    5.2765
   24.195    5.8031
   24.210    5.5608
   24.225    5.6451
   24.240    5.5714
   24.255    5.6661
   24.270    6.0558
   24.285    6.2981
   24.300    5.9294
   24.315    5.8452
   24.330    5.8978
   24.345    6.1611
   24.360    5.6345
   24.375    5.9084
   24.390    5.8347
   24.405    5.6767
   24.420    5.6977
   24.435    5.5082
   24.450    5.5398
   24.465    5.5503
   24.480    6.1085
   24.495    5.6556
   24.510    5.7925
   24.525    5.5082
   24.540    5.8031
   24.555    5.6977
   24.570    5.5187
   24.585    5.8873
   24.600    5.9505
   24.615    5.8031
   24.630    5.5924
   24.645    5.7293
   24.660    5.5503
   24.675    5.8768
   24.690    5.7083
   24.705    5.4871
   24.720    5.6767
   24.735    5.7083
   24.750    5.8136
   24.765    5.4450
   24.780    5.4555
   24.795    5.9084
   24.810    5.7399
   24.825    5.6767
   24.840    5.4871
   24.855    5.5187
   24.870    5.5714
   24.885    5.8873
   24.900    5.6872
   24.915    5.8136
   24.930    5.4555
   24.945    5.4134
   24.960    5.6029
   24.975    5.5608
   24.990    5.9505
   25.005    5.7504
   25.020    5.5398
   25.035    5.6135
   25.050    5.6977
   25.065    5.8978
   25.080    5.7715
   25.095    5.5292
   25.110    5.4239
   25.125    5.7083
   25.140    5.7083
   25.155    5.6240
   25.170    5.5503
   25.185    5.4134
   25.200    5.5608
   25.215    5.6556
   25.230    5.2870
   25.245    5.2343
   25.260    5.6661
   25.275    5.6556
   25.290    5.5398
   25.305    5.3186
   25.320    5.4555
   25.335    5.8136
   25.350    5.5398
   25.365    5.5714
   25.380    5.5714
   25.395    5.2554
   25.410    5.3502
   25.425    5.2659
   25.440    5.2765
   25.455    5.8662
   25.470    5.3712
   25.485    5.3607
   25.500    5.3081
   25.515    5.3397
   25.530    5.7399
   25.545    5.9084
   25.560    5.5503
   25.575    5.4976
   25.590    5.5082
   25.605    5.7399
   25.620    5.4239
   25.635    5.5924
   25.650    5.2870
   25.665    5.5503
   25.680    5.7820
   25.695    5.6872
   25.710    5.9821
   25.725    5.8662
   25.740    6.1295
   25.755    5.6556
   25.770    5.5819
   25.785    5.5503
   25.800    5.4555
   25.815    5.3712
   25.830    5.7504
   25.845    5.9189
   25.860    5.8031
   25.875    5.3186
   25.890    5.6029
   25.905    5.5503
   25.920    5.5292
   25.935    5.6451
   25.950    5.4134
   25.965    5.6029
   25.980    5.5608
   25.995    5.4555
   26.010    5.7188
   26.025    5.7925
   26.040    5.7399
   26.055    5.3397
   26.070    5.3502
   26.085    5.6240
   26.100    5.4450
   26.115    5.6029
   26.130    5.1606
   26.145    5.3923
   26.160    6.0242
   26.175    5.7188
   26.190    5.4134
   26.205    5.4766
   26.220    5.5819
   26.235    5.6135
   26.250    5.4871
   26.265    5.4976
   26.280    5.7083
   26.295    5.2133
   26.310    5.4239
   26.325    5.1922
   26.340    5.2554
   26.355    5.6135
   26.370    5.4976
   26.385    5.1817
   26.400    5.1290
   26.415    5.1290
   26.430    5.4239
   26.445    5.4450
   26.460    5.3607
   26.475    5.6240
   26.490    5.3502
   26.505    5.2659
   26.520    5.2870
   26.535    5.4450
   26.550    5.1501
   26.565    5.7188
   26.580    5.3081
   26.595    5.2659
   26.610    5.4344
   26.625    5.4450
   26.640    5.6345
   26.655    5.6767
   26.670    5.4344
   26.685    5.5819
   26.700    5.5819
   26.715    5.5398
   26.730    5.1395
   26.745    5.4450
   26.760    5.2659
   26.775    5.5187
   26.790    5.2027
   26.805    5.5082
   26.820    5.3291
   26.835    5.4660
   26.850    5.3818
   26.865    5.4766
   26.880    5.6872
   26.895    5.7188
   26.910    5.1606
   26.925    5.2765
   26.940    5.1185
   26.955    5.0237
   26.970    5.6661
   26.985    5.4766
   27.000    5.4344
   27.015    5.7609
   27.030    5.3186
   27.045    5.5187
   27.060    5.3818
   27.075    5.3607
   27.090    5.5608
   27.105    5.6135
   27.120    5.3607
   27.135    5.1606
   27.150    5.2343
   27.165    5.3607
   27.180    5.2870
   27.195    5.3291
   27.210    5.3923
   27.225    5.2554
   27.240    5.1817
   27.255    5.1185
   27.270    4.9394
   27.285    5.0658
   27.300    5.2449
   27.315    5.2659
   27.330    5.0974
   27.345    5.5924
   27.360    5.7399
   27.375    5.3502
   27.390    5.3923
   27.405    5.1290
   27.420    5.2870
   27.435    5.1922
   27.450    5.4555
   27.465    5.3502
   27.480    5.6135
   27.495    5.1501
   27.510    5.1606
   27.525    5.0658
   27.540    5.2238
   27.555    5.4660
   27.570    5.3397
   27.585    4.8447
   27.600    5.2027
   27.615    5.5082
   27.630    5.4134
   27.645    5.3607
   27.660    5.3186
   27.675    5.1711
   27.690    5.6029
   27.705    5.2554
   27.720    5.2238
   27.735    4.9921
   27.750    5.0553
   27.765    5.1922
   27.780    5.3291
   27.795    5.4450
   27.810    5.1817
   27.825    5.3712
   27.840    5.3397
   27.855    5.0764
   27.870    5.1711
   27.885    5.1185
   27.900    5.0342
   27.915    5.5082
   27.930    5.3923
   27.945    4.9184
   27.960    5.4976
   27.975    5.2554
   27.990    5.3081
   28.005    5.4450
   28.020    5.4766
   28.035    5.5292
   28.050    5.5187
   28.065    5.1080
   28.080    5.2027
   28.095    5.4660
   28.110    5.4976
   28.125    5.2343
   28.140    5.1501
   28.155    5.2765
   28.170    5.2449
   28.185    5.1817
   28.200    5.0869
   28.215    5.2870
   28.230    5.4239
   28.245    5.0658
   28.260    5.2870
   28.275    5.2133
   28.290    5.5398
   28.305    4.7709
   28.320    5.2238
   28.335    5.1080
   28.350    5.2238
   28.365    5.1817
   28.380    5.0132
   28.395    5.2027
   28.410    5.3291
   28.425    5.2343
   28.440    4.8763
   28.455    5.2133
   28.470    5.3291
   28.485    5.2343
   28.500    5.3923
   28.515    5.3923
   28.530    5.2343
   28.545    4.9394
   28.560    5.2975
   28.575    5.5082
   28.590    5.3397
   28.605    5.0132
   28.620    5.2449
   28.635    5.4344
   28.650    4.9605
   28.665    5.0974
   28.680    4.9921
   28.695    5.1395
   28.710    5.0553
   28.725    5.1606
   28.740    5.1817
   28.755    5.0553
   28.770    4.9710
   28.785    5.2554
   28.800    5.5819
   28.815    5.3291
   28.830    5.1817
   28.845    5.2554
   28.860    5.2554
   28.875    5.1817
   28.890    5.2765
   28.905    5.2659
   28.920    5.0553
   28.935    5.2975
   28.950    5.0869
   28.965    5.3291
   28.980    5.1711
   28.995    5.1501
   29.010    5.2554
   29.025    5.4450
   29.040    5.2975
   29.055    5.1817
   29.070    5.1817
   29.085    5.2133
   29.100    5.0237
   29.115    4.5603
   29.130    4.4550
   29.145    4.8025
   29.160    4.9078
   29.175    5.2238
   29.190    5.3502
   29.205    5.0448
   29.220    5.1606
   29.235    5.0553
   29.250    5.5292
   29.265    5.2449
   29.280    4.9500
   29.295    4.5919
   29.310    5.0764
   29.325    5.1922
   29.340    5.2659
   29.355    5.3081
   29.370    4.7920
   29.385    4.8341
   29.400    4.7815
   29.415    4.9394
   29.430    5.0764
   29.445    5.0448
   29.460    5.1922
   29.475    5.2554
   29.490    4.9078
   29.505    4.7604
   29.520    4.8447
   29.535    4.9078
   29.550    5.1395
   29.565    5.1606
   29.580    4.9078
   29.595    5.1922
   29.610    5.0974
   29.625    5.0869
   29.640    4.5076
   29.655    5.0342
   29.670    5.1080
   29.685    5.0869
   29.700    4.7393
   29.715    4.9921
   29.730    5.1395
   29.745    4.7288
   29.760    4.4655
   29.775    5.0974
   29.790    4.9078
   29.805    5.1922
   29.820    4.8341
   29.835    4.7288
   29.850    4.8657
   29.865    4.8657
   29.880    4.9816
   29.895    4.6235
   29.910    4.7709
   29.925    5.0342
   29.940    5.2870
   29.955    4.8763
   29.970    5.0448
   29.985    5.0764
   30.000    5.0237
   30.015    4.9184
   30.030    4.9184
   30.045    5.0974
   30.060    4.9816
   30.075    5.1711
   30.090    4.9710
   30.105    5.1080
   30.120    5.0026
   30.135    4.9816
   30.150    5.2343
   30.165    5.1606
   30.180    4.9078
   30.195    4.7499
   30.210    4.8341
   30.225    4.8868
   30.240    4.6340
   30.255    4.6867
   30.270    4.8025
   30.285    4.4760
   30.300    4.9710
   30.315    5.0658
   30.330    4.8025
   30.345    4.9184
   30.360    5.2343
   30.375    5.1080
   30.390    5.0448
   30.405    5.0448
   30.420    4.2338
   30.435    4.7183
   30.450    5.3607
   30.465    4.9710
   30.480    4.7920
   30.495    4.9500
   30.510    4.9710
   30.525    4.8341
   30.540    4.8657
   30.555    4.6972
   30.570    4.7077
   30.585    5.0026
   30.600    5.0132
   30.615    4.8552
   30.630    4.7604
   30.645    4.9500
   30.660    4.7077
   30.675    4.9289
   30.690    4.6445
   30.705    4.9605
   30.720    5.0869
   30.735    4.8657
   30.750    5.0132
   30.765    5.2765
   30.780    4.7815
   30.795    5.2554
   30.810    5.1606
   30.825    4.9500
   30.840    4.7288
   30.855    5.0342
   30.870    5.0553
   30.885    5.1711
   30.900    4.8973
   30.915    4.7604
   30.930    4.8552
   30.945    4.7604
   30.960    4.9500
   30.975    4.9289
   30.990    5.0026
   31.005    4.9816
   31.020    4.7920
   31.035    4.8025
   31.050    4.9816
   31.065    4.8447
   31.080    4.8341
   31.095    4.7920
   31.110    4.7604
   31.125    4.6867
   31.140    5.1080
   31.155    4.6445
   31.170    4.8236
   31.185    5.0237
   31.200    4.8131
   31.215    4.9605
   31.230    4.5182
   31.245    5.0132
   31.260    4.8763
   31.275    4.8973
   31.290    4.8763
   31.305    5.0869
   31.320    4.5814
   31.335    4.7077
   31.350    5.0237
   31.365    4.6761
   31.380    4.8552
   31.395    5.1711
   31.410    5.0974
   31.425    4.6445
   31.440    4.7183
   31.455    4.9500
   31.470    5.0974
   31.485    5.1817
   31.500    5.0658
   31.515    5.0658
   31.530    5.1395
   31.545    4.8868
   31.560    4.8447
   31.575    5.0869
   31.590    5.2343
   31.605    5.1395
   31.620    5.1711
   31.635    5.0026
   31.650    5.0658
   31.665    5.0764
   31.680    5.1817
   31.695    5.2765
   31.710    5.0974
   31.725    5.1395
   31.740    5.1395
   31.755    4.8868
   31.770    4.7499
   31.785    4.7288
   31.800    4.9605
   31.815    4.9605
   31.830    5.3291
   31.845    4.7499
   31.860    4.9394
   31.875    5.1290
   31.890    5.2133
   31.905    5.0974
   31.920    5.1080
   31.935    4.9500
   31.950    5.0342
   31.965    5.1185
   31.980    5.1817
   31.995    5.1501
   32.010    5.3502
   32.025    5.1606
   32.040    5.1290
   32.055    5.1290
   32.070    5.4344
   32.085    5.1711
   32.100    5.3186
   32.115    5.3502
   32.130    5.4660
   32.145    5.1606
   32.160    5.0237
   32.175    5.0448
   32.190    4.9921
   32.205    4.6656
   32.220    4.6551
   32.235    4.6445
   32.250    4.9710
   32.265    4.9289
   32.280    4.3602
   32.295    4.6445
   32.310    4.6656
   32.325    4.8447
   32.340    4.4234
   32.355    4.8341
   32.370    4.9500
   32.385    4.9184
   32.400    4.8552
   32.415    4.7709
   32.430    5.0658
   32.445    5.0974
   32.460    4.9500
   32.475    4.4023
   32.490    4.6761
   32.505    4.8025
   32.520    5.0132
   32.535    4.7815
   32.550    4.8763
   32.565    4.5392
   32.580    4.8657
   32.595    4.3602
   32.610    4.2759
   32.625    4.6024
   32.640    4.5076
   32.655    4.6551
   32.670    4.9184
   32.685    5.0237
   32.700    4.4128
   32.715    4.5182
   32.730    4.8131
   32.745    4.7393
   32.760    4.8236
   32.775    4.6445
   32.790    4.5498
   32.805    4.6656
   32.820    4.6340
   32.835    4.7815
   32.850    4.6656
   32.865    4.6130
   32.880    4.5498
   32.895    4.6551
   32.910    4.7393
   32.925    4.4339
   32.940    4.5182
   32.955    4.3918
   32.970    4.3181
   32.985    4.6130
   33.000    4.6024
   33.015    4.6867
   33.030    4.6761
   33.045    4.4760
   33.060    4.4866
   33.075    4.6972
   33.090    4.5603
   33.105    4.3918
   33.120    4.4128
   33.135    4.5708
   33.150    4.3602
   33.165    4.5392
   33.180    4.2127
   33.195    4.1496
   33.210    4.4128
   33.225    4.2865
   33.240    4.4760
   33.255    4.3497
   33.270    4.6867
   33.285    4.3602
   33.300    4.2865
   33.315    4.4971
   33.330    4.4866
   33.345    4.3286
   33.360    4.2233
   33.375    4.7077
   33.390    4.4234
   33.405    4.6972
   33.420    4.5814
   33.435    4.4128
   33.450    4.0969
   33.465    4.4234
   33.480    4.5076
   33.495    4.3075
   33.510    4.4444
   33.525    4.2759
   33.540    4.7604
   33.555    4.4444
   33.570    4.2549
   33.585    4.7920
   33.600    4.7604
   33.615    4.6445
   33.630    4.1601
   33.645    4.3707
   33.660    4.4971
   33.675    4.4550
   33.690    4.5076
   33.705    4.4866
   33.720    4.2127
   33.735    4.5182
   33.750    4.4023
   33.765    4.5708
   33.780    4.5287
   33.795    4.7077
   33.810    4.8552
   33.825    4.6867
   33.840    4.6867
   33.855    4.5603
   33.870    4.6656
   33.885    4.6340
   33.900    4.3602
   33.915    4.5919
   33.930    4.3813
   33.945    4.4971
   33.960    4.4971
   33.975    4.3181
   33.990    4.1811
   34.005    4.2022
   34.020    4.4760
   34.035    4.7288
   34.050    4.4550
   34.065    4.4760
   34.080    4.3813
   34.095    4.4128
   34.110    4.5603
   34.125    4.4128
   34.140    4.2970
   34.155    4.5603
   34.170    4.2338
   34.185    4.2127
   34.200    4.7183
   34.215    4.2443
   34.230    4.2654
   34.245    4.4550
   34.260    4.3075
   34.275    4.1180
   34.290    4.2654
   34.305    4.4760
   34.320    4.3497
   34.335    4.0864
   34.350    3.8863
   34.365    4.2022
   34.380    3.9916
   34.395    4.4234
   34.410    4.3602
   34.425    4.1811
   34.440    4.1811
   34.455    4.3075
   34.470    4.4234
   34.485    4.1601
   34.500    4.2970
   34.515    4.3602
   34.530    4.5392
   34.545    4.1390
   34.560    4.3075
   34.575    4.1496
   34.590    4.1601
   34.605    4.2233
   34.620    4.3075
   34.635    4.1811
   34.650    4.3497
   34.665    4.8131
   34.680    4.5603
   34.695    4.3391
   34.710    4.2233
   34.725    4.4550
   34.740    4.3813
   34.755    4.4128
   34.770    4.3391
   34.785    4.3497
   34.800    4.3181
   34.815    4.1917
   34.830    4.2970
   34.845    4.0548
   34.860    4.3181
   34.875    4.1074
   34.890    4.2970
   34.905    4.3707
   34.920    4.2233
   34.935    4.2549
   34.950    4.0442
   34.965    4.0653
   34.980    4.2654
   34.995    4.1706
   35.010    4.2970
   35.025    4.0548
   35.040    4.3181
   35.055    4.4023
   35.070    4.2549
   35.085    4.2759
   35.100    4.2654
   35.115    4.1917
   35.130    4.0337
   35.145    3.9389
   35.160    4.2759
   35.175    4.1180
   35.190    4.3497
   35.205    4.2233
   35.220    4.4234
   35.235    4.1601
   35.250    4.1390
   35.265    4.1285
   35.280    4.0232
   35.295    4.0232
   35.310    4.0758
   35.325    4.1601
   35.340    4.0653
   35.355    4.2549
   35.370    4.2549
   35.385    4.0864
   35.400    4.2549
   35.415    4.3075
   35.430    4.1706
   35.445    4.4550
   35.460    4.3075
   35.475    4.0969
   35.490    3.9705
   35.505    4.3391
   35.520    3.9179
   35.535    4.2233
   35.550    4.2338
   35.565    4.2549
   35.580    4.0126
   35.595    4.0653
   35.610    3.9705
   35.625    4.1811
   35.640    3.9916
   35.655    3.9179
   35.670    4.3813
   35.685    4.2338
   35.700    4.0969
   35.715    4.3181
   35.730    4.2549
   35.745    4.2970
   35.760    4.1601
   35.775    4.0758
   35.790    4.1811
   35.805    4.0232
   35.820    3.8757
   35.835    4.1390
   35.850    4.0969
   35.865    4.2338
   35.880    4.1811
   35.895    4.2022
   35.910    4.0126
   35.925    3.8863
   35.940    4.4023
   35.955    4.2443
   35.970    3.9810
   35.985    4.0548
   36.000    4.1917
   36.015    4.1917
   36.030    4.1811
   36.045    4.2233
   36.060    4.0969
   36.075    4.0337
   36.090    4.0126
   36.105    4.0021
   36.120    3.8757
   36.135    3.9284
   36.150    4.2233
   36.165    4.3602
   36.180    4.1811
   36.195    4.0548
   36.210    3.8863
   36.225    4.0864
   36.240    4.0548
   36.255    4.1917
   36.270    4.1706
   36.285    4.0232
   36.300    3.9284
   36.315    4.3181
   36.330    3.9916
   36.345    4.2443
   36.360    4.3286
   36.375    4.0021
   36.390    4.0442
   36.405    4.0653
   36.420    3.9284
   36.435    4.1601
   36.450    3.9494
   36.465    4.4023
   36.480    4.0232
   36.495    4.1496
   36.510    4.4023
   36.525    4.4760
   36.540    4.0232
   36.555    4.0653
   36.570    4.0758
   36.585    4.2127
   36.600    3.9284
   36.615    4.1285
   36.630    4.2654
   36.645    4.0864
   36.660    4.2443
   36.675    3.9389
   36.690    3.9494
   36.705    4.1496
   36.720    4.0442
   36.735    3.9179
   36.750    4.0232
   36.765    4.0969
   36.780    3.9284
   36.795    3.8968
   36.810    4.2127
   36.825    4.0864
   36.840    3.9705
   36.855    4.0653
   36.870    4.3391
   36.885    4.5498
   36.900    4.0548
   36.915    3.8757
   36.930    4.1811
   36.945    4.1706
   36.960    4.0548
   36.975    4.0021
   36.990    4.1285
   37.005    4.1285
   37.020    3.8231
   37.035    4.2865
   37.050    3.9810
   37.065    4.0548
   37.080    4.1285
   37.095    4.4444
   37.110    4.0126
   37.125    4.0442
   37.140    4.3075
   37.155    4.0126
   37.170    3.9073
   37.185    3.9179
   37.200    4.0337
   37.215    4.2022
   37.230    4.0126
   37.245    3.8652
   37.260    3.6862
   37.275    3.9389
   37.290    4.0442
   37.305    4.0337
   37.320    4.3602
   37.335    3.9705
   37.350    3.8863
   37.365    4.0337
   37.380    4.2443
   37.395    4.0232
   37.410    4.0548
   37.425    3.9916
   37.440    3.9494
   37.455    4.1601
   37.470    4.3497
   37.485    4.3918
   37.500    4.2233
   37.515    4.1180
   37.530    4.2127
   37.545    3.8652
   37.560    4.1074
   37.575    4.2233
   37.590    4.0126
   37.605    3.7388
   37.620    4.1074
   37.635    4.2549
   37.650    4.2338
   37.665    3.9073
   37.680    4.0653
   37.695    3.8336
   37.710    4.0232
   37.725    4.0232
   37.740    4.0548
   37.755    4.0864
   37.770    3.8652
   37.785    4.1180
   37.800    4.3075
   37.815    3.9389
   37.830    3.7704
   37.845    3.9389
   37.860    3.8652
   37.875    3.8547
   37.890    4.1180
   37.905    4.0337
   37.920    3.9389
   37.935    3.9284
   37.950    3.8441
   37.965    3.8757
   37.980    3.9389
   37.995    4.2970
   38.010    4.0969
   38.025    4.1601
   38.040    3.7388
   38.055    3.8125
   38.070    4.1601
   38.085    4.1496
   38.100    3.8968
   38.115    4.0232
   38.130    4.1601
   38.145    4.0021
   38.160    3.8020
   38.175    4.1180
   38.190    4.4760
   38.205    4.2022
   38.220    4.0232
   38.235    4.0969
   38.250    3.8652
   38.265    4.0969
   38.280    4.1601
   38.295    3.8652
   38.310    3.7283
   38.325    3.6335
   38.340    4.1285
   38.355    4.2022
   38.370    3.9600
   38.385    3.9916
   38.400    3.9284
   38.415    3.8863
   38.430    4.0021
   38.445    4.4444
   38.460    4.3602
   38.475    3.8757
   38.490    3.9600
   38.505    3.8968
   38.520    3.8441
   38.535    4.0442
   38.550    3.9705
   38.565    4.0864
   38.580    4.2022
   38.595    4.3075
   38.610    4.0021
   38.625    4.1601
   38.640    4.1496
   38.655    4.2654
   38.670    4.2338
   38.685    4.1390
   38.700    4.1706
   38.715    4.1074
   38.730    4.3497
   38.745    4.3918
   38.760    4.1496
   38.775    4.4128
   38.790    4.3286
   38.805    4.4339
   38.820    4.3286
   38.835    4.0864
   38.850    4.1180
   38.865    4.2759
   38.880    4.0864
   38.895    3.8441
   38.910    4.0758
   38.925    4.0548
   38.940    4.0653
   38.955    4.3602
   38.970    4.0337
   38.985    4.2443
   39.000    4.3075
   39.015    4.3286
   39.030    4.2443
   39.045    4.1811
   39.060    4.1811
   39.075    4.2759
   39.090    4.2865
   39.105    4.2970
   39.120    4.0126
   39.135    3.9073
   39.150    4.1496
   39.165    4.2970
   39.180    4.3813
   39.195    4.1706
   39.210    4.4760
   39.225    4.1180
   39.240    4.0548
   39.255    4.1917
   39.270    4.2970
   39.285    4.2022
   39.300    4.4444
   39.315    4.1811
   39.330    4.3707
   39.345    4.2759
   39.360    4.3497
   39.375    4.4444
   39.390    4.4128
   39.405    4.2654
   39.420    4.2338
   39.435    4.2654
   39.450    4.0548
   39.465    3.9810
   39.480    4.0232
   39.495    4.1601
   39.510    4.2654
   39.525    4.2338
   39.540    4.0126
   39.555    4.1811
   39.570    3.9810
   39.585    4.1074
   39.600    4.2759
   39.615    4.2338
   39.630    3.9284
   39.645    4.0021
   39.660    4.2233
   39.675    4.3602
   39.690    4.3707
   39.705    4.0969
   39.720    4.0021
   39.735    3.9810
   39.750    3.9284
   39.765    3.8231
   39.780    3.8968
   39.795    3.9600
   39.810    3.9179
   39.825    3.8968
   39.840    3.9705
   39.855    3.5914
   39.870    3.7704
   39.885    3.8968
   39.900    3.6124
   39.915    3.4755
   39.930    3.8231
   39.945    3.8020
   39.960    3.8652
   39.975    3.6230
   39.990    3.7177
