    1.500   39.9473
    1.515   40.2528
    1.530   39.6419
    1.545   39.3049
    1.560   38.7467
    1.575   37.7462
    1.590   38.1464
    1.605   37.6935
    1.620   36.9458
    1.635   37.7567
    1.650   37.4829
    1.665   35.8399
    1.680   36.3349
    1.695   36.1137
    1.710   35.9452
    1.725   35.2396
    1.740   33.7546
    1.755   33.8389
    1.770   34.0916
    1.785   34.0390
    1.800   33.8494
    1.815   33.8178
    1.830   33.3439
    1.845   34.1022
    1.860   33.0384
    1.875   32.6909
    1.890   32.4803
    1.905   31.7114
    1.920   31.3955
    1.935   31.1848
    1.950   30.9321
    1.965   31.1427
    1.980   30.4160
    1.995   30.9215
    2.010   30.8373
    2.025   31.0058
    2.040   30.8057
    2.055   29.4365
    2.070   29.1311
    2.085   29.5629
    2.100   29.4471
    2.115   28.8362
    2.130   29.3523
    2.145   28.8784
    2.160   28.8889
    2.175   28.7730
    2.190   28.1833
    2.205   27.9410
    2.220   28.3623
    2.235   28.0779
    2.250   27.6251
    2.265   27.7725
    2.280   27.2354
    2.295   27.7304
    2.310   27.5829
    2.325   27.2143
    2.340   27.4250
    2.355   27.5408
    2.370   27.6145
    2.385   27.2038
    2.400   27.1722
    2.415   27.2143
    2.430   26.7509
    2.445   26.7931
    2.460   26.7088
    2.475   26.7825
    2.490   26.2770
    2.505   26.9405
    2.520   26.5719
    2.535   26.5298
    2.550   26.4350
    2.565   26.7509
    2.580   26.7825
    2.595   26.8773
    2.610   26.5719
    2.625   26.2665
    2.640   26.1190
    2.655   26.5192
    2.670   25.9821
    2.685   26.2559
    2.700   26.1085
    2.715   26.2559
    2.730   26.8457
    2.745   26.6035
    2.760   27.6883
    2.775   28.1833
    2.790   27.2565
    2.805   27.8462
    2.820   27.0774
    2.835   27.2670
    2.850   26.7509
    2.865   26.6561
    2.880   28.0463
    2.895   28.3096
    2.910   27.5303
    2.925   27.3196
    2.940   28.0674
    2.955   28.2780
    2.970   28.9626
    2.985   29.0469
    3.000   29.0153
    3.015   30.0685
    3.030   30.4265
    3.045   29.9315
    3.060   29.9421
    3.075   31.5008
    3.090   31.8483
    3.105   32.1011
    3.120   31.8589
    3.135   32.8489
    3.150   33.2280
    3.165   33.5334
    3.180   34.3655
    3.195   34.4181
    3.210   34.5024
    3.225   35.1553
    3.240   36.2928
    3.255   36.2928
    3.270   37.1880
    3.285   39.2101
    3.300   40.2949
    3.315   41.5061
    3.330   40.2106
    3.345   42.6962
    3.360   43.8547
    3.375   43.6019
    3.390   46.2454
    3.405   45.8873
    3.420   47.7830
    3.435   48.2149
    3.450   49.9210
    3.465   52.7120
    3.480   53.4071
    3.495   55.1027
    3.510   55.8715
    3.525   58.2307
    3.540   60.1053
    3.555   60.9479
    3.570   63.3070
    3.585   65.5292
    3.600   67.7409
    3.615   70.3318
    3.630   73.3544
    3.645   76.3455
    3.660   81.7272
    3.675   83.6756
    3.690   87.1511
    3.705   91.3744
    3.720   95.2817
    3.735  101.8115
    3.750  108.0885
    3.765  114.7657
    3.780  121.6956
    3.795  128.7415
    3.810  140.0316
    3.825  152.8910
    3.840  166.5719
    3.855  187.6567
    3.870  213.7020
    3.885  244.5392
    3.900  271.5219
    3.915  279.5471
    3.930  264.4445
    3.945  225.0764
    3.960  162.9068
    3.975   95.0500
    3.990   48.9416
    4.005   30.0685
    4.020   23.4966
    4.035   20.1053
    4.050   17.9674
    4.065   16.8299
    4.080   15.2501
    4.095   15.1132
    4.110   14.2496
    4.125   13.8283
    4.140   13.4597
    4.155   13.1648
    4.170   13.1016
    4.185   12.3539
    4.200   12.2275
    4.215   12.4171
    4.230   11.6061
    4.245   12.0800
    4.260   11.7009
    4.275   12.0274
    4.290   11.5219
    4.305   11.7114
    4.320   11.4797
    4.335   11.2059
    4.350   11.6272
    4.365   11.3323
    4.380   11.3217
    4.395   11.1638
    4.410   11.3007
    4.425   11.6482
    4.440   11.3007
    4.455   11.5850
    4.470   10.9321
    4.485   10.8689
    4.500   10.9953
    4.515   11.2164
    4.530   11.2059
    4.545   10.9742
    4.560   11.1743
    4.575   11.2270
    4.590   10.7636
    4.605   11.2796
    4.620   11.5113
    4.635   11.4481
    4.650   11.1638
    4.665   11.5534
    4.680   11.5324
    4.695   11.5640
    4.710   11.3323
    4.725   11.0795
    4.740   11.1216
    4.755   11.0479
    4.770   11.0900
    4.785   12.0906
    4.800   12.0590
    4.815   11.8905
    4.830   11.7220
    4.845   12.3223
    4.860   11.8694
    4.875   11.7536
    4.890   12.1854
    4.905   12.5224
    4.920   12.4171
    4.935   12.9331
    4.950   12.6804
    4.965   12.8699
    4.980   12.9753
    4.995   12.7014
    5.010   13.5229
    5.025   13.5966
    5.040   13.6809
    5.055   14.2285
    5.070   14.4918
    5.085   14.3760
    5.100   14.7130
    5.115   14.7025
    5.130   15.0184
    5.145   15.7662
    5.160   16.0611
    5.175   16.0084
    5.190   16.9879
    5.205   17.2933
    5.220   17.9568
    5.235   18.3044
    5.250   19.1890
    5.265   19.6103
    5.280   21.1585
    5.295   21.1480
    5.310   22.8541
    5.325   23.6756
    5.340   24.3707
    5.355   26.0453
    5.370   27.2459
    5.385   29.6577
    5.400   31.4271
    5.415   32.9331
    5.430   34.6393
    5.445   36.9984
    5.460   41.0321
    5.475   44.9816
    5.490   51.6904
    5.505   58.9679
    5.520   64.3918
    5.535   66.9194
    5.550   65.4450
    5.565   57.5566
    5.580   44.5919
    5.595   29.7420
    5.610   18.3360
    5.625   13.2491
    5.640   10.9531
    5.655    9.9631
    5.670    9.3628
    5.685    9.4892
    5.700    8.8257
    5.715    9.0363
    5.730    8.7098
    5.745    8.9731
    5.760    9.1101
    5.775    8.3412
    5.790    8.6888
    5.805    9.0469
    5.820    8.3518
    5.835    8.2675
    5.850    8.3518
    5.865    8.5308
    5.880    8.2149
    5.895    8.2780
    5.910    8.1411
    5.925    8.5729
    5.940    8.1833
    5.955    7.8989
    5.970    8.0674
    5.985    8.0674
    6.000    7.9516
    6.015    8.1938
    6.030    8.5308
    6.045    8.4992
    6.060    8.0885
    6.075    8.1201
    6.090    8.2464
    6.105    8.2780
    6.120    8.2675
    6.135    7.9516
    6.150    8.0990
    6.165    7.9831
    6.180    8.3518
    6.195    8.2780
    6.210    8.4992
    6.225    8.3518
    6.240    8.5097
    6.255    8.0885
    6.270    8.1517
    6.285    8.3096
    6.300    8.2149
    6.315    8.2675
    6.330    8.4781
    6.345    8.4571
    6.360    8.5835
    6.375    8.6467
    6.390    8.6993
    6.405    8.6467
    6.420    8.6888
    6.435    8.6783
    6.450    8.6888
    6.465    9.3102
    6.480    9.0785
    6.495    9.5103
    6.510    9.5313
    6.525    9.7209
    6.540   10.1738
    6.555   10.4371
    6.570   10.4160
    6.585   10.6161
    6.600   10.9742
    6.615   11.5745
    6.630   11.3849
    6.645   11.6588
    6.660   12.3328
    6.675   12.7751
    6.690   13.4176
    6.705   14.0916
    6.720   15.1027
    6.735   17.1880
    6.750   18.2833
    6.765   19.7156
    6.780   20.5793
    6.795   20.8110
    6.810   18.1464
    6.825   15.3765
    6.840   12.5329
    6.855    9.8368
    6.870    8.7836
    6.885    8.2043
    6.900    7.7093
    6.915    7.8357
    6.930    7.5408
    6.945    7.5197
    6.960    7.4144
    6.975    7.4250
    6.990    7.9305
    7.005    7.8568
    7.020    7.7199
    7.035    7.4355
    7.050    7.5092
    7.065    7.6251
    7.080    7.4039
    7.095    7.4882
    7.110    7.5092
    7.125    7.4882
    7.140    7.4671
    7.155    7.6672
    7.170    7.3618
    7.185    7.5724
    7.200    7.4250
    7.215    7.5724
    7.230    7.6251
    7.245    7.9200
    7.260    7.6777
    7.275    7.5619
    7.290    7.6567
    7.305    7.5408
    7.320    8.0885
    7.335    7.8146
    7.350    7.6672
    7.365    7.8041
    7.380    7.7514
    7.395    7.8041
    7.410    8.1727
    7.425    8.3728
    7.440    8.2886
    7.455    8.6993
    7.470    8.3412
    7.485    8.7309
    7.500    8.5624
    7.515    8.3623
    7.530    8.7098
    7.545    9.1732
    7.560    9.6682
    7.575    9.2786
    7.590    9.3312
    7.605    9.8999
    7.620   10.0790
    7.635   10.2686
    7.650   10.3212
    7.665   10.5740
    7.680   11.0058
    7.695   11.5956
    7.710   11.9747
    7.725   12.7014
    7.740   13.6388
    7.755   13.5650
    7.770   15.3028
    7.785   17.4618
    7.800   18.1675
    7.815   20.6319
    7.830   21.6956
    7.845   20.9057
    7.860   19.4734
    7.875   17.2407
    7.890   13.1438
    7.905   10.2580
    7.920    8.5624
    7.935    8.2780
    7.950    7.2775
    7.965    7.0458
    7.980    7.2565
    7.995    6.9932
    8.010    7.1195
    8.025    6.9510
    8.040    6.9932
    8.055    6.8562
    8.070    6.7930
    8.085    6.5824
    8.100    6.8352
    8.115    7.0037
    8.130    6.9300
    8.145    7.1617
    8.160    6.8352
    8.175    7.0353
    8.190    6.8984
    8.205    7.2670
    8.220    7.2775
    8.235    6.8668
    8.250    6.8668
    8.265    6.9089
    8.280    7.2354
    8.295    6.9932
    8.310    6.5929
    8.325    6.8668
    8.340    6.9510
    8.355    7.0248
    8.370    6.9616
    8.385    7.1722
    8.400    7.0458
    8.415    7.1722
    8.430    7.0669
    8.445    7.1933
    8.460    7.2670
    8.475    7.0353
    8.490    6.9510
    8.505    6.9089
    8.520    7.0563
    8.535    7.1511
    8.550    6.7825
    8.565    7.0458
    8.580    7.2143
    8.595    7.7304
    8.610    6.9932
    8.625    7.0353
    8.640    7.4039
    8.655    7.5829
    8.670    7.5408
    8.685    7.5724
    8.700    7.7409
    8.715    7.6040
    8.730    8.2149
    8.745    8.5624
    8.760    8.4044
    8.775    8.3518
    8.790    7.7830
    8.805    7.6461
    8.820    7.2880
    8.835    7.1406
    8.850    6.9616
    8.865    6.9616
    8.880    6.8984
    8.895    7.0669
    8.910    6.6877
    8.925    6.7404
    8.940    7.0669
    8.955    7.0142
    8.970    7.2565
    8.985    6.8668
    9.000    7.0142
    9.015    7.0353
    9.030    6.9405
    9.045    6.8562
    9.060    6.6772
    9.075    7.2354
    9.090    7.3302
    9.105    7.2038
    9.120    6.9300
    9.135    7.4987
    9.150    7.6461
    9.165    7.6988
    9.180    7.7514
    9.195    8.2359
    9.210    8.0253
    9.225    7.9305
    9.240    8.0990
    9.255    8.5624
    9.270    8.6256
    9.285    8.7941
    9.300    9.1311
    9.315    9.3523
    9.330    9.3944
    9.345    9.7736
    9.360    9.8684
    9.375   10.6582
    9.390   11.3112
    9.405   11.4692
    9.420   11.6482
    9.435   12.5224
    9.450   13.5861
    9.465   13.8283
    9.480   15.0711
    9.495   17.0090
    9.510   18.5150
    9.525   20.1264
    9.540   22.7278
    9.555   25.6345
    9.570   28.1727
    9.585   31.7430
    9.600   32.8805
    9.615   32.4065
    9.630   29.5103
    9.645   23.7388
    9.660   17.5987
    9.675   12.9437
    9.690    9.7630
    9.705    8.1833
    9.720    7.4250
    9.735    7.2354
    9.750    6.8141
    9.765    6.4455
    9.780    6.5929
    9.795    6.6140
    9.810    7.1090
    9.825    7.1406
    9.840    7.0985
    9.855    7.0248
    9.870    7.2354
    9.885    6.7404
    9.900    6.6140
    9.915    6.7404
    9.930    6.9300
    9.945    6.9194
    9.960    6.7193
    9.975    7.1301
    9.990    6.7404
   10.005    6.9089
   10.020    7.2143
   10.035    7.0774
   10.050    7.1511
   10.065    7.2459
   10.080    7.3196
   10.095    7.2038
   10.110    7.5724
   10.125    7.9831
   10.140    7.6988
   10.155    7.8146
   10.170    8.0674
   10.185    7.9937
   10.200    8.2043
   10.215    8.6361
   10.230    8.6045
   10.245    9.4050
   10.260    9.6788
   10.275   10.5424
   10.290   10.6266
   10.305   11.4587
   10.320   12.4908
   10.335   14.1548
   10.350   14.9342
   10.365   16.0190
   10.380   16.2717
   10.395   15.4081
   10.410   13.2175
   10.425   11.1954
   10.440    9.3312
   10.455    7.9200
   10.470    6.8246
   10.485    6.9932
   10.500    6.9194
   10.515    6.4982
   10.530    6.4139
   10.545    6.6561
   10.560    6.5824
   10.575    6.6035
   10.590    6.3823
   10.605    6.6351
   10.620    6.6456
   10.635    6.5298
   10.650    6.3823
   10.665    6.6877
   10.680    6.3928
   10.695    6.4771
   10.710    6.5824
   10.725    6.5403
   10.740    6.7930
   10.755    6.4560
   10.770    6.7930
   10.785    6.8352
   10.800    6.8668
   10.815    6.8562
   10.830    6.9405
   10.845    7.0985
   10.860    7.2880
   10.875    7.5092
   10.890    7.9410
   10.905    8.0779
   10.920    8.1622
   10.935    8.4571
   10.950    8.6361
   10.965    8.5729
   10.980    9.0890
   10.995    9.6788
   11.010   10.1632
   11.025   11.1743
   11.040   11.8062
   11.055   12.7225
   11.070   13.5756
   11.085   14.1548
   11.100   14.1022
   11.115   13.2701
   11.130   12.7014
   11.145   10.8794
   11.160    8.8678
   11.175    7.3196
   11.190    6.9089
   11.205    6.5719
   11.220    6.9721
   11.235    6.6983
   11.250    6.9194
   11.265    6.1506
   11.280    5.9716
   11.295    6.4560
   11.310    6.6456
   11.325    6.4244
   11.340    6.3402
   11.355    6.6456
   11.370    6.3612
   11.385    6.4139
   11.400    6.3507
   11.415    6.6772
   11.430    6.5719
   11.445    6.5719
   11.460    6.5087
   11.475    6.4560
   11.490    6.5087
   11.505    7.1406
   11.520    6.9194
   11.535    6.9194
   11.550    7.2038
   11.565    7.4144
   11.580    7.7304
   11.595    7.9516
   11.610    7.9621
   11.625    8.3834
   11.640    9.1522
   11.655    9.5419
   11.670    9.8578
   11.685   10.3739
   11.700   11.1848
   11.715   12.6909
   11.730   13.3544
   11.745   14.6288
   11.760   15.2923
   11.775   15.5556
   11.790   14.3760
   11.805   12.6382
   11.820   10.6372
   11.835    8.8257
   11.850    7.3723
   11.865    7.1090
   11.880    6.7193
   11.895    6.3928
   11.910    6.4982
   11.925    6.1927
   11.940    6.3191
   11.955    5.7925
   11.970    6.1085
   11.985    6.0348
   12.000    6.0979
   12.015    6.2875
   12.030    6.4666
   12.045    6.2349
   12.060    6.0874
   12.075    6.2875
   12.090    6.6561
   12.105    6.2559
   12.120    6.5613
   12.135    6.0979
   12.150    6.2665
   12.165    6.6772
   12.180    6.2981
   12.195    6.3402
   12.210    6.5403
   12.225    6.4139
   12.240    6.4034
   12.255    6.6456
   12.270    6.7193
   12.285    6.6456
   12.300    6.7825
   12.315    6.9510
   12.330    6.9616
   12.345    7.0985
   12.360    7.0353
   12.375    7.6145
   12.390    7.4776
   12.405    7.2565
   12.420    7.4882
   12.435    7.2880
   12.450    6.7404
   12.465    6.9510
   12.480    6.7404
   12.495    6.4139
   12.510    6.4771
   12.525    6.2875
   12.540    6.2138
   12.555    6.0979
   12.570    6.1295
   12.585    6.2665
   12.600    6.3086
   12.615    6.3507
   12.630    5.8347
   12.645    6.0453
   12.660    5.9189
   12.675    6.1927
   12.690    6.4666
   12.705    5.9926
   12.720    6.1190
   12.735    6.5824
   12.750    6.6877
   12.765    6.4350
   12.780    6.7404
   12.795    6.6561
   12.810    6.9300
   12.825    6.9721
   12.840    7.1827
   12.855    7.0037
   12.870    7.5092
   12.885    7.5513
   12.900    7.9200
   12.915    8.3096
   12.930    8.8046
   12.945    9.2470
   12.960   10.0579
   12.975   11.2164
   12.990   11.9537
   13.005   12.2801
   13.020   12.2591
   13.035   11.7430
   13.050   10.7320
   13.065    9.0890
   13.080    8.0253
   13.095    7.3934
   13.110    6.5929
   13.125    6.0348
   13.140    5.8241
   13.155    6.0453
   13.170    6.3507
   13.185    5.7609
   13.200    6.0769
   13.215    6.3507
   13.230    6.6140
   13.245    6.1506
   13.260    6.0874
   13.275    6.0242
   13.290    6.0874
   13.305    6.5298
   13.320    6.0874
   13.335    6.2770
   13.350    6.0874
   13.365    5.9716
   13.380    6.0558
   13.395    6.4034
   13.410    6.2770
   13.425    6.9194
   13.440    6.8036
   13.455    7.0774
   13.470    6.9405
   13.485    6.9721
   13.500    7.2249
   13.515    7.5513
   13.530    7.3618
   13.545    7.8673
   13.560    9.0258
   13.575    9.1206
   13.590    9.0679
   13.605    8.8678
   13.620    8.7204
   13.635    8.3307
   13.650    8.0358
   13.665    7.3091
   13.680    7.0142
   13.695    6.6456
   13.710    6.1611
   13.725    6.2454
   13.740    6.0348
   13.755    6.0664
   13.770    6.1190
   13.785    6.0453
   13.800    6.0242
   13.815    6.2454
   13.830    5.9821
   13.845    5.9610
   13.860    6.1927
   13.875    6.3191
   13.890    6.1927
   13.905    6.1611
   13.920    6.0874
   13.935    6.3928
   13.950    6.6772
   13.965    6.4350
   13.980    7.0353
   13.995    7.1511
   14.010    6.4982
   14.025    6.9616
   14.040    7.3828
   14.055    8.0990
   14.070    8.0674
   14.085    8.6993
   14.100    9.4681
   14.115    9.8368
   14.130   10.4897
   14.145   10.4371
   14.160   10.6372
   14.175    9.9842
   14.190    9.6472
   14.205    8.8994
   14.220    8.0779
   14.235    7.0879
   14.250    6.0664
   14.265    6.1085
   14.280    6.3296
   14.295    6.2770
   14.310    5.7925
   14.325    6.4876
   14.340    6.1295
   14.355    6.1190
   14.370    5.7504
   14.385    5.8452
   14.400    5.7293
   14.415    6.0558
   14.430    5.8557
   14.445    5.6345
   14.460    5.7083
   14.475    5.6977
   14.490    5.8241
   14.505    6.0242
   14.520    5.9821
   14.535    5.8978
   14.550    5.8662
   14.565    5.9505
   14.580    6.0979
   14.595    5.9716
   14.610    5.9400
   14.625    5.8557
   14.640    5.7820
   14.655    6.0558
   14.670    6.0032
   14.685    5.8347
   14.700    5.8241
   14.715    6.0032
   14.730    5.8873
   14.745    5.6977
   14.760    5.5608
   14.775    5.9610
   14.790    5.8452
   14.805    5.5714
   14.820    6.0032
   14.835    6.3086
   14.850    6.0979
   14.865    5.9821
   14.880    5.8873
   14.895    5.9400
   14.910    5.7715
   14.925    5.6977
   14.940    6.2981
   14.955    6.1190
   14.970    5.7925
   14.985    6.2875
   15.000    6.2770
   15.015    6.0558
   15.030    5.8978
   15.045    5.9610
   15.060    6.5508
   15.075    6.1085
   15.090    6.2875
   15.105    6.3612
   15.120    6.1295
   15.135    6.2665
   15.150    6.7825
   15.165    7.1195
   15.180    6.9932
   15.195    7.2038
   15.210    7.4566
   15.225    6.8984
   15.240    6.8141
   15.255    6.7615
   15.270    6.8352
   15.285    6.5719
   15.300    5.8136
   15.315    6.3191
   15.330    5.8241
   15.345    5.9084
   15.360    5.9189
   15.375    5.7504
   15.390    5.8978
   15.405    5.8873
   15.420    5.8662
   15.435    5.9610
   15.450    5.7188
   15.465    5.8978
   15.480    6.0769
   15.495    6.2770
   15.510    6.2243
   15.525    5.9294
   15.540    6.3086
   15.555    6.1295
   15.570    5.7925
   15.585    6.0242
   15.600    5.7715
   15.615    5.6977
   15.630    5.6872
   15.645    6.1611
   15.660    5.8768
   15.675    5.8241
   15.690    5.7925
   15.705    5.7188
   15.720    5.9189
   15.735    5.8768
   15.750    6.1506
   15.765    5.6767
   15.780    5.7293
   15.795    5.8031
   15.810    5.8662
   15.825    6.0348
   15.840    5.9189
   15.855    6.0664
   15.870    6.1611
   15.885    5.8241
   15.900    6.1822
   15.915    5.8241
   15.930    6.0558
   15.945    5.8557
   15.960    5.8873
   15.975    6.1822
   15.990    6.4350
   16.005    6.0874
   16.020    6.4034
   16.035    6.6245
   16.050    6.2981
   16.065    5.8557
   16.080    6.0348
   16.095    6.2033
   16.110    6.0558
   16.125    6.6035
   16.140    6.9089
   16.155    6.8457
   16.170    7.5829
   16.185    7.2038
   16.200    7.1195
   16.215    7.1511
   16.230    7.2880
   16.245    7.1617
   16.260    6.4244
   16.275    6.4034
   16.290    6.1190
   16.305    5.9926
   16.320    6.0348
   16.335    5.8452
   16.350    5.8557
   16.365    6.4244
   16.380    6.0137
   16.395    5.8662
   16.410    6.4350
   16.425    5.9716
   16.440    6.2981
   16.455    6.1927
   16.470    5.8347
   16.485    6.0137
   16.500    6.3402
   16.515    6.0874
   16.530    5.9294
   16.545    6.1611
   16.560    6.3928
   16.575    6.5192
   16.590    6.5508
   16.605    6.7930
   16.620    6.8773
   16.635    7.1406
   16.650    7.4039
   16.665    7.4987
   16.680    7.2775
   16.695    7.3196
   16.710    7.0774
   16.725    7.0248
   16.740    6.9721
   16.755    6.8457
   16.770    6.4034
   16.785    6.0979
   16.800    6.1822
   16.815    6.1927
   16.830    6.2138
   16.845    6.3191
   16.860    6.1401
   16.875    6.1822
   16.890    6.0769
   16.905    6.3928
   16.920    6.2875
   16.935    6.0348
   16.950    6.4771
   16.965    6.7404
   16.980    7.2670
   16.995    7.1195
   17.010    7.0142
   17.025    7.2775
   17.040    7.2986
   17.055    7.9937
   17.070    8.4255
   17.085    9.1417
   17.100    9.5208
   17.115    9.8894
   17.130   10.1527
   17.145    9.9526
   17.160    9.9315
   17.175    9.0890
   17.190    8.7941
   17.205    7.6040
   17.220    6.8457
   17.235    6.7720
   17.250    6.3086
   17.265    6.0664
   17.280    6.2875
   17.295    6.4139
   17.310    6.2033
   17.325    5.7715
   17.340    5.6556
   17.355    5.8768
   17.370    5.6977
   17.385    6.1295
   17.400    6.0558
   17.415    6.1085
   17.430    6.3296
   17.445    5.9084
   17.460    6.1717
   17.475    6.5719
   17.490    6.6351
   17.505    6.8141
   17.520    6.6877
   17.535    6.8562
   17.550    6.4455
   17.565    7.0458
   17.580    6.4771
   17.595    6.7930
   17.610    6.6245
   17.625    6.7193
   17.640    6.4560
   17.655    6.5719
   17.670    6.0137
   17.685    6.0979
   17.700    5.9189
   17.715    5.8873
   17.730    5.8768
   17.745    6.2559
   17.760    5.9084
   17.775    5.9610
   17.790    5.9926
   17.805    5.9400
   17.820    6.1611
   17.835    5.9189
   17.850    6.0137
   17.865    6.4771
   17.880    6.3718
   17.895    6.1822
   17.910    6.4244
   17.925    6.5087
   17.940    6.8141
   17.955    6.6140
   17.970    6.4455
   17.985    6.8878
   18.000    7.2775
   18.015    6.9089
   18.030    6.8773
   18.045    6.8562
   18.060    6.7509
   18.075    6.4244
   18.090    6.2770
   18.105    6.1506
   18.120    6.5192
   18.135    6.0664
   18.150    5.8452
   18.165    5.6451
   18.180    6.3823
   18.195    6.0558
   18.210    5.3923
   18.225    5.4344
   18.240    5.6556
   18.255    5.8768
   18.270    6.1085
   18.285    5.9400
   18.300    6.0348
   18.315    6.0558
   18.330    6.1401
   18.345    6.1717
   18.360    6.4771
   18.375    6.8246
   18.390    6.9089
   18.405    6.9826
   18.420    7.4460
   18.435    7.7304
   18.450    7.0563
   18.465    7.2670
   18.480    6.6983
   18.495    6.6772
   18.510    6.2033
   18.525    6.0242
   18.540    6.2770
   18.555    6.1401
   18.570    5.7715
   18.585    6.1190
   18.600    5.8347
   18.615    6.2349
   18.630    6.2033
   18.645    6.1927
   18.660    6.2349
   18.675    6.4350
   18.690    6.0664
   18.705    5.8873
   18.720    5.9189
   18.735    6.0032
   18.750    5.8768
   18.765    6.2981
   18.780    6.2454
   18.795    6.2981
   18.810    6.2559
   18.825    6.5298
   18.840    6.8562
   18.855    6.3823
   18.870    6.3507
   18.885    6.4350
   18.900    6.9405
   18.915    6.5298
   18.930    6.5508
   18.945    6.2243
   18.960    6.0664
   18.975    5.9610
   18.990    6.1717
   19.005    6.4455
   19.020    6.4034
   19.035    6.1190
   19.050    6.1611
   19.065    6.0348
   19.080    6.4034
   19.095    6.3086
   19.110    5.9926
   19.125    6.0769
   19.140    6.0979
   19.155    5.6872
   19.170    5.8241
   19.185    5.8347
   19.200    5.7715
   19.215    5.8452
   19.230    5.7925
   19.245    5.8873
   19.260    5.9821
   19.275    6.5403
   19.290    6.2981
   19.305    6.2770
   19.320    5.7399
   19.335    5.8031
   19.350    5.7083
   19.365    6.1506
   19.380    5.7820
   19.395    6.0032
   19.410    5.9294
   19.425    6.1401
   19.440    6.4350
   19.455    6.2875
   19.470    6.0769
   19.485    6.1611
   19.500    6.1927
   19.515    6.2665
   19.530    6.1822
   19.545    6.4455
   19.560    6.2033
   19.575    6.6561
   19.590    6.9510
   19.605    7.1406
   19.620    7.0774
   19.635    7.4671
   19.650    7.3934
   19.665    7.4250
   19.680    7.2670
   19.695    7.2038
   19.710    6.6667
   19.725    6.8457
   19.740    6.6561
   19.755    6.3718
   19.770    6.3296
   19.785    5.9505
   19.800    5.9505
   19.815    6.1190
   19.830    6.0664
   19.845    5.9294
   19.860    5.9716
   19.875    5.8662
   19.890    5.8452
   19.905    5.6135
   19.920    5.8978
   19.935    6.1927
   19.950    5.9084
   19.965    6.0137
   19.980    6.1717
   19.995    6.2875
   20.010    6.1927
   20.025    6.1190
   20.040    6.5403
   20.055    6.3402
   20.070    5.9400
   20.085    6.1085
   20.100    5.9294
   20.115    5.9610
   20.130    6.1085
   20.145    6.1611
   20.160    6.4455
   20.175    6.0874
   20.190    6.1717
   20.205    6.0453
   20.220    6.3402
   20.235    6.4982
   20.250    6.2454
   20.265    6.3718
   20.280    6.4771
   20.295    6.7825
   20.310    7.3512
   20.325    7.1827
   20.340    7.1406
   20.355    7.4566
   20.370    7.6777
   20.385    7.6145
   20.400    8.2886
   20.415    8.5413
   20.430    9.4155
   20.445    9.5313
   20.460   10.0053
   20.475    9.4892
   20.490    9.4260
   20.505    8.2359
   20.520    7.8884
   20.535    7.6567
   20.550    6.9300
   20.565    6.6877
   20.580    6.3086
   20.595    5.9400
   20.610    5.6661
   20.625    6.0453
   20.640    6.1401
   20.655    6.0979
   20.670    6.2665
   20.685    6.3191
   20.700    5.8557
   20.715    6.0664
   20.730    6.3191
   20.745    5.8347
   20.760    6.1506
   20.775    6.0348
   20.790    6.2665
   20.805    5.9610
   20.820    6.2454
   20.835    5.6345
   20.850    5.9505
   20.865    5.9821
   20.880    6.1717
   20.895    6.2770
   20.910    6.2875
   20.925    5.9716
   20.940    6.1506
   20.955    6.1401
   20.970    5.7504
   20.985    5.9610
   21.000    5.7609
   21.015    5.8347
   21.030    6.1085
   21.045    5.7399
   21.060    5.9084
   21.075    6.2138
   21.090    5.7083
   21.105    6.0453
   21.120    6.1927
   21.135    6.1822
   21.150    6.4666
   21.165    5.7083
   21.180    5.7083
   21.195    5.9400
   21.210    5.9610
   21.225    6.3928
   21.240    6.0137
   21.255    6.1295
   21.270    6.1927
   21.285    5.6135
   21.300    5.9505
   21.315    5.7609
   21.330    6.0242
   21.345    6.1927
   21.360    6.1295
   21.375    6.0979
   21.390    6.6561
   21.405    6.1401
   21.420    6.0769
   21.435    6.0137
   21.450    5.8031
   21.465    6.3086
   21.480    6.1085
   21.495    6.0664
   21.510    6.0032
   21.525    6.0242
   21.540    6.0242
   21.555    6.0453
   21.570    5.9926
   21.585    6.3507
   21.600    6.1085
   21.615    6.2138
   21.630    5.9294
   21.645    6.1506
   21.660    6.0979
   21.675    6.1295
   21.690    6.4034
   21.705    6.3296
   21.720    5.8136
   21.735    6.0664
   21.750    6.3928
   21.765    6.1927
   21.780    6.2033
   21.795    6.3928
   21.810    5.8347
   21.825    6.1611
   21.840    6.1927
   21.855    6.4876
   21.870    6.6561
   21.885    6.6667
   21.900    7.0142
   21.915    7.4566
   21.930    7.2354
   21.945    6.9932
   21.960    7.0142
   21.975    7.1511
   21.990    7.1406
   22.005    6.4455
   22.020    6.4876
   22.035    6.1190
   22.050    6.2665
   22.065    6.0769
   22.080    6.2559
   22.095    6.2138
   22.110    5.9716
   22.125    6.4560
   22.140    6.4876
   22.155    6.1927
   22.170    6.0664
   22.185    6.3402
   22.200    6.1506
   22.215    6.5613
   22.230    7.0563
   22.245    6.8457
   22.260    6.6351
   22.275    7.4776
   22.290    7.2880
   22.305    6.8878
   22.320    7.2038
   22.335    6.9721
   22.350    6.7088
   22.365    6.3718
   22.380    6.6351
   22.395    6.6561
   22.410    6.9300
   22.425    6.8352
   22.440    6.6456
   22.455    6.7930
   22.470    6.6140
   22.485    6.6245
   22.500    6.6456
   22.515    6.9510
   22.530    7.1511
   22.545    7.7514
   22.560    8.2149
   22.575    8.4887
   22.590    8.9205
   22.605    9.5629
   22.620    9.8368
   22.635   10.1106
   22.650   10.2054
   22.665    9.4260
   22.680    9.1206
   22.695    8.9837
   22.710    8.3939
   22.725    7.8146
   22.740    7.4671
   22.755    7.2880
   22.770    6.9089
   22.785    6.7404
   22.800    6.9300
   22.815    6.6245
   22.830    6.8141
   22.845    6.8457
   22.860    7.1195
   22.875    7.3618
   22.890    7.8357
   22.905    8.6256
   22.920    8.7625
   22.935    8.7520
   22.950    9.6367
   22.965    9.6577
   22.980   10.2264
   22.995    9.8894
   23.010    9.6682
   23.025    9.6156
   23.040    9.2786
   23.055    8.6151
   23.070    8.0358
   23.085    7.5724
   23.100    6.6245
   23.115    6.5824
   23.130    6.5298
   23.145    5.9610
   23.160    6.2138
   23.175    6.5929
   23.190    6.6667
   23.205    6.4560
   23.220    6.4455
   23.235    6.4560
   23.250    6.8141
   23.265    6.7193
   23.280    6.7509
   23.295    7.1933
   23.310    7.2459
   23.325    7.6040
   23.340    7.7620
   23.355    7.3934
   23.370    7.3091
   23.385    7.3196
   23.400    6.5192
   23.415    6.7299
   23.430    6.5719
   23.445    6.3402
   23.460    6.4771
   23.475    6.3296
   23.490    6.1717
   23.505    6.3086
   23.520    6.3296
   23.535    6.0137
   23.550    6.1190
   23.565    6.2770
   23.580    6.3718
   23.595    6.4666
   23.610    6.3507
   23.625    6.4982
   23.640    6.4876
   23.655    6.4244
   23.670    6.2875
   23.685    6.3191
   23.700    6.2243
   23.715    6.3402
   23.730    6.5719
   23.745    5.9821
   23.760    5.8136
   23.775    5.9505
   23.790    6.0874
   23.805    5.9926
   23.820    6.2349
   23.835    5.9084
   23.850    6.0453
   23.865    5.7083
   23.880    6.2033
   23.895    6.2665
   23.910    6.1506
   23.925    6.5087
   23.940    6.8878
   23.955    7.4882
   23.970    6.9721
   23.985    6.5929
   24.000    7.2775
   24.015    7.1722
   24.030    7.1511
   24.045    6.8562
   24.060    7.0248
   24.075    6.4350
   24.090    6.3402
   24.105    6.2665
   24.120    6.4560
   24.135    6.1717
   24.150    5.9926
   24.165    5.9716
   24.180    6.2981
   24.195    6.4244
   24.210    6.0874
   24.225    5.9610
   24.240    6.1295
   24.255    6.1822
   24.270    5.9926
   24.285    6.1085
   24.300    6.0453
   24.315    6.5719
   24.330    6.3296
   24.345    6.5192
   24.360    6.6035
   24.375    5.9716
   24.390    6.2138
   24.405    5.8557
   24.420    5.7504
   24.435    5.9610
   24.450    5.9189
   24.465    5.5292
   24.480    6.1506
   24.495    5.9821
   24.510    5.7293
   24.525    5.7925
   24.540    5.8662
   24.555    5.7925
   24.570    6.0558
   24.585    6.4034
   24.600    6.0664
   24.615    6.1401
   24.630    6.2770
   24.645    6.0874
   24.660    6.4771
   24.675    6.2665
   24.690    6.6035
   24.705    6.2454
   24.720    6.2665
   24.735    6.1085
   24.750    5.9610
   24.765    5.9505
   24.780    6.0558
   24.795    5.9400
   24.810    5.8662
   24.825    5.5503
   24.840    5.5714
   24.855    5.6345
   24.870    6.0348
   24.885    6.1506
   24.900    6.0453
   24.915    5.9294
   24.930    5.9610
   24.945    6.0769
   24.960    5.8241
   24.975    5.8873
   24.990    6.1295
   25.005    5.9716
   25.020    6.0558
   25.035    6.1085
   25.050    6.1927
   25.065    5.8031
   25.080    6.2454
   25.095    5.8031
   25.110    6.0032
   25.125    5.9821
   25.140    5.8978
   25.155    5.7399
   25.170    6.1401
   25.185    5.9610
   25.200    6.0874
   25.215    6.2033
   25.230    6.2243
   25.245    6.0979
   25.260    6.2559
   25.275    6.6035
   25.290    6.5192
   25.305    6.3507
   25.320    6.6983
   25.335    6.4982
   25.350    6.2770
   25.365    6.3718
   25.380    6.0979
   25.395    6.1190
   25.410    5.9189
   25.425    6.0242
   25.440    5.9610
   25.455    6.1717
   25.470    5.9505
   25.485    6.1506
   25.500    5.7820
   25.515    6.2454
   25.530    6.1506
   25.545    6.2665
   25.560    6.5403
   25.575    6.2033
   25.590    6.2981
   25.605    6.3823
   25.620    6.4139
   25.635    6.5508
   25.650    6.3086
   25.665    6.1085
   25.680    6.2138
   25.695    6.3928
   25.710    6.0874
   25.725    6.0242
   25.740    6.2138
   25.755    6.1927
   25.770    6.3718
   25.785    6.8773
   25.800    7.1617
   25.815    6.6983
   25.830    7.3723
   25.845    7.6883
   25.860    7.7304
   25.875    8.2780
   25.890    9.0153
   25.905    8.6677
   25.920    8.8784
   25.935    8.0990
   25.950    8.1095
   25.965    8.0569
   25.980    7.1406
   25.995    6.5824
   26.010    5.9294
   26.025    5.7399
   26.040    6.3402
   26.055    5.5819
   26.070    6.2559
   26.085    5.9189
   26.100    6.1822
   26.115    6.1717
   26.130    6.1190
   26.145    5.7188
   26.160    5.8768
   26.175    5.8452
   26.190    5.7820
   26.205    5.8768
   26.220    5.9610
   26.235    5.7504
   26.250    5.8031
   26.265    5.9821
   26.280    6.0558
   26.295    6.1295
   26.310    5.8136
   26.325    5.8136
   26.340    5.5292
   26.355    6.2981
   26.370    6.1295
   26.385    5.8557
   26.400    5.7820
   26.415    6.0558
   26.430    5.8241
   26.445    6.0979
   26.460    6.5087
   26.475    6.3086
   26.490    6.8984
   26.505    6.6561
   26.520    6.4139
   26.535    6.2559
   26.550    6.7299
   26.565    6.4455
   26.580    6.3086
   26.595    6.3612
   26.610    5.7083
   26.625    5.9505
   26.640    6.0664
   26.655    5.6977
   26.670    5.9926
   26.685    5.6240
   26.700    5.5924
   26.715    5.7399
   26.730    5.2975
   26.745    5.3818
   26.760    5.5608
   26.775    5.7504
   26.790    5.7504
   26.805    5.6451
   26.820    5.4871
   26.835    5.5292
   26.850    5.7083
   26.865    5.7188
   26.880    5.4344
   26.895    5.6345
   26.910    5.8452
   26.925    5.8873
   26.940    5.9505
   26.955    6.2981
   26.970    5.5819
   26.985    5.8873
   27.000    6.2033
   27.015    6.2770
   27.030    5.9821
   27.045    6.1717
   27.060    6.6140
   27.075    6.8352
   27.090    6.8562
   27.105    6.9194
   27.120    6.4982
   27.135    6.7404
   27.150    6.6456
   27.165    6.5192
   27.180    6.1611
   27.195    6.0664
   27.210    5.8347
   27.225    5.6977
   27.240    5.6135
   27.255    5.4028
   27.270    5.6451
   27.285    5.9610
   27.300    5.4766
   27.315    5.5187
   27.330    5.7820
   27.345    5.6240
   27.360    5.4028
   27.375    5.5503
   27.390    5.5082
   27.405    5.6135
   27.420    5.4239
   27.435    5.7925
   27.450    5.4871
   27.465    5.8347
   27.480    5.8347
   27.495    5.6661
   27.510    5.7083
   27.525    5.5398
   27.540    5.6767
   27.555    5.7609
   27.570    6.1822
   27.585    5.9400
   27.600    6.1401
   27.615    6.0979
   27.630    6.2454
   27.645    6.4560
   27.660    6.1611
   27.675    6.7930
   27.690    6.4244
   27.705    5.9610
   27.720    6.2665
   27.735    6.1822
   27.750    5.9716
   27.765    5.9294
   27.780    5.3607
   27.795    5.8662
   27.810    5.6029
   27.825    5.5608
   27.840    6.0137
   27.855    5.7925
   27.870    5.5503
   27.885    5.7293
   27.900    5.6135
   27.915    5.8241
   27.930    5.9926
   27.945    5.9084
   27.960    6.3296
   27.975    6.2665
   27.990    6.2033
   28.005    5.8136
   28.020    5.7293
   28.035    6.2138
   28.050    6.0348
   28.065    5.7609
   28.080    5.7715
   28.095    5.8452
   28.110    5.8241
   28.125    5.9821
   28.140    6.0558
   28.155    5.7188
   28.170    6.1085
   28.185    6.2138
   28.200    6.5298
   28.215    6.7720
   28.230    6.7720
   28.245    6.6035
   28.260    6.5719
   28.275    6.8562
   28.290    6.5719
   28.305    6.7615
   28.320    6.3296
   28.335    6.3928
   28.350    6.0769
   28.365    6.1822
   28.380    6.0453
   28.395    5.9716
   28.410    6.1822
   28.425    6.2033
   28.440    5.7609
   28.455    6.0558
   28.470    6.2559
   28.485    6.4455
   28.500    6.5403
   28.515    6.2349
   28.530    6.4560
   28.545    6.5298
   28.560    6.6456
   28.575    6.4982
   28.590    6.1295
   28.605    5.9189
   28.620    6.0558
   28.635    6.0558
   28.650    5.8241
   28.665    5.9610
   28.680    5.8978
   28.695    5.6029
   28.710    5.2659
   28.725    5.5398
   28.740    5.8136
   28.755    5.9400
   28.770    5.4555
   28.785    5.5187
   28.800    5.6451
   28.815    5.8873
   28.830    5.7083
   28.845    5.5608
   28.860    5.4660
   28.875    5.3397
   28.890    5.2554
   28.905    5.0448
   28.920    5.2343
   28.935    5.5292
   28.950    5.3712
   28.965    5.8557
   28.980    5.7925
   28.995    5.4976
   29.010    5.6451
   29.025    5.9821
   29.040    5.8241
   29.055    5.9610
   29.070    5.9294
   29.085    5.9189
   29.100    5.5608
   29.115    5.6872
   29.130    5.5187
   29.145    5.5608
   29.160    5.8241
   29.175    5.4344
   29.190    5.3712
   29.205    5.5714
   29.220    5.5924
   29.235    5.9505
   29.250    5.8452
   29.265    5.7293
   29.280    5.7188
   29.295    5.9821
   29.310    5.9926
   29.325    6.1295
   29.340    6.1927
   29.355    6.1190
   29.370    6.1190
   29.385    6.1401
   29.400    5.9084
   29.415    5.8978
   29.430    5.8241
   29.445    5.6977
   29.460    5.3291
   29.475    5.2554
   29.490    5.3291
   29.505    5.6029
   29.520    5.5292
   29.535    5.4134
   29.550    5.3923
   29.565    5.1711
   29.580    5.4134
   29.595    5.5082
   29.610    5.2765
   29.625    5.5608
   29.640    5.1501
   29.655    5.4239
   29.670    5.2449
   29.685    5.2133
   29.700    5.3291
   29.715    5.4028
   29.730    5.5292
   29.745    5.3291
   29.760    5.2765
   29.775    5.6240
   29.790    5.4871
   29.805    5.7925
   29.820    5.7925
   29.835    5.6135
   29.850    5.7715
   29.865    5.4450
   29.880    5.4134
   29.895    5.5292
   29.910    5.5714
   29.925    5.4871
   29.940    5.4134
   29.955    5.6661
   29.970    5.6977
   29.985    5.6661
   30.000    5.6240
   30.015    5.7820
   30.030    5.5292
   30.045    5.0764
   30.060    5.2975
   30.075    5.6240
   30.090    5.6345
   30.105    5.3397
   30.120    5.1711
   30.135    5.8241
   30.150    5.8031
   30.165    5.5503
   30.180    5.4344
   30.195    5.4871
   30.210    5.7188
   30.225    5.4871
   30.240    5.4344
   30.255    5.6029
   30.270    5.3291
   30.285    5.2238
   30.300    5.1501
   30.315    5.1501
   30.330    5.5608
   30.345    5.5608
   30.360    5.5082
   30.375    5.2133
   30.390    5.5187
   30.405    5.3291
   30.420    5.2343
   30.435    5.3607
   30.450    5.3923
   30.465    5.5819
   30.480    5.2343
   30.495    5.4766
   30.510    5.6977
   30.525    5.3923
   30.540    5.4766
   30.555    5.6977
   30.570    5.3081
   30.585    5.4871
   30.600    5.5819
   30.615    5.5503
   30.630    5.6135
   30.645    5.5503
   30.660    6.0137
   30.675    5.8662
   30.690    5.7609
   30.705    5.7188
   30.720    5.4450
   30.735    5.7293
   30.750    5.7188
   30.765    5.3397
   30.780    5.2659
   30.795    5.2133
   30.810    5.2975
   30.825    5.3291
   30.840    5.3291
   30.855    4.9710
   30.870    5.2133
   30.885    4.9394
   30.900    5.2765
   30.915    5.0448
   30.930    5.2975
   30.945    5.0658
   30.960    5.4028
   30.975    4.9289
   30.990    5.1080
   31.005    5.0342
   31.020    4.8131
   31.035    5.0237
   31.050    5.0342
   31.065    5.3291
   31.080    5.4134
   31.095    4.9500
   31.110    5.1185
   31.125    5.2659
   31.140    5.1817
   31.155    5.1395
   31.170    5.1080
   31.185    5.1501
   31.200    5.4134
   31.215    5.3081
   31.230    4.9605
   31.245    5.2238
   31.260    5.3818
   31.275    5.4344
   31.290    5.1606
   31.305    5.2554
   31.320    5.2027
   31.335    5.3502
   31.350    5.3186
   31.365    5.6451
   31.380    5.2554
   31.395    5.3818
   31.410    5.2765
   31.425    5.6977
   31.440    5.6451
   31.455    5.3923
   31.470    5.1080
   31.485    5.6135
   31.500    5.6451
   31.515    5.7820
   31.530    5.2343
   31.545    5.4660
   31.560    5.0448
   31.575    5.3291
   31.590    5.4239
   31.605    5.4028
   31.620    5.4871
   31.635    5.3291
   31.650    5.4134
   31.665    5.3291
   31.680    4.9394
   31.695    4.9710
   31.710    5.0764
   31.725    5.1395
   31.740    5.3186
   31.755    5.3502
   31.770    5.3186
   31.785    5.2659
   31.800    5.5503
   31.815    5.3712
   31.830    5.2133
   31.845    5.1185
   31.860    5.4028
   31.875    5.3818
   31.890    5.4976
   31.905    5.1395
   31.920    5.6345
   31.935    5.7083
   31.950    5.6767
   31.965    5.7715
   31.980    5.2975
   31.995    5.1817
   32.010    5.5187
   32.025    5.4028
   32.040    5.7399
   32.055    5.4344
   32.070    5.5082
   32.085    5.4239
   32.100    5.5082
   32.115    5.4766
   32.130    5.6872
   32.145    5.4344
   32.160    5.3923
   32.175    5.8557
   32.190    5.6767
   32.205    5.4450
   32.220    5.3607
   32.235    5.6451
   32.250    5.7504
   32.265    5.4555
   32.280    5.0869
   32.295    5.1185
   32.310    5.1185
   32.325    5.0553
   32.340    5.3502
   32.355    4.9184
   32.370    4.7183
   32.385    5.0869
   32.400    4.8025
   32.415    4.8025
   32.430    4.6235
   32.445    5.1080
   32.460    5.1711
   32.475    4.8868
   32.490    4.8657
   32.505    5.1501
   32.520    5.0132
   32.535    4.9605
   32.550    4.8868
   32.565    4.9605
   32.580    4.9816
   32.595    5.2027
   32.610    5.0132
   32.625    5.0237
   32.640    5.1080
   32.655    4.9605
   32.670    4.9394
   32.685    4.9710
   32.700    4.9816
   32.715    5.3712
   32.730    5.0658
   32.745    4.8552
   32.760    5.1501
   32.775    5.1711
   32.790    4.9816
   32.805    5.2133
   32.820    5.1395
   32.835    5.2027
   32.850    5.0237
   32.865    5.1395
   32.880    5.3923
   32.895    5.1606
   32.910    5.4871
   32.925    5.0658
   32.940    5.1290
   32.955    5.0237
   32.970    5.5082
   32.985    5.0448
   33.000    5.2554
   33.015    4.8025
   33.030    5.1606
   33.045    5.0553
   33.060    4.6656
   33.075    4.5498
   33.090    4.6551
   33.105    4.8236
   33.120    5.1711
   33.135    4.6761
   33.150    4.9816
   33.165    4.8131
   33.180    4.6972
   33.195    4.9289
   33.210    4.9605
   33.225    4.8447
   33.240    4.9710
   33.255    4.8552
   33.270    4.9078
   33.285    4.6761
   33.300    4.8868
   33.315    4.8657
   33.330    4.8973
   33.345    4.6867
   33.360    4.6340
   33.375    5.0553
   33.390    4.6130
   33.405    4.4866
   33.420    4.7183
   33.435    4.7815
   33.450    5.2027
   33.465    5.1080
   33.480    5.0448
   33.495    4.8763
   33.510    4.6445
   33.525    4.8657
   33.540    5.0448
   33.555    4.8868
   33.570    4.9500
   33.585    5.0974
   33.600    4.8657
   33.615    5.2343
   33.630    5.0132
   33.645    5.0764
   33.660    4.8236
   33.675    5.0026
   33.690    4.9816
   33.705    5.1922
   33.720    4.9921
   33.735    5.0026
   33.750    4.8763
   33.765    5.2449
   33.780    4.9710
   33.795    5.2238
   33.810    5.5398
   33.825    5.5503
   33.840    5.8452
   33.855    5.2238
   33.870    5.1395
   33.885    5.6451
   33.900    5.4239
   33.915    5.4871
   33.930    5.3186
   33.945    5.5187
   33.960    5.7399
   33.975    5.4028
   33.990    5.8347
   34.005    5.6661
   34.020    5.6451
   34.035    5.3397
   34.050    5.5398
   34.065    5.2975
   34.080    5.3712
   34.095    5.4660
   34.110    5.4660
   34.125    5.4134
   34.140    4.7604
   34.155    4.7920
   34.170    5.0553
   34.185    5.0553
   34.200    5.1501
   34.215    5.3923
   34.230    4.7920
   34.245    4.6867
   34.260    4.7183
   34.275    4.8341
   34.290    4.6972
   34.305    5.0448
   34.320    4.7709
   34.335    4.6551
   34.350    4.5708
   34.365    4.7499
   34.380    4.8657
   34.395    5.0658
   34.410    4.9078
   34.425    4.7288
   34.440    4.9500
   34.455    4.5182
   34.470    4.8763
   34.485    4.9710
   34.500    5.1290
   34.515    4.8868
   34.530    4.5498
   34.545    4.7920
   34.560    4.6130
   34.575    4.3918
   34.590    4.7604
   34.605    4.5076
   34.620    4.5603
   34.635    4.5182
   34.650    4.6024
   34.665    4.5287
   34.680    4.7077
   34.695    5.1080
   34.710    4.8763
   34.725    5.0553
   34.740    4.9184
   34.755    4.8341
   34.770    4.6130
   34.785    4.9710
   34.800    4.8236
   34.815    5.0026
   34.830    4.6656
   34.845    5.0448
   34.860    4.7815
   34.875    4.7288
   34.890    4.9184
   34.905    4.9394
   34.920    4.8868
   34.935    4.6340
   34.950    4.8552
   34.965    4.8131
   34.980    4.7183
   34.995    4.9605
   35.010    4.5708
   35.025    4.7815
   35.040    4.7183
   35.055    4.4866
   35.070    4.5919
   35.085    4.4866
   35.100    4.6656
   35.115    4.5182
   35.130    4.1601
   35.145    4.5182
   35.160    4.7499
   35.175    4.4971
   35.190    4.4234
   35.205    4.3181
   35.220    4.6130
   35.235    4.6235
   35.250    4.4444
   35.265    4.2127
   35.280    4.2865
   35.295    4.3286
   35.310    4.5814
   35.325    4.7709
   35.340    4.6235
   35.355    4.6972
   35.370    4.6551
   35.385    4.7499
   35.400    4.8236
   35.415    4.7815
   35.430    4.4866
   35.445    4.7393
   35.460    4.4444
   35.475    4.5182
   35.490    4.4234
   35.505    4.7183
   35.520    4.4971
   35.535    4.4971
   35.550    4.6130
   35.565    4.7393
   35.580    4.5708
   35.595    4.5392
   35.610    4.6340
   35.625    4.4023
   35.640    4.7288
   35.655    4.6867
   35.670    4.5182
   35.685    4.4866
   35.700    4.4866
   35.715    4.4655
   35.730    4.6130
   35.745    4.6024
   35.760    4.8447
   35.775    4.6551
   35.790    4.4655
   35.805    4.6867
   35.820    4.6761
   35.835    4.4444
   35.850    4.6340
   35.865    4.6867
   35.880    4.7183
   35.895    4.6551
   35.910    4.8552
   35.925    4.6761
   35.940    4.9394
   35.955    4.7709
   35.970    4.6024
   35.985    4.4971
   36.000    4.4128
   36.015    4.7709
   36.030    4.6024
   36.045    4.6656
   36.060    4.7077
   36.075    4.5708
   36.090    4.5076
   36.105    4.5603
   36.120    4.6445
   36.135    4.6024
   36.150    4.5708
   36.165    4.5919
   36.180    4.4550
   36.195    4.4655
   36.210    4.6761
   36.225    4.6656
   36.240    4.4971
   36.255    4.5392
   36.270    4.7393
   36.285    4.7709
   36.300    4.8868
   36.315    4.7288
   36.330    4.5919
   36.345    4.6867
   36.360    4.4971
   36.375    4.4866
   36.390    4.3918
   36.405    4.1285
   36.420    4.3181
   36.435    4.7288
   36.450    4.9078
   36.465    4.4760
   36.480    4.6972
   36.495    4.6867
   36.510    4.9605
   36.525    4.4971
   36.540    4.2233
   36.555    4.4128
   36.570    4.7183
   36.585    4.4023
   36.600    4.4023
   36.615    4.7288
   36.630    4.7815
   36.645    4.6551
   36.660    4.4339
   36.675    4.5498
   36.690    4.4866
   36.705    4.6551
   36.720    4.6130
   36.735    4.7183
   36.750    4.6130
   36.765    4.7920
   36.780    4.8552
   36.795    4.6024
   36.810    4.6130
   36.825    4.5603
   36.840    4.9289
   36.855    4.6130
   36.870    4.5919
   36.885    4.4655
   36.900    4.5392
   36.915    4.4971
   36.930    4.4760
   36.945    4.2022
   36.960    4.1601
   36.975    4.6445
   36.990    4.3286
   37.005    4.2549
   37.020    4.0548
   37.035    4.5182
   37.050    4.3075
   37.065    4.3391
   37.080    4.4760
   37.095    4.6130
   37.110    4.9816
   37.125    4.6551
   37.140    4.4760
   37.155    4.6340
   37.170    5.1395
   37.185    5.2238
   37.200    5.0237
   37.215    4.8657
   37.230    5.0974
   37.245    4.8236
   37.260    4.8973
   37.275    4.8868
   37.290    4.6445
   37.305    4.5919
   37.320    4.6656
   37.335    4.2549
   37.350    4.4866
   37.365    4.4866
   37.380    4.5814
   37.395    4.2443
   37.410    4.5603
   37.425    4.1285
   37.440    4.1811
   37.455    4.3497
   37.470    4.4339
   37.485    4.5603
   37.500    4.5814
   37.515    4.5182
   37.530    4.2970
   37.545    4.0758
   37.560    4.1180
   37.575    4.4760
   37.590    4.5182
   37.605    4.6972
   37.620    4.7288
   37.635    4.4866
   37.650    4.6340
   37.665    4.4444
   37.680    4.3181
   37.695    4.6340
   37.710    4.4550
   37.725    4.5392
   37.740    4.4234
   37.755    4.4444
   37.770    4.3918
   37.785    4.2654
   37.800    4.5182
   37.815    4.6130
   37.830    4.7288
   37.845    4.4550
   37.860    4.6761
   37.875    4.2654
   37.890    4.4234
   37.905    4.3813
   37.920    4.5708
   37.935    4.5287
   37.950    4.3497
   37.965    4.4023
   37.980    4.4866
   37.995    4.6445
   38.010    4.5498
   38.025    4.3918
   38.040    4.4023
   38.055    4.4760
   38.070    4.5708
   38.085    4.6024
   38.100    4.5603
   38.115    4.4128
   38.130    4.3286
   38.145    4.2654
   38.160    4.2654
   38.175    4.4234
   38.190    4.2549
   38.205    4.5182
   38.220    4.1917
   38.235    4.3707
   38.250    4.0969
   38.265    4.2865
   38.280    4.5287
   38.295    4.1285
   38.310    4.2338
   38.325    4.3918
   38.340    4.6235
   38.355    4.1601
   38.370    4.4550
   38.385    4.3391
   38.400    4.4234
   38.415    4.2549
   38.430    4.5708
   38.445    4.4550
   38.460    4.4339
   38.475    4.5498
   38.490    4.4760
   38.505    4.4234
   38.520    4.1917
   38.535    4.4339
   38.550    4.6761
   38.565    4.4128
   38.580    4.1390
   38.595    4.4655
   38.610    4.5287
   38.625    4.7815
   38.640    4.4971
   38.655    4.2233
   38.670    4.2654
   38.685    4.4444
   38.700    4.2865
   38.715    4.6235
   38.730    4.6235
   38.745    4.3707
   38.760    4.4550
   38.775    4.3391
   38.790    4.4023
   38.805    4.2970
   38.820    4.3286
   38.835    4.2970
   38.850    4.0758
   38.865    3.9389
   38.880    4.2759
   38.895    4.3391
   38.910    4.0864
   38.925    4.4444
   38.940    4.2970
   38.955    4.2022
   38.970    4.0864
   38.985    4.3813
   39.000    4.0126
   39.015    4.0232
   39.030    4.2127
   39.045    4.2970
   39.060    4.2865
   39.075    4.0548
   39.090    4.1706
   39.105    3.9916
   39.120    3.8968
   39.135    4.0864
   39.150    4.1811
   39.165    3.8652
   39.180    4.3813
   39.195    4.3602
   39.210    4.2022
   39.225    4.5182
   39.240    4.4444
   39.255    4.0126
   39.270    4.2549
   39.285    4.6130
   39.300    4.5392
   39.315    4.2759
   39.330    4.3075
   39.345    4.5182
   39.360    4.6024
   39.375    4.7077
   39.390    4.4655
   39.405    4.5076
   39.420    4.6551
   39.435    4.7393
   39.450    4.7288
   39.465    4.5498
   39.480    4.2549
   39.495    4.2759
   39.510    4.4023
   39.525    4.2549
   39.540    4.1706
   39.555    4.5603
   39.570    4.5498
   39.585    4.6340
   39.600    4.5076
   39.615    4.2022
   39.630    4.4760
   39.645    4.2443
   39.660    4.0653
   39.675    4.3181
   39.690    4.5392
   39.705    4.4128
   39.720    4.3181
   39.735    4.1917
   39.750    4.3286
   39.765    4.5287
   39.780    4.6024
   39.795    4.7393
   39.810    4.7920
   39.825    4.5603
   39.840    4.3497
   39.855    4.3391
   39.870    4.2338
   39.885    4.2022
   39.900    4.2970
   39.915    4.3181
   39.930    4.2233
   39.945    4.2865
   39.960    4.4971
   39.975    4.1706
   39.990    4.3181
