    1.500   16.4473
    1.515   15.9733
    1.530   16.9212
    1.545   16.9914
    1.560   16.7632
    1.575   15.8329
    1.590   15.4116
    1.605   15.6574
    1.620   15.1834
    1.635   15.2887
    1.650   14.8850
    1.665   14.4111
    1.680   15.5872
    1.695   14.7446
    1.710   14.7622
    1.725   14.7446
    1.740   14.4989
    1.755   14.1478
    1.770   13.4808
    1.785   13.7265
    1.800   13.7441
    1.815   13.1297
    1.830   13.1648
    1.845   13.3404
    1.860   13.2526
    1.875   13.3579
    1.890   12.7611
    1.905   13.1824
    1.920   12.9893
    1.935   13.0946
    1.950   12.0414
    1.965   11.8834
    1.980   12.3223
    1.995   13.0946
    2.010   12.8138
    2.025   11.9361
    2.040   11.9888
    2.055   12.7962
    2.070   12.2345
    2.085   12.4451
    2.100   12.3398
    2.115   12.7260
    2.130   12.2872
    2.145   11.6728
    2.160   11.8834
    2.175   11.9537
    2.190   11.5675
    2.205   11.4622
    2.220   11.1638
    2.235   11.1813
    2.250   10.4792
    2.265   10.4090
    2.280   10.6547
    2.295   10.9882
    2.310   10.7952
    2.325   11.1287
    2.340   10.9882
    2.355   10.8303
    2.370   10.5494
    2.385   10.1632
    2.400   10.5143
    2.415   10.4441
    2.430   10.2159
    2.445   10.1632
    2.460   10.3739
    2.475    9.7771
    2.490   10.1457
    2.505    9.4611
    2.520    9.9702
    2.535    9.5489
    2.550   10.3914
    2.565   10.4616
    2.580   10.4441
    2.595   10.1281
    2.610   10.2686
    2.625    9.5313
    2.640    9.4787
    2.655   10.4441
    2.670   10.1983
    2.685    9.8297
    2.700   10.0053
    2.715   10.0404
    2.730    9.8122
    2.745    9.4611
    2.760   10.3739
    2.775   10.0053
    2.790    9.7595
    2.805    9.6191
    2.820    9.9877
    2.835    9.6191
    2.850    9.4260
    2.865    9.8297
    2.880    9.3382
    2.895    9.7595
    2.910    9.6367
    2.925    9.8473
    2.940    9.0223
    2.955    8.9521
    2.970    8.6888
    2.985    9.3734
    3.000    9.7244
    3.015    9.4260
    3.030    9.5138
    3.045   10.4441
    3.060    9.6893
    3.075    9.4962
    3.090   10.0053
    3.105    9.9702
    3.120    9.6191
    3.135   10.0755
    3.150   10.3037
    3.165    9.8999
    3.180   10.4792
    3.195   10.5143
    3.210   10.6723
    3.225   10.6021
    3.240   10.1808
    3.255   10.5494
    3.270   11.2866
    3.285   11.2164
    3.300   11.0409
    3.315   11.2340
    3.330   11.3744
    3.345   11.9888
    3.360   12.1467
    3.375   12.6031
    3.390   13.0068
    3.405   13.7265
    3.420   13.4983
    3.435   14.1302
    3.450   15.1834
    3.465   14.7797
    3.480   15.0957
    3.495   16.0962
    3.510   16.9212
    3.525   17.9568
    3.540   17.9744
    3.555   18.7292
    3.570   21.2392
    3.585   21.6430
    3.600   22.4153
    3.615   23.2227
    3.630   24.5743
    3.645   26.6632
    3.660   29.1030
    3.675   30.1211
    3.690   31.9993
    3.705   35.4748
    3.720   37.0370
    3.735   39.1785
    3.750   43.3386
    3.765   50.7285
    3.780   54.5375
    3.795   61.3481
    3.810   69.1943
    3.825   87.2038
    3.840  101.7027
    3.855  110.0228
    3.870  106.7755
    3.885   94.5937
    3.900   73.7406
    3.915   48.4817
    3.930   27.4355
    3.945   14.6919
    3.960   10.7952
    3.975   10.7425
    3.990   10.3914
    4.005    9.6893
    4.020   10.3739
    4.035    9.1627
    4.050    9.0750
    4.065    8.8468
    4.080    9.0398
    4.095    8.9345
    4.110    8.9345
    4.125    8.8643
    4.140    7.9516
    4.155    8.6712
    4.170    8.7414
    4.185    9.1276
    4.200    8.7765
    4.215    9.3382
    4.230    8.6186
    4.245    8.4781
    4.260    8.7239
    4.275    8.8117
    4.290    9.4260
    4.305    8.3904
    4.320    8.0393
    4.335    8.6361
    4.350    8.4957
    4.365    8.7414
    4.380    8.7590
    4.395    8.8468
    4.410    8.7765
    4.425    8.2149
    4.440    8.9696
    4.455    8.6186
    4.470    8.4957
    4.485    8.7414
    4.500    8.5835
    4.515    8.7414
    4.530    8.6010
    4.545    8.1271
    4.560    8.3904
    4.575    8.7063
    4.590    8.5835
    4.605    8.4430
    4.620    8.2500
    4.635    8.5835
    4.650    8.5133
    4.665    8.5133
    4.680    9.1978
    4.695    9.1101
    4.710    9.3031
    4.725    9.3031
    4.740    9.4611
    4.755    8.8468
    4.770    9.0398
    4.785    9.0574
    4.800    8.4781
    4.815    8.9696
    4.830    9.1978
    4.845    9.5138
    4.860    8.9521
    4.875    8.3377
    4.890    8.8994
    4.905    8.9521
    4.920    8.8117
    4.935    9.2856
    4.950    8.8643
    4.965    9.3382
    4.980    9.4085
    4.995    9.4787
    5.010    9.5138
    5.025    9.4436
    5.040    8.7765
    5.055    9.5489
    5.070   10.1632
    5.085    9.7771
    5.100   10.2510
    5.115   10.6021
    5.130   10.0404
    5.145   10.2861
    5.160   10.7600
    5.175   10.6196
    5.190   10.8478
    5.205   11.1813
    5.220   11.1462
    5.235   11.7781
    5.250   11.8834
    5.265   11.4095
    5.280   12.7260
    5.295   12.8489
    5.310   12.3398
    5.325   12.9191
    5.340   13.9547
    5.355   13.7792
    5.370   14.5164
    5.385   15.5345
    5.400   16.2366
    5.415   16.5877
    5.430   18.0270
    5.445   21.2744
    5.460   23.7142
    5.475   25.3818
    5.490   24.8201
    5.505   23.9775
    5.520   20.9760
    5.535   17.4653
    5.550   14.0951
    5.565   12.5329
    5.580   11.4797
    5.595   10.7952
    5.610   11.4973
    5.625   10.4090
    5.640   10.5494
    5.655   10.8478
    5.670   10.6372
    5.685   10.3388
    5.700   10.4265
    5.715   10.5319
    5.730   10.8303
    5.745   10.9531
    5.760   10.7600
    5.775    9.8824
    5.790    9.5313
    5.805    9.8473
    5.820    9.8473
    5.835    9.5840
    5.850    9.9702
    5.865    9.1803
    5.880    9.5138
    5.895    9.7420
    5.910    9.5489
    5.925    9.8122
    5.940    8.8643
    5.955    8.9521
    5.970    9.5313
    5.985    8.6712
    6.000    8.7063
    6.015    8.5659
    6.030    8.7063
    6.045    8.7590
    6.060    8.9521
    6.075    8.4606
    6.090    8.9696
    6.105    9.1101
    6.120    8.4781
    6.135    8.4606
    6.150    8.3377
    6.165    8.6712
    6.180    8.7765
    6.195    8.7765
    6.210    8.0920
    6.225    7.8638
    6.240    7.9340
    6.255    8.6537
    6.270    8.6186
    6.285    7.8287
    6.300    8.2500
    6.315    8.6186
    6.330    8.4255
    6.345    8.4079
    6.360    8.3026
    6.375    8.2149
    6.390    8.4781
    6.405    8.5484
    6.420    7.5829
    6.435    7.7585
    6.450    8.2851
    6.465    8.2324
    6.480    7.7936
    6.495    7.6180
    6.510    8.2675
    6.525    8.3377
    6.540    8.1622
    6.555    8.1271
    6.570    8.5484
    6.585    8.3553
    6.600    7.9516
    6.615    8.4957
    6.630    8.4255
    6.645    8.5484
    6.660    8.8292
    6.675    8.8468
    6.690    8.5659
    6.705    9.2329
    6.720    9.3734
    6.735    9.3734
    6.750   10.0053
    6.765    9.6893
    6.780    9.0223
    6.795    8.5659
    6.810    7.7936
    6.825    7.4776
    6.840    7.7936
    6.855    7.6532
    6.870    7.6883
    6.885    7.4250
    6.900    7.2143
    6.915    7.0915
    6.930    7.0037
    6.945    7.1617
    6.960    7.7058
    6.975    7.1968
    6.990    7.5127
    7.005    7.6707
    7.020    6.8106
    7.035    7.0563
    7.050    7.0388
    7.065    7.4601
    7.080    7.3899
    7.095    7.2845
    7.110    6.9686
    7.125    6.8457
    7.140    7.1617
    7.155    7.3899
    7.170    7.0212
    7.185    6.9159
    7.200    6.7579
    7.215    7.1792
    7.230    6.5824
    7.245    6.7930
    7.260    6.7053
    7.275    6.5473
    7.290    6.6877
    7.305    7.0037
    7.320    6.7930
    7.335    6.4595
    7.350    6.4771
    7.365    6.8633
    7.380    6.6702
    7.395    6.1085
    7.410    6.8808
    7.425    6.8106
    7.440    6.6175
    7.455    6.3542
    7.470    6.6000
    7.485    6.8282
    7.500    6.7930
    7.515    6.3367
    7.530    6.7755
    7.545    6.5649
    7.560    6.8808
    7.575    7.3196
    7.590    6.3542
    7.605    6.4771
    7.620    6.4946
    7.635    6.9510
    7.650    6.7228
    7.665    7.4074
    7.680    7.1090
    7.695    7.7409
    7.710    7.8111
    7.725    8.1095
    7.740    9.0925
    7.755   10.2159
    7.770   10.9356
    7.785   10.4968
    7.800   10.0755
    7.815    9.5664
    7.830    8.6010
    7.845    7.5127
    7.860    6.3016
    7.875    5.9856
    7.890    6.1787
    7.905    5.6345
    7.920    5.9329
    7.935    5.9681
    7.950    6.1611
    7.965    5.9681
    7.980    6.1962
    7.995    6.1260
    8.010    6.2313
    8.025    5.5468
    8.040    5.8627
    8.055    5.6345
    8.070    5.8803
    8.085    5.8627
    8.100    6.5122
    8.115    6.1085
    8.130    5.6345
    8.145    6.0207
    8.160    6.2665
    8.175    5.8803
    8.190    5.5994
    8.205    5.7399
    8.220    5.6697
    8.235    5.7925
    8.250    5.6697
    8.265    5.9329
    8.280    5.8276
    8.295    6.0734
    8.310    6.7404
    8.325    6.0032
    8.340    5.7750
    8.355    5.8276
    8.370    5.6872
    8.385    5.3186
    8.400    5.6170
    8.415    5.5819
    8.430    5.7048
    8.445    5.9505
    8.460    5.7925
    8.475    5.8627
    8.490    5.6872
    8.505    5.8803
    8.520    5.6345
    8.535    5.7750
    8.550    6.1260
    8.565    5.8803
    8.580    5.7399
    8.595    5.8276
    8.610    5.9154
    8.625    5.9856
    8.640    5.8978
    8.655    5.8101
    8.670    5.8276
    8.685    6.4595
    8.700    6.0734
    8.715    6.2840
    8.730    6.0909
    8.745    6.1260
    8.760    5.9329
    8.775    6.2840
    8.790    5.7574
    8.805    5.6872
    8.820    5.7048
    8.835    5.6170
    8.850    5.7925
    8.865    5.4415
    8.880    5.1255
    8.895    5.7574
    8.910    5.6872
    8.925    5.5292
    8.940    5.5117
    8.955    5.6345
    8.970    5.1431
    8.985    5.0026
    9.000    5.4590
    9.015    5.6697
    9.030    5.2484
    9.045    5.4590
    9.060    4.9675
    9.075    5.0728
    9.090    5.8803
    9.105    5.6872
    9.120    5.0026
    9.135    5.1957
    9.150    5.0904
    9.165    5.4590
    9.180    5.7048
    9.195    5.4064
    9.210    5.8276
    9.225    5.5994
    9.240    5.8276
    9.255    5.2659
    9.270    5.2835
    9.285    5.4941
    9.300    5.4590
    9.315    5.5994
    9.330    5.4766
    9.345    5.6521
    9.360    5.2835
    9.375    6.1436
    9.390    5.8803
    9.405    5.9856
    9.420    6.4244
    9.435    6.8633
    9.450    6.7053
    9.465    7.3021
    9.480    8.0042
    9.495    8.9696
    9.510    9.8999
    9.525   12.0590
    9.540   12.7260
    9.555   12.7787
    9.570   12.2521
    9.585   11.2866
    9.600    9.6542
    9.615    7.2845
    9.630    5.6872
    9.645    5.3712
    9.660    5.8627
    9.675    5.3888
    9.690    5.5117
    9.705    5.9681
    9.720    5.1255
    9.735    4.7744
    9.750    4.9851
    9.765    5.2659
    9.780    5.2835
    9.795    5.3361
    9.810    5.0202
    9.825    5.5468
    9.840    5.2835
    9.855    5.4941
    9.870    5.5994
    9.885    5.7223
    9.900    5.6521
    9.915    5.4590
    9.930    5.1782
    9.945    4.8798
    9.960    5.5994
    9.975    5.6872
    9.990    5.5117
   10.005    5.6872
   10.020    5.4590
   10.035    5.0026
   10.050    5.1606
   10.065    5.2308
   10.080    5.6345
   10.095    5.5468
   10.110    5.7048
   10.125    5.8627
   10.140    5.8803
   10.155    5.9505
   10.170    5.5292
   10.185    5.8101
   10.200    6.2840
   10.215    6.1436
   10.230    6.4946
   10.245    6.3542
   10.260    6.8984
   10.275    7.2670
   10.290    7.7234
   10.305    8.7590
   10.320    9.2856
   10.335    9.0925
   10.350    8.2324
   10.365    7.6356
   10.380    7.4074
   10.395    5.9505
   10.410    6.0909
   10.425    5.7223
   10.440    5.5468
   10.455    5.1431
   10.470    5.0202
   10.485    5.6345
   10.500    5.3361
   10.515    5.4941
   10.530    5.3010
   10.545    5.3712
   10.560    5.4415
   10.575    5.6170
   10.590    5.5468
   10.605    5.7574
   10.620    5.2133
   10.635    5.3010
   10.650    5.5994
   10.665    5.1957
   10.680    5.8276
   10.695    5.6697
   10.710    5.4766
   10.725    5.5117
   10.740    5.6872
   10.755    5.3361
   10.770    5.8627
   10.785    5.3361
   10.800    5.7925
   10.815    5.3712
   10.830    5.1255
   10.845    5.6170
   10.860    5.7925
   10.875    6.2138
   10.890    6.4946
   10.905    6.4069
   10.920    6.3016
   10.935    6.3367
   10.950    6.1260
   10.965    6.3191
   10.980    6.6175
   10.995    7.0739
   11.010    7.4250
   11.025    8.0218
   11.040    8.4255
   11.055    8.1797
   11.070    8.0569
   11.085    7.3372
   11.100    6.5473
   11.115    5.9681
   11.130    5.8101
   11.145    5.7925
   11.160    6.0558
   11.175    5.8276
   11.190    5.7574
   11.205    5.4766
   11.220    5.8627
   11.235    5.4941
   11.250    5.7399
   11.265    6.0207
   11.280    5.8101
   11.295    5.1782
   11.310    5.6521
   11.325    5.9505
   11.340    5.3712
   11.355    5.8452
   11.370    5.7399
   11.385    5.2835
   11.400    5.8101
   11.415    5.8803
   11.430    5.0728
   11.445    5.0026
   11.460    5.4415
   11.475    5.8101
   11.490    5.6521
   11.505    5.5643
   11.520    5.8978
   11.535    5.8627
   11.550    5.6872
   11.565    5.7925
   11.580    5.7925
   11.595    6.1787
   11.610    6.1260
   11.625    5.8101
   11.640    6.5824
   11.655    6.8984
   11.670    7.0739
   11.685    7.8462
   11.700    7.8813
   11.715    8.3553
   11.730    8.2500
   11.745    8.0393
   11.760    8.0218
   11.775    6.8282
   11.790    6.1085
   11.805    5.7574
   11.820    5.5643
   11.835    5.3537
   11.850    5.3537
   11.865    4.9324
   11.880    5.8101
   11.895    5.5819
   11.910    5.3888
   11.925    5.2659
   11.940    5.4766
   11.955    5.2308
   11.970    5.1080
   11.985    5.1782
   12.000    5.5292
   12.015    5.3361
   12.030    5.4766
   12.045    5.5292
   12.060    5.4941
   12.075    5.6345
   12.090    5.3537
   12.105    5.4239
   12.120    5.0728
   12.135    5.0377
   12.150    5.2133
   12.165    5.3010
   12.180    5.3361
   12.195    5.3010
   12.210    5.2484
   12.225    5.4590
   12.240    5.5994
   12.255    4.9675
   12.270    4.8973
   12.285    5.5994
   12.300    5.2659
   12.315    5.2484
   12.330    5.7750
   12.345    5.7048
   12.360    5.4941
   12.375    5.9329
   12.390    6.1085
   12.405    5.9505
   12.420    5.5994
   12.435    5.1431
   12.450    5.4766
   12.465    5.4766
   12.480    5.5468
   12.495    5.5643
   12.510    4.8271
   12.525    5.1080
   12.540    5.6170
   12.555    5.1431
   12.570    5.3537
   12.585    5.4064
   12.600    5.5643
   12.615    5.0377
   12.630    5.1782
   12.645    4.9500
   12.660    5.5292
   12.675    5.6872
   12.690    5.4590
   12.705    5.4766
   12.720    5.3361
   12.735    5.4941
   12.750    5.3888
   12.765    5.4239
   12.780    5.1606
   12.795    5.5819
   12.810    5.4590
   12.825    5.5292
   12.840    5.5819
   12.855    5.5117
   12.870    6.3542
   12.885    6.0207
   12.900    5.9329
   12.915    6.3016
   12.930    7.0739
   12.945    7.2319
   12.960    7.8462
   12.975    7.1792
   12.990    7.7585
   13.005    7.2319
   13.020    6.2313
   13.035    5.7925
   13.050    5.1957
   13.065    5.2835
   13.080    5.3010
   13.095    5.5292
   13.110    5.4590
   13.125    5.0904
   13.140    5.3712
   13.155    5.2835
   13.170    4.8622
   13.185    4.8271
   13.200    4.5989
   13.215    4.9500
   13.230    5.4239
   13.245    5.3712
   13.260    5.3186
   13.275    5.1080
   13.290    5.1957
   13.305    5.1606
   13.320    4.9675
   13.335    5.0202
   13.350    5.4941
   13.365    5.0553
   13.380    5.4590
   13.395    5.4766
   13.410    5.0553
   13.425    5.3010
   13.440    5.2835
   13.455    5.9681
   13.470    6.0383
   13.485    6.0207
   13.500    5.9154
   13.515    6.2665
   13.530    6.3718
   13.545    6.3367
   13.560    6.3893
   13.575    6.0734
   13.590    6.0909
   13.605    6.1787
   13.620    5.1957
   13.635    5.0377
   13.650    5.2133
   13.665    5.2133
   13.680    5.0202
   13.695    5.1606
   13.710    4.6340
   13.725    4.8973
   13.740    5.1782
   13.755    4.9675
   13.770    5.4415
   13.785    5.1957
   13.800    5.1782
   13.815    5.1255
   13.830    4.9500
   13.845    5.6170
   13.860    5.3888
   13.875    5.2835
   13.890    5.3888
   13.905    5.2659
   13.920    5.4415
   13.935    5.3186
   13.950    5.0553
   13.965    5.1255
   13.980    5.3537
   13.995    5.3537
   14.010    5.4590
   14.025    5.9154
   14.040    6.1085
   14.055    6.2665
   14.070    6.3893
   14.085    6.5298
   14.100    7.0563
   14.115    6.8282
   14.130    6.8633
   14.145    6.2665
   14.160    5.9681
   14.175    5.6345
   14.190    5.6345
   14.205    5.5643
   14.220    5.4239
   14.235    5.3888
   14.250    5.9505
   14.265    5.8803
   14.280    5.8452
   14.295    5.3186
   14.310    5.3537
   14.325    5.4064
   14.340    5.7399
   14.355    5.7399
   14.370    5.7399
   14.385    5.6872
   14.400    6.1085
   14.415    6.0558
   14.430    5.6697
   14.445    5.7048
   14.460    5.3712
   14.475    5.7048
   14.490    5.2484
   14.505    5.1782
   14.520    5.9154
   14.535    5.6345
   14.550    5.1606
   14.565    5.4766
   14.580    5.3712
   14.595    5.5994
   14.610    5.6697
   14.625    5.5819
   14.640    5.6521
   14.655    5.6521
   14.670    5.2835
   14.685    5.7925
   14.700    5.7574
   14.715    5.7750
   14.730    5.6345
   14.745    5.5819
   14.760    4.7744
   14.775    4.9675
   14.790    5.5819
   14.805    5.8276
   14.820    5.5292
   14.835    5.3888
   14.850    5.2484
   14.865    5.7574
   14.880    5.4415
   14.895    5.1957
   14.910    5.8803
   14.925    5.3010
   14.940    5.3537
   14.955    5.2133
   14.970    5.0904
   14.985    5.1431
   15.000    5.3361
   15.015    5.6521
   15.030    5.5292
   15.045    5.0026
   15.060    5.5292
   15.075    5.4766
   15.090    5.3186
   15.105    5.6345
   15.120    6.0383
   15.135    6.0909
   15.150    6.2489
   15.165    5.9154
   15.180    5.9681
   15.195    5.5994
   15.210    5.5292
   15.225    4.9500
   15.240    4.9675
   15.255    5.2308
   15.270    5.6872
   15.285    5.5994
   15.300    5.2308
   15.315    5.3888
   15.330    5.5819
   15.345    5.3888
   15.360    5.2484
   15.375    5.1957
   15.390    4.9324
   15.405    4.5989
   15.420    4.7744
   15.435    4.7393
   15.450    5.1080
   15.465    5.2308
   15.480    5.0553
   15.495    5.2308
   15.510    5.3361
   15.525    5.1782
   15.540    5.4064
   15.555    5.5468
   15.570    5.0904
   15.585    4.7744
   15.600    4.7393
   15.615    4.8973
   15.630    5.3361
   15.645    5.2484
   15.660    5.2835
   15.675    4.9500
   15.690    5.0728
   15.705    5.0728
   15.720    5.1782
   15.735    4.8798
   15.750    5.0553
   15.765    5.2835
   15.780    5.0202
   15.795    5.2484
   15.810    4.7569
   15.825    5.1431
   15.840    6.0383
   15.855    5.8452
   15.870    5.4064
   15.885    5.3186
   15.900    5.2659
   15.915    5.1431
   15.930    5.2659
   15.945    4.8798
   15.960    4.7042
   15.975    5.0377
   15.990    4.7744
   16.005    4.8798
   16.020    5.2484
   16.035    5.3537
   16.050    5.5292
   16.065    5.4590
   16.080    5.7750
   16.095    5.2659
   16.110    5.6872
   16.125    5.7925
   16.140    5.6170
   16.155    5.7048
   16.170    5.7048
   16.185    5.4766
   16.200    5.6345
   16.215    5.1080
   16.230    4.9324
   16.245    5.4766
   16.260    5.4590
   16.275    4.8622
   16.290    5.3010
   16.305    5.3186
   16.320    5.0904
   16.335    4.6691
   16.350    5.0202
   16.365    5.4941
   16.380    4.9324
   16.395    5.1957
   16.410    4.6867
   16.425    5.5643
   16.440    5.0553
   16.455    5.0377
   16.470    5.5292
   16.485    5.3010
   16.500    5.1080
   16.515    5.0202
   16.530    5.2308
   16.545    5.3888
   16.560    5.2484
   16.575    5.5117
   16.590    5.9505
   16.605    6.3367
   16.620    6.1787
   16.635    6.1085
   16.650    5.9329
   16.665    5.8276
   16.680    5.4239
   16.695    5.5819
   16.710    5.1080
   16.725    4.8447
   16.740    4.9149
   16.755    5.0026
   16.770    5.4415
   16.785    4.9851
   16.800    4.9149
   16.815    5.0728
   16.830    4.8447
   16.845    5.2133
   16.860    5.1782
   16.875    5.3888
   16.890    5.3537
   16.905    5.2308
   16.920    4.7569
   16.935    4.9324
   16.950    4.7393
   16.965    5.1782
   16.980    5.6697
   16.995    5.1606
   17.010    5.6521
   17.025    5.7574
   17.040    6.0558
   17.055    6.3542
   17.070    7.0915
   17.085    7.6707
   17.100    7.0388
   17.115    6.9335
   17.130    6.5824
   17.145    5.7574
   17.160    5.6345
   17.175    5.1782
   17.190    5.3361
   17.205    5.1255
   17.220    4.5463
   17.235    4.8622
   17.250    5.2308
   17.265    5.0728
   17.280    5.2308
   17.295    4.8798
   17.310    5.1957
   17.325    5.1255
   17.340    4.6340
   17.355    4.8798
   17.370    4.5463
   17.385    4.8271
   17.400    4.7042
   17.415    5.2133
   17.430    5.4064
   17.445    5.1431
   17.460    4.8622
   17.475    5.3361
   17.490    5.4941
   17.505    5.5643
   17.520    5.3010
   17.535    5.5643
   17.550    5.5643
   17.565    5.3888
   17.580    5.3361
   17.595    5.0553
   17.610    5.1957
   17.625    4.8271
   17.640    5.2308
   17.655    5.1606
   17.670    4.7569
   17.685    4.9500
   17.700    4.8973
   17.715    5.0728
   17.730    5.1080
   17.745    4.8973
   17.760    5.1606
   17.775    5.1606
   17.790    4.8622
   17.805    4.5989
   17.820    4.8973
   17.835    4.8973
   17.850    4.9324
   17.865    4.8271
   17.880    5.0026
   17.895    5.2133
   17.910    4.7744
   17.925    5.0202
   17.940    5.7223
   17.955    5.6521
   17.970    5.9154
   17.985    4.8622
   18.000    5.3888
   18.015    5.1255
   18.030    5.1782
   18.045    4.9324
   18.060    5.3712
   18.075    5.5819
   18.090    4.9851
   18.105    4.9675
   18.120    4.6165
   18.135    4.9675
   18.150    4.8095
   18.165    4.9149
   18.180    4.7744
   18.195    4.5814
   18.210    5.1606
   18.225    4.3532
   18.240    4.5814
   18.255    4.5989
   18.270    5.0202
   18.285    5.2308
   18.300    5.5819
   18.315    4.7218
   18.330    5.1431
   18.345    5.5292
   18.360    5.2659
   18.375    5.8101
   18.390    5.7223
   18.405    5.6872
   18.420    5.7223
   18.435    5.1255
   18.450    5.1255
   18.465    5.2308
   18.480    5.0728
   18.495    5.2835
   18.510    4.9500
   18.525    4.3707
   18.540    4.7744
   18.555    4.8798
   18.570    5.2659
   18.585    4.8973
   18.600    4.9675
   18.615    4.7920
   18.630    5.1255
   18.645    4.8798
   18.660    5.2133
   18.675    4.8622
   18.690    4.9675
   18.705    4.7920
   18.720    4.8095
   18.735    5.0026
   18.750    4.8622
   18.765    5.5292
   18.780    4.9500
   18.795    4.9675
   18.810    5.6521
   18.825    4.8447
   18.840    5.1431
   18.855    4.9851
   18.870    5.1782
   18.885    5.0026
   18.900    5.0728
   18.915    5.0728
   18.930    5.1080
   18.945    5.2484
   18.960    4.9675
   18.975    4.9324
   18.990    4.7393
   19.005    4.9500
   19.020    5.2133
   19.035    5.1080
   19.050    5.2308
   19.065    4.8798
   19.080    4.9149
   19.095    5.3361
   19.110    4.7218
   19.125    4.7920
   19.140    4.7218
   19.155    4.8622
   19.170    5.6345
   19.185    5.0202
   19.200    5.1782
   19.215    5.1782
   19.230    4.7569
   19.245    4.5463
   19.260    4.9851
   19.275    5.1080
   19.290    4.9675
   19.305    4.6165
   19.320    5.3888
   19.335    4.7393
   19.350    4.7042
   19.365    4.8622
   19.380    5.0026
   19.395    5.1782
   19.410    4.9675
   19.425    4.9149
   19.440    5.1080
   19.455    5.1957
   19.470    5.0377
   19.485    4.9851
   19.500    4.7920
   19.515    4.8622
   19.530    4.9324
   19.545    4.6867
   19.560    5.3888
   19.575    5.3010
   19.590    5.1957
   19.605    5.5468
   19.620    5.6170
   19.635    5.8627
   19.650    5.6521
   19.665    5.4064
   19.680    5.2484
   19.695    5.0377
   19.710    5.1431
   19.725    4.6340
   19.740    4.8447
   19.755    4.5463
   19.770    4.7218
   19.785    4.6867
   19.800    4.8798
   19.815    4.8095
   19.830    4.5638
   19.845    4.4760
   19.860    4.7218
   19.875    4.8622
   19.890    4.8798
   19.905    4.6340
   19.920    4.6867
   19.935    4.9851
   19.950    4.5989
   19.965    4.6165
   19.980    4.5463
   19.995    4.8447
   20.010    4.6340
   20.025    4.9149
   20.040    4.8271
   20.055    4.5638
   20.070    4.5463
   20.085    5.2659
   20.100    5.1431
   20.115    4.9851
   20.130    4.6516
   20.145    4.8095
   20.160    5.0553
   20.175    5.3010
   20.190    4.7744
   20.205    4.9149
   20.220    4.6691
   20.235    5.0026
   20.250    4.7920
   20.265    4.5989
   20.280    4.5463
   20.295    4.8622
   20.310    4.8271
   20.325    4.7042
   20.340    5.1080
   20.355    4.9149
   20.370    5.3361
   20.385    6.3893
   20.400    6.6000
   20.415    6.2138
   20.430    5.8803
   20.445    5.6521
   20.460    5.3361
   20.475    5.3537
   20.490    4.8798
   20.505    4.5638
   20.520    4.3707
   20.535    4.8447
   20.550    4.5463
   20.565    4.6691
   20.580    4.8447
   20.595    4.9324
   20.610    4.9500
   20.625    4.9149
   20.640    4.3883
   20.655    4.1952
   20.670    4.6340
   20.685    4.6516
   20.700    4.6867
   20.715    4.7744
   20.730    4.5814
   20.745    4.5111
   20.760    4.8973
   20.775    4.9149
   20.790    4.4585
   20.805    4.7042
   20.820    4.6867
   20.835    4.8622
   20.850    4.6165
   20.865    4.6867
   20.880    4.8622
   20.895    4.4760
   20.910    4.3356
   20.925    4.8271
   20.940    4.8973
   20.955    4.7920
   20.970    4.5814
   20.985    4.5463
   21.000    5.0026
   21.015    4.6867
   21.030    4.2830
   21.045    4.6165
   21.060    4.4585
   21.075    4.9149
   21.090    4.6867
   21.105    4.3883
   21.120    4.1776
   21.135    4.3356
   21.150    4.3707
   21.165    4.6691
   21.180    4.4760
   21.195    4.4760
   21.210    4.6691
   21.225    4.7218
   21.240    5.0026
   21.255    4.9149
   21.270    4.4585
   21.285    4.5814
   21.300    4.4936
   21.315    4.5287
   21.330    4.5989
   21.345    4.5989
   21.360    4.4409
   21.375    4.6340
   21.390    4.8095
   21.405    4.8798
   21.420    4.7042
   21.435    4.8271
   21.450    4.7393
   21.465    4.3356
   21.480    4.3883
   21.495    4.3883
   21.510    4.5989
   21.525    4.6516
   21.540    4.3707
   21.555    4.7042
   21.570    4.4936
   21.585    4.6867
   21.600    4.6867
   21.615    4.4234
   21.630    4.7218
   21.645    4.3356
   21.660    4.1776
   21.675    4.0723
   21.690    4.8271
   21.705    5.0553
   21.720    4.6340
   21.735    4.2830
   21.750    4.3532
   21.765    4.6165
   21.780    4.3356
   21.795    4.4585
   21.810    4.9675
   21.825    4.9675
   21.840    4.8271
   21.855    5.0377
   21.870    4.8271
   21.885    4.8095
   21.900    5.0553
   21.915    5.0728
   21.930    4.9851
   21.945    4.8798
   21.960    4.7393
   21.975    4.7393
   21.990    4.7744
   22.005    4.9149
   22.020    4.6516
   22.035    4.4585
   22.050    4.4409
   22.065    4.3532
   22.080    4.4234
   22.095    4.4058
   22.110    4.3005
   22.125    4.8447
   22.140    4.6165
   22.155    4.7744
   22.170    4.9149
   22.185    4.4585
   22.200    4.6516
   22.215    4.1952
   22.230    4.9149
   22.245    4.7218
   22.260    4.6516
   22.275    4.4409
   22.290    4.4585
   22.305    4.5989
   22.320    4.3356
   22.335    4.2303
   22.350    4.6165
   22.365    4.1601
   22.380    4.4409
   22.395    4.4409
   22.410    4.6340
   22.425    4.1250
   22.440    4.0197
   22.455    4.5638
   22.470    4.0021
   22.485    3.9319
   22.500    4.5814
   22.515    5.2659
   22.530    4.8271
   22.545    5.1080
   22.560    5.6697
   22.575    5.5819
   22.590    6.1260
   22.605    6.1962
   22.620    5.8276
   22.635    5.7048
   22.650    5.1782
   22.665    5.0728
   22.680    5.2308
   22.695    4.8095
   22.710    4.6691
   22.725    4.3707
   22.740    4.4936
   22.755    4.3532
   22.770    4.4936
   22.785    4.3883
   22.800    4.7920
   22.815    4.1952
   22.830    4.3005
   22.845    4.1425
   22.860    4.3356
   22.875    4.7569
   22.890    4.8095
   22.905    4.8271
   22.920    5.3537
   22.935    6.3718
   22.950    6.1787
   22.965    5.9329
   22.980    5.5468
   22.995    5.0728
   23.010    5.2484
   23.025    4.8271
   23.040    4.3356
   23.055    3.8792
   23.070    4.5638
   23.085    4.3707
   23.100    4.8095
   23.115    4.5638
   23.130    4.1952
   23.145    4.0197
   23.160    4.1601
   23.175    4.5463
   23.190    4.3883
   23.205    4.3181
   23.220    4.4409
   23.235    4.8095
   23.250    4.7042
   23.265    4.9500
   23.280    4.9675
   23.295    4.9851
   23.310    4.7218
   23.325    4.5287
   23.340    4.3005
   23.355    4.5989
   23.370    4.4058
   23.385    4.5111
   23.400    4.3883
   23.415    4.2303
   23.430    4.2303
   23.445    4.0723
   23.460    3.8266
   23.475    4.4585
   23.490    4.2830
   23.505    4.4409
   23.520    4.0899
   23.535    4.1952
   23.550    4.1776
   23.565    3.3877
   23.580    4.2478
   23.595    4.1952
   23.610    4.4409
   23.625    4.4058
   23.640    4.6165
   23.655    4.0723
   23.670    4.3883
   23.685    4.4234
   23.700    4.0899
   23.715    4.2478
   23.730    4.0021
   23.745    4.4936
   23.760    4.4409
   23.775    4.4585
   23.790    3.9670
   23.805    4.0197
   23.820    4.0899
   23.835    4.3356
   23.850    4.4936
   23.865    4.4936
   23.880    4.1425
   23.895    4.5989
   23.910    4.4585
   23.925    4.5638
   23.940    4.4409
   23.955    4.5287
   23.970    4.6691
   23.985    4.5111
   24.000    4.7393
   24.015    4.6867
   24.030    4.5989
   24.045    4.4058
   24.060    3.7037
   24.075    3.8792
   24.090    4.2654
   24.105    4.7569
   24.120    3.7915
   24.135    4.0372
   24.150    3.9319
   24.165    4.1952
   24.180    4.0723
   24.195    4.0021
   24.210    4.2478
   24.225    4.0548
   24.240    3.9670
   24.255    4.0197
   24.270    4.0372
   24.285    4.0723
   24.300    3.8441
   24.315    3.9670
   24.330    3.8090
   24.345    4.0723
   24.360    3.9143
   24.375    4.1952
   24.390    4.2303
   24.405    4.0723
   24.420    4.5638
   24.435    4.2478
   24.450    4.1776
   24.465    4.1074
   24.480    4.0899
   24.495    4.1776
   24.510    4.2478
   24.525    3.8441
   24.540    4.3356
   24.555    4.5111
   24.570    4.2127
   24.585    4.1776
   24.600    4.2127
   24.615    4.1425
   24.630    4.1250
   24.645    3.8617
   24.660    3.9846
   24.675    4.3181
   24.690    3.9319
   24.705    3.8441
   24.720    3.8441
   24.735    4.1776
   24.750    4.2478
   24.765    4.2830
   24.780    4.0021
   24.795    3.8266
   24.810    4.2830
   24.825    3.8792
   24.840    3.9494
   24.855    3.9319
   24.870    4.1250
   24.885    4.4760
   24.900    4.1074
   24.915    4.3181
   24.930    4.3883
   24.945    4.0723
   24.960    3.6510
   24.975    3.8441
   24.990    4.1776
   25.005    3.9143
   25.020    3.7388
   25.035    3.7564
   25.050    3.9143
   25.065    3.6335
   25.080    3.7739
   25.095    3.6510
   25.110    4.0021
   25.125    4.4409
   25.140    4.4409
   25.155    3.5984
   25.170    3.9319
   25.185    3.9670
   25.200    3.7564
   25.215    3.9143
   25.230    4.2654
   25.245    3.8792
   25.260    3.9670
   25.275    3.8266
   25.290    3.9143
   25.305    4.0723
   25.320    3.9846
   25.335    3.7739
   25.350    3.6862
   25.365    3.8968
   25.380    4.0548
   25.395    3.9319
   25.410    3.8617
   25.425    3.9846
   25.440    4.0548
   25.455    3.9670
   25.470    4.1952
   25.485    4.1601
   25.500    4.3883
   25.515    4.1601
   25.530    4.1601
   25.545    4.2654
   25.560    4.3005
   25.575    4.0372
   25.590    3.8792
   25.605    4.0197
   25.620    4.0723
   25.635    4.1776
   25.650    3.8266
   25.665    4.2478
   25.680    3.9494
   25.695    3.8617
   25.710    3.8090
   25.725    4.0723
   25.740    3.7564
   25.755    4.0197
   25.770    4.2127
   25.785    4.1952
   25.800    4.4585
   25.815    4.4058
   25.830    4.6340
   25.845    5.4590
   25.860    5.3010
   25.875    4.8622
   25.890    5.3361
   25.905    5.0377
   25.920    4.2654
   25.935    3.9143
   25.950    3.9143
   25.965    3.9846
   25.980    4.3181
   25.995    4.3707
   26.010    4.0197
   26.025    3.5808
   26.040    3.8968
   26.055    4.0548
   26.070    3.8968
   26.085    3.9319
   26.100    4.1250
   26.115    4.1250
   26.130    4.0723
   26.145    3.9494
   26.160    3.8266
   26.175    3.8266
   26.190    3.9319
   26.205    3.6510
   26.220    3.5808
   26.235    3.7213
   26.250    3.7915
   26.265    3.9846
   26.280    3.5633
   26.295    3.5457
   26.310    4.0372
   26.325    3.7037
   26.340    3.5282
   26.355    4.0372
   26.370    4.0021
   26.385    4.0021
   26.400    3.8090
   26.415    3.7915
   26.430    4.3883
   26.445    4.1250
   26.460    4.3005
   26.475    3.8266
   26.490    3.8441
   26.505    4.1776
   26.520    4.0899
   26.535    4.1425
   26.550    3.8441
   26.565    3.7213
   26.580    3.4755
   26.595    3.6862
   26.610    3.6510
   26.625    3.5808
   26.640    3.6159
   26.655    3.5984
   26.670    3.7213
   26.685    4.1425
   26.700    3.9143
   26.715    3.8441
   26.730    3.7564
   26.745    3.7915
   26.760    3.6335
   26.775    3.8266
   26.790    3.9319
   26.805    4.0197
   26.820    3.7915
   26.835    3.7564
   26.850    3.6335
   26.865    3.9143
   26.880    3.6510
   26.895    3.2824
   26.910    3.1947
   26.925    3.5282
   26.940    3.6686
   26.955    3.9319
   26.970    3.5106
   26.985    3.9319
   27.000    4.0021
   27.015    3.9143
   27.030    4.1776
   27.045    4.1952
   27.060    4.4058
   27.075    4.6691
   27.090    4.4936
   27.105    4.0548
   27.120    3.8266
   27.135    3.7037
   27.150    3.5282
   27.165    3.1771
   27.180    3.7739
   27.195    3.7564
   27.210    3.4755
   27.225    3.6159
   27.240    3.3175
   27.255    3.4755
   27.270    3.5106
   27.285    3.5808
   27.300    3.3526
   27.315    3.5633
   27.330    3.7388
   27.345    3.5282
   27.360    3.5808
   27.375    3.5808
   27.390    3.4755
   27.405    3.3877
   27.420    3.0893
   27.435    3.3000
   27.450    3.5282
   27.465    3.6510
   27.480    3.6510
   27.495    3.5457
   27.510    3.6686
   27.525    3.6159
   27.540    3.6686
   27.555    3.5633
   27.570    3.5808
   27.585    4.0899
   27.600    3.7564
   27.615    4.0548
   27.630    3.9670
   27.645    3.7213
   27.660    3.8968
   27.675    3.6335
   27.690    3.7739
   27.705    3.5457
   27.720    3.6862
   27.735    3.6862
   27.750    3.5106
   27.765    3.5282
   27.780    3.6335
   27.795    3.6862
   27.810    3.6686
   27.825    3.5282
   27.840    3.4931
   27.855    3.8617
   27.870    3.5106
   27.885    3.6335
   27.900    3.6510
   27.915    3.8441
   27.930    3.7739
   27.945    4.0197
   27.960    3.6335
   27.975    3.7915
   27.990    4.4234
   28.005    3.9670
   28.020    3.9670
   28.035    3.9494
   28.050    3.4404
   28.065    3.2473
   28.080    3.5808
   28.095    3.1771
   28.110    3.3702
   28.125    3.7915
   28.140    3.6510
   28.155    3.6862
   28.170    3.6159
   28.185    3.7564
   28.200    3.9143
   28.215    4.0021
   28.230    3.7388
   28.245    3.6159
   28.260    3.6335
   28.275    3.6862
   28.290    3.4931
   28.305    3.3351
   28.320    3.2824
   28.335    3.3526
   28.350    3.4931
   28.365    3.4404
   28.380    3.3000
   28.395    3.5984
   28.410    3.5106
   28.425    3.9670
   28.440    3.8968
   28.455    3.7388
   28.470    3.6510
   28.485    3.9143
   28.500    3.9143
   28.515    3.7564
   28.530    4.1601
   28.545    3.7564
   28.560    3.6686
   28.575    3.5984
   28.590    3.4404
   28.605    3.6510
   28.620    3.6862
   28.635    3.2649
   28.650    3.4931
   28.665    3.5282
   28.680    3.2473
   28.695    3.1947
   28.710    3.3000
   28.725    3.6686
   28.740    3.5808
   28.755    3.8090
   28.770    3.5106
   28.785    3.6510
   28.800    3.5282
   28.815    3.8441
   28.830    3.6686
   28.845    3.1947
   28.860    3.3526
   28.875    3.9846
   28.890    3.7915
   28.905    3.4931
   28.920    3.5984
   28.935    3.8617
   28.950    3.7213
   28.965    4.1776
   28.980    4.0021
   28.995    4.3181
   29.010    3.5457
   29.025    3.2824
   29.040    3.5808
   29.055    3.3526
   29.070    3.6510
   29.085    3.4931
   29.100    2.8963
   29.115    3.3526
   29.130    3.5633
   29.145    3.3702
   29.160    3.8266
   29.175    3.6862
   29.190    3.6862
   29.205    3.5633
   29.220    3.4580
   29.235    3.2649
   29.250    3.1947
   29.265    3.3702
   29.280    3.5984
   29.295    3.6510
   29.310    3.8968
   29.325    3.9670
   29.340    4.0548
   29.355    3.7564
   29.370    3.2824
   29.385    3.4229
   29.400    3.2649
   29.415    3.1596
   29.430    3.1947
   29.445    3.2298
   29.460    3.2473
   29.475    2.9489
   29.490    3.1947
   29.505    3.3000
   29.520    3.0893
   29.535    3.1596
   29.550    3.1069
   29.565    3.0191
   29.580    2.8787
   29.595    3.2122
   29.610    3.2298
   29.625    2.9840
   29.640    2.8963
   29.655    3.1245
   29.670    3.3702
   29.685    3.3526
   29.700    3.1596
   29.715    3.2649
   29.730    3.1771
   29.745    3.3702
   29.760    3.0542
   29.775    3.0718
   29.790    3.1245
   29.805    2.9138
   29.820    2.7734
   29.835    3.0367
   29.850    3.3000
   29.865    3.4931
   29.880    3.1420
   29.895    2.9314
   29.910    3.1771
   29.925    3.1771
   29.940    3.0191
   29.955    3.3702
   29.970    3.1245
   29.985    3.1596
   30.000    3.0191
   30.015    2.9314
   30.030    3.2298
   30.045    3.4053
   30.060    3.0542
   30.075    2.8787
   30.090    3.0718
   30.105    2.9138
   30.120    2.9840
   30.135    2.8612
   30.150    3.1245
   30.165    2.8963
   30.180    3.0191
   30.195    3.0542
   30.210    2.8085
   30.225    2.8436
   30.240    2.9489
   30.255    3.3175
   30.270    2.9314
   30.285    2.8612
   30.300    3.0542
   30.315    2.9314
   30.330    2.8085
   30.345    3.4404
   30.360    3.1947
   30.375    3.0016
   30.390    3.3000
   30.405    2.9665
   30.420    3.4580
   30.435    3.1245
   30.450    3.0893
   30.465    3.3351
   30.480    3.3877
   30.495    3.1420
   30.510    3.1771
   30.525    2.8436
   30.540    2.6330
   30.555    3.1596
   30.570    2.7558
   30.585    2.9314
   30.600    2.9314
   30.615    3.0542
   30.630    3.0367
   30.645    3.3351
   30.660    3.4053
   30.675    3.1245
   30.690    3.1069
   30.705    3.2473
   30.720    2.9840
   30.735    3.0016
   30.750    3.4229
   30.765    3.1947
   30.780    2.9840
   30.795    2.9665
   30.810    2.8436
   30.825    2.6681
   30.840    2.5979
   30.855    2.7558
   30.870    2.9138
   30.885    3.0016
   30.900    3.1069
   30.915    2.8436
   30.930    3.1771
   30.945    2.8612
   30.960    2.6154
   30.975    2.8787
   30.990    3.1069
   31.005    2.8963
   31.020    2.7909
   31.035    2.8963
   31.050    2.8085
   31.065    3.0542
   31.080    2.7207
   31.095    2.9138
   31.110    2.7207
   31.125    2.8085
   31.140    2.7383
   31.155    2.7558
   31.170    2.9138
   31.185    3.1069
   31.200    3.2824
   31.215    3.0542
   31.230    3.0016
   31.245    2.8963
   31.260    2.7558
   31.275    2.7383
   31.290    2.8085
   31.305    2.9840
   31.320    2.9489
   31.335    2.8260
   31.350    2.2995
   31.365    3.0367
   31.380    3.0367
   31.395    3.1947
   31.410    2.7558
   31.425    2.8085
   31.440    2.8436
   31.455    2.9489
   31.470    3.0893
   31.485    2.8612
   31.500    3.3702
   31.515    3.0191
   31.530    2.5803
   31.545    2.7558
   31.560    2.7383
   31.575    3.1771
   31.590    3.1420
   31.605    2.8436
   31.620    2.7032
   31.635    2.6681
   31.650    3.0016
   31.665    2.8260
   31.680    3.0016
   31.695    2.7558
   31.710    2.9665
   31.725    2.6505
   31.740    2.9489
   31.755    3.0893
   31.770    3.1420
   31.785    2.7909
   31.800    2.9840
   31.815    3.0718
   31.830    2.7383
   31.845    2.4048
   31.860    3.3000
   31.875    2.7734
   31.890    2.7383
   31.905    2.8085
   31.920    2.6154
   31.935    2.7383
   31.950    2.7032
   31.965    2.7383
   31.980    2.9840
   31.995    2.7032
   32.010    2.7032
   32.025    3.0367
   32.040    3.1596
   32.055    3.2824
   32.070    3.6510
   32.085    3.3526
   32.100    3.8266
   32.115    3.4053
   32.130    3.4755
   32.145    3.3526
   32.160    3.2824
   32.175    2.9840
   32.190    3.0542
   32.205    2.7032
   32.220    2.7734
   32.235    2.8436
   32.250    2.9489
   32.265    2.5803
   32.280    2.6330
   32.295    2.9138
   32.310    3.2122
   32.325    2.8787
   32.340    2.4399
   32.355    2.5979
   32.370    2.5628
   32.385    2.9489
   32.400    2.7558
   32.415    2.5628
   32.430    2.5101
   32.445    2.6330
   32.460    2.5628
   32.475    2.7909
   32.490    2.6154
   32.505    2.4574
   32.520    2.4223
   32.535    2.4223
   32.550    2.6505
   32.565    2.8787
   32.580    2.8436
   32.595    2.9840
   32.610    2.7383
   32.625    2.7734
   32.640    2.5803
   32.655    2.8260
   32.670    2.5276
   32.685    2.7032
   32.700    2.7909
   32.715    2.8260
   32.730    2.7909
   32.745    2.7032
   32.760    2.6505
   32.775    2.7734
   32.790    2.8085
   32.805    2.5628
   32.820    2.6330
   32.835    2.3872
   32.850    2.5452
   32.865    2.7032
   32.880    2.6505
   32.895    2.5452
   32.910    2.5979
   32.925    2.7032
   32.940    2.8436
   32.955    2.7207
   32.970    2.5452
   32.985    2.7207
   33.000    2.6154
   33.015    2.4223
   33.030    2.8787
   33.045    2.7207
   33.060    2.7207
   33.075    2.6154
   33.090    2.5452
   33.105    2.8260
   33.120    2.5452
   33.135    2.7734
   33.150    2.5979
   33.165    2.6505
   33.180    2.4399
   33.195    2.7032
   33.210    2.9840
   33.225    2.7734
   33.240    2.7558
   33.255    2.7383
   33.270    2.4223
   33.285    2.2643
   33.300    2.8260
   33.315    2.6505
   33.330    2.3170
   33.345    2.3521
   33.360    2.4048
   33.375    2.6681
   33.390    2.7383
   33.405    2.3521
   33.420    2.5628
   33.435    2.5628
   33.450    2.8612
   33.465    2.7207
   33.480    2.6856
   33.495    2.6505
   33.510    2.4399
   33.525    2.3697
   33.540    2.6330
   33.555    2.2819
   33.570    2.0888
   33.585    2.3697
   33.600    2.5452
   33.615    2.7207
   33.630    2.5452
   33.645    2.6505
   33.660    3.0191
   33.675    2.6681
   33.690    2.2819
   33.705    2.2643
   33.720    2.5628
   33.735    2.6330
   33.750    2.5979
   33.765    3.1420
   33.780    2.8963
   33.795    2.6505
   33.810    2.8260
   33.825    2.8787
   33.840    2.4750
   33.855    2.6154
   33.870    2.7207
   33.885    2.6505
   33.900    2.9840
   33.915    2.8260
   33.930    2.5979
   33.945    3.0367
   33.960    2.8963
   33.975    2.8787
   33.990    2.6856
   34.005    2.6505
   34.020    2.8963
   34.035    2.8612
   34.050    2.5803
   34.065    2.4750
   34.080    2.3872
   34.095    2.6681
   34.110    2.6681
   34.125    2.6154
   34.140    2.8787
   34.155    2.7207
   34.170    2.7207
   34.185    2.5979
   34.200    2.7207
   34.215    2.4399
   34.230    2.4399
   34.245    2.4925
   34.260    2.2819
   34.275    2.4925
   34.290    2.5628
   34.305    2.6330
   34.320    2.5452
   34.335    2.6681
   34.350    2.3872
   34.365    2.1766
   34.380    2.1766
   34.395    2.3521
   34.410    2.4925
   34.425    2.8436
   34.440    2.5101
   34.455    2.5101
   34.470    2.7558
   34.485    2.5628
   34.500    2.3697
   34.515    2.3346
   34.530    2.6330
   34.545    2.6330
   34.560    2.4399
   34.575    2.2292
   34.590    2.5276
   34.605    2.2643
   34.620    2.3170
   34.635    2.8085
   34.650    2.6856
   34.665    3.0893
   34.680    2.8085
   34.695    2.9138
   34.710    2.5979
   34.725    2.5803
   34.740    2.5628
   34.755    2.6330
   34.770    2.4223
   34.785    2.7207
   34.800    2.8787
   34.815    2.6154
   34.830    2.7032
   34.845    2.6856
   34.860    2.5452
   34.875    2.7032
   34.890    2.6505
   34.905    2.5452
   34.920    2.5101
   34.935    2.8085
   34.950    2.7032
   34.965    2.3346
   34.980    2.5276
   34.995    2.5628
   35.010    2.5276
   35.025    2.5276
   35.040    2.2117
   35.055    2.5101
   35.070    2.7909
   35.085    2.5628
   35.100    2.6154
   35.115    2.0888
   35.130    2.0362
   35.145    2.2819
   35.160    2.3872
   35.175    2.3872
   35.190    2.5628
   35.205    2.3521
   35.220    2.3170
   35.235    2.5803
   35.250    2.4925
   35.265    2.4048
   35.280    2.2995
   35.295    2.1766
   35.310    2.5628
   35.325    2.3521
   35.340    2.2995
   35.355    2.3521
   35.370    2.4925
   35.385    2.2995
   35.400    2.5803
   35.415    2.4750
   35.430    2.5628
   35.445    2.4399
   35.460    2.8787
   35.475    2.5803
   35.490    2.3521
   35.505    2.4750
   35.520    2.4925
   35.535    2.6154
   35.550    2.6154
   35.565    2.1239
   35.580    2.0888
   35.595    2.6154
   35.610    2.5628
   35.625    2.3872
   35.640    2.5803
   35.655    2.5101
   35.670    2.4223
   35.685    2.7734
   35.700    2.6681
   35.715    2.9489
   35.730    2.3521
   35.745    2.2643
   35.760    2.3872
   35.775    2.5803
   35.790    2.5276
   35.805    2.5628
   35.820    2.4750
   35.835    2.3346
   35.850    2.5101
   35.865    2.5452
   35.880    2.6330
   35.895    2.4399
   35.910    2.5101
   35.925    2.4048
   35.940    2.5276
   35.955    2.3697
   35.970    2.2995
   35.985    2.6154
   36.000    2.6505
   36.015    2.4048
   36.030    2.5276
   36.045    2.2995
   36.060    2.3872
   36.075    2.5452
   36.090    2.2995
   36.105    2.3872
   36.120    2.6856
   36.135    2.4925
   36.150    2.4048
   36.165    2.3521
   36.180    2.3170
   36.195    2.4925
   36.210    2.3872
   36.225    2.6505
   36.240    2.8260
   36.255    2.6856
   36.270    2.8612
   36.285    2.8612
   36.300    2.5452
   36.315    2.1766
   36.330    2.3697
   36.345    2.6856
   36.360    2.8085
   36.375    2.7909
   36.390    2.4399
   36.405    2.4925
   36.420    2.3521
   36.435    2.6154
   36.450    2.6856
   36.465    2.6681
   36.480    2.8436
   36.495    2.3872
   36.510    2.2819
   36.525    2.3697
   36.540    2.5101
   36.555    2.4048
   36.570    2.4925
   36.585    2.0888
   36.600    2.1941
   36.615    2.7558
   36.630    2.7734
   36.645    2.6505
   36.660    2.5979
   36.675    3.0191
   36.690    2.5979
   36.705    2.5101
   36.720    2.5101
   36.735    2.4925
   36.750    2.2819
   36.765    2.2117
   36.780    2.3521
   36.795    2.6856
   36.810    2.4574
   36.825    2.2819
   36.840    2.4223
   36.855    2.2292
   36.870    2.1415
   36.885    2.3170
   36.900    2.4048
   36.915    2.1941
   36.930    2.3872
   36.945    2.0362
   36.960    2.2995
   36.975    2.4048
   36.990    2.4399
   37.005    2.4048
   37.020    2.3170
   37.035    2.2468
   37.050    2.5101
   37.065    2.4223
   37.080    2.4399
   37.095    2.4925
   37.110    2.6505
   37.125    2.3697
   37.140    2.4399
   37.155    2.6681
   37.170    2.3872
   37.185    2.6330
   37.200    2.6330
   37.215    2.7383
   37.230    2.3346
   37.245    2.4223
   37.260    2.3697
   37.275    2.2643
   37.290    2.3697
   37.305    2.1941
   37.320    2.4399
   37.335    2.6154
   37.350    2.0713
   37.365    2.2995
   37.380    2.5452
   37.395    2.4750
   37.410    2.2643
   37.425    2.3521
   37.440    2.3346
   37.455    2.2117
   37.470    2.1239
   37.485    2.2292
   37.500    2.4223
   37.515    2.3697
   37.530    2.4399
   37.545    2.2995
   37.560    2.4223
   37.575    2.3872
   37.590    2.4399
   37.605    2.3872
   37.620    2.4223
   37.635    2.5101
   37.650    2.5452
   37.665    2.3346
   37.680    2.3170
   37.695    2.4925
   37.710    2.2643
   37.725    2.2292
   37.740    2.1941
   37.755    2.2643
   37.770    2.4399
   37.785    2.5101
   37.800    2.2819
   37.815    2.5452
   37.830    2.4750
   37.845    2.4223
   37.860    2.3170
   37.875    2.2995
   37.890    2.3346
   37.905    2.5276
   37.920    2.3697
   37.935    2.3872
   37.950    2.5628
   37.965    2.3697
   37.980    2.7558
   37.995    2.7207
   38.010    2.6154
   38.025    2.5628
   38.040    2.5101
   38.055    2.0888
   38.070    2.0186
   38.085    2.1766
   38.100    2.4048
   38.115    2.4223
   38.130    2.3346
   38.145    2.4574
   38.160    2.3872
   38.175    2.4223
   38.190    2.3697
   38.205    2.4223
   38.220    2.2819
   38.235    2.3697
   38.250    2.1941
   38.265    2.2468
   38.280    2.4399
   38.295    2.0713
   38.310    2.2643
   38.325    2.5452
   38.340    2.7734
   38.355    2.6856
   38.370    2.4750
   38.385    2.5979
   38.400    2.5452
   38.415    2.2819
   38.430    2.6154
   38.445    2.5101
   38.460    2.4223
   38.475    2.0713
   38.490    2.2643
   38.505    2.4925
   38.520    2.4399
   38.535    2.1766
   38.550    2.2117
   38.565    2.6681
   38.580    2.3170
   38.595    2.4574
   38.610    2.4750
   38.625    2.6330
   38.640    2.6330
   38.655    2.4048
   38.670    2.1766
   38.685    2.0713
   38.700    2.2995
   38.715    2.2819
   38.730    2.3872
   38.745    2.1590
   38.760    2.2117
   38.775    2.1590
   38.790    2.2643
   38.805    2.1064
   38.820    2.0186
   38.835    2.2643
   38.850    2.3170
   38.865    2.2643
   38.880    2.6856
   38.895    2.5803
   38.910    2.3346
   38.925    2.2292
   38.940    2.3346
   38.955    2.0713
   38.970    2.3170
   38.985    2.4574
   39.000    2.1239
   39.015    2.1941
   39.030    2.1064
   39.045    2.2468
   39.060    2.1239
   39.075    2.3170
   39.090    2.2292
   39.105    2.0713
   39.120    2.4925
   39.135    2.2117
   39.150    2.1239
   39.165    2.2995
   39.180    2.5452
   39.195    2.1766
   39.210    2.5803
   39.225    2.3521
   39.240    2.3170
   39.255    2.1415
   39.270    2.4223
   39.285    2.3170
   39.300    2.2819
   39.315    2.5276
   39.330    2.3872
   39.345    2.2292
   39.360    2.4223
   39.375    2.1590
   39.390    2.2292
   39.405    2.5276
   39.420    2.4048
   39.435    2.3697
   39.450    2.0888
   39.465    2.4574
   39.480    2.3697
   39.495    2.2292
   39.510    2.1766
   39.525    2.3697
   39.540    2.3346
   39.555    2.4399
   39.570    2.1766
   39.585    2.1415
   39.600    2.2995
   39.615    2.4750
   39.630    2.6681
   39.645    2.3170
   39.660    2.2643
   39.675    2.2995
   39.690    2.0362
   39.705    2.2995
   39.720    2.0362
   39.735    2.4574
   39.750    2.2468
   39.765    2.2292
   39.780    2.5452
   39.795    2.5979
   39.810    2.3872
   39.825    2.3170
   39.840    2.2468
   39.855    2.3521
   39.870    2.1239
   39.885    2.5979
   39.900    2.3170
   39.915    2.3872
   39.930    2.6505
   39.945    2.4399
   39.960    1.9133
   39.975    2.3697
   39.990    2.5101
