    1.500   11.8694
    1.515   12.1116
    1.530   11.6166
    1.545   11.6272
    1.560   11.6166
    1.575   12.0906
    1.590   11.6798
    1.605   11.9431
    1.620   11.0795
    1.635   10.5213
    1.650   10.8373
    1.665   10.7214
    1.680   10.0579
    1.695    9.9947
    1.710   10.2791
    1.725   10.3528
    1.740   10.4792
    1.755    9.8052
    1.770   10.2159
    1.785    9.5945
    1.800    9.6367
    1.815    9.6788
    1.830    9.0363
    1.845    9.0469
    1.860    9.3944
    1.875    9.2996
    1.890    8.8573
    1.905    8.6151
    1.920    8.8152
    1.935    8.8889
    1.950    8.3307
    1.965    8.3518
    1.980    8.1201
    1.995    7.9516
    2.010    8.0147
    2.025    8.1727
    2.040    8.1833
    2.055    7.7409
    2.070    8.1727
    2.085    7.7725
    2.100    7.9094
    2.115    7.6251
    2.130    7.4250
    2.145    7.5408
    2.160    7.4460
    2.175    7.4144
    2.190    7.0669
    2.205    7.2249
    2.220    7.1195
    2.235    7.6040
    2.250    7.0669
    2.265    7.3196
    2.280    7.3091
    2.295    7.2670
    2.310    7.2249
    2.325    6.9826
    2.340    6.8773
    2.355    6.5508
    2.370    6.9089
    2.385    7.4882
    2.400    7.3934
    2.415    6.7088
    2.430    6.7615
    2.445    6.6561
    2.460    7.0774
    2.475    6.8984
    2.490    6.8352
    2.505    6.8141
    2.520    6.9721
    2.535    7.2459
    2.550    6.8562
    2.565    6.7825
    2.580    6.4666
    2.595    6.7720
    2.610    6.6351
    2.625    6.5508
    2.640    6.6245
    2.655    6.1927
    2.670    6.4982
    2.685    6.8036
    2.700    6.6456
    2.715    6.4876
    2.730    6.7720
    2.745    6.4350
    2.760    6.8352
    2.775    6.7404
    2.790    6.5824
    2.805    6.1927
    2.820    6.4771
    2.835    6.1506
    2.850    6.3612
    2.865    6.3507
    2.880    5.8031
    2.895    6.1295
    2.910    6.0874
    2.925    6.2981
    2.940    6.2770
    2.955    6.2243
    2.970    6.0348
    2.985    6.4350
    3.000    6.4139
    3.015    6.3718
    3.030    5.8978
    3.045    6.3507
    3.060    6.6140
    3.075    6.4034
    3.090    6.0137
    3.105    6.0558
    3.120    6.2770
    3.135    6.2033
    3.150    6.2770
    3.165    6.0242
    3.180    6.5087
    3.195    6.0032
    3.210    6.0874
    3.225    5.8978
    3.240    5.6872
    3.255    6.0769
    3.270    6.4876
    3.285    6.6140
    3.300    6.0137
    3.315    5.8557
    3.330    6.3718
    3.345    5.8768
    3.360    6.2138
    3.375    6.1190
    3.390    6.3612
    3.405    6.0664
    3.420    5.8662
    3.435    5.8768
    3.450    5.9294
    3.465    6.1506
    3.480    5.7609
    3.495    5.6872
    3.510    5.8452
    3.525    5.8768
    3.540    5.9189
    3.555    6.2454
    3.570    6.0348
    3.585    5.8662
    3.600    5.7609
    3.615    5.8136
    3.630    5.8662
    3.645    5.5714
    3.660    6.3928
    3.675    6.3718
    3.690    5.7820
    3.705    5.4976
    3.720    5.9294
    3.735    6.0769
    3.750    5.8031
    3.765    5.5819
    3.780    5.7820
    3.795    6.0137
    3.810    6.0453
    3.825    5.6872
    3.840    5.6556
    3.855    5.6240
    3.870    5.9926
    3.885    6.2033
    3.900    5.8873
    3.915    5.4976
    3.930    5.8136
    3.945    5.8873
    3.960    5.8662
    3.975    5.7188
    3.990    6.2349
    4.005    6.0348
    4.020    5.5187
    4.035    5.9505
    4.050    6.0453
    4.065    5.9505
    4.080    5.7399
    4.095    5.6029
    4.110    5.4976
    4.125    5.4134
    4.140    5.6345
    4.155    5.9926
    4.170    5.9189
    4.185    5.2870
    4.200    5.5187
    4.215    5.4450
    4.230    5.4871
    4.245    5.9189
    4.260    5.9926
    4.275    5.7820
    4.290    5.5503
    4.305    5.5187
    4.320    5.4450
    4.335    5.6977
    4.350    5.5187
    4.365    5.6451
    4.380    5.4976
    4.395    5.6767
    4.410    5.5503
    4.425    5.5292
    4.440    5.4976
    4.455    5.7820
    4.470    5.6451
    4.485    5.4134
    4.500    5.4766
    4.515    5.6872
    4.530    5.6451
    4.545    5.4450
    4.560    5.5398
    4.575    5.5503
    4.590    5.6029
    4.605    5.7188
    4.620    5.7188
    4.635    5.6977
    4.650    5.7083
    4.665    5.8347
    4.680    5.3923
    4.695    5.5819
    4.710    5.6872
    4.725    5.5608
    4.740    5.6451
    4.755    5.3712
    4.770    5.6872
    4.785    5.5187
    4.800    5.3923
    4.815    5.6240
    4.830    5.5608
    4.845    5.8347
    4.860    5.6977
    4.875    5.5924
    4.890    5.7504
    4.905    5.5187
    4.920    5.4976
    4.935    5.3186
    4.950    5.4555
    4.965    5.4871
    4.980    5.1290
    4.995    5.5398
    5.010    5.3291
    5.025    5.5714
    5.040    5.3502
    5.055    5.5714
    5.070    5.3081
    5.085    5.5608
    5.100    5.5187
    5.115    4.9394
    5.130    5.4028
    5.145    5.3818
    5.160    5.4134
    5.175    5.3712
    5.190    5.5398
    5.205    5.3186
    5.220    5.4766
    5.235    5.2238
    5.250    5.4976
    5.265    5.4344
    5.280    5.1711
    5.295    5.2975
    5.310    5.4871
    5.325    5.4450
    5.340    5.2554
    5.355    5.5187
    5.370    5.7820
    5.385    5.7504
    5.400    5.5608
    5.415    5.5292
    5.430    5.4239
    5.445    5.4766
    5.460    5.4766
    5.475    5.6767
    5.490    5.6767
    5.505    5.4766
    5.520    5.3502
    5.535    5.3291
    5.550    5.2133
    5.565    5.2133
    5.580    5.4028
    5.595    5.6872
    5.610    5.2975
    5.625    5.4134
    5.640    5.6872
    5.655    5.5503
    5.670    5.1711
    5.685    5.3607
    5.700    5.3081
    5.715    5.2765
    5.730    5.2765
    5.745    5.3607
    5.760    5.1501
    5.775    5.3923
    5.790    5.1395
    5.805    5.3712
    5.820    5.3712
    5.835    5.3607
    5.850    5.3081
    5.865    5.0764
    5.880    5.4660
    5.895    5.5082
    5.910    5.3186
    5.925    5.2870
    5.940    5.4239
    5.955    5.3186
    5.970    5.3923
    5.985    5.3502
    6.000    5.3186
    6.015    5.6240
    6.030    5.8136
    6.045    5.2975
    6.060    5.4344
    6.075    5.1501
    6.090    5.0132
    6.105    5.3818
    6.120    5.1922
    6.135    5.0974
    6.150    5.4239
    6.165    5.3502
    6.180    5.8136
    6.195    5.5924
    6.210    5.5187
    6.225    5.5924
    6.240    5.3607
    6.255    5.3712
    6.270    5.5608
    6.285    5.4555
    6.300    5.2133
    6.315    5.2765
    6.330    5.4344
    6.345    5.2554
    6.360    5.5398
    6.375    5.4028
    6.390    5.5292
    6.405    5.3291
    6.420    5.4976
    6.435    5.5924
    6.450    5.1817
    6.465    5.5082
    6.480    5.3607
    6.495    5.6345
    6.510    5.4028
    6.525    5.3186
    6.540    5.7083
    6.555    5.5924
    6.570    5.3712
    6.585    5.3818
    6.600    5.3923
    6.615    5.3818
    6.630    5.2449
    6.645    5.0764
    6.660    5.4871
    6.675    5.2975
    6.690    5.6767
    6.705    5.0553
    6.720    5.4028
    6.735    5.4976
    6.750    5.7188
    6.765    5.5924
    6.780    5.6451
    6.795    5.6240
    6.810    5.4239
    6.825    5.3923
    6.840    5.4028
    6.855    5.3818
    6.870    5.6135
    6.885    5.3397
    6.900    5.4028
    6.915    5.3502
    6.930    5.3397
    6.945    5.3923
    6.960    5.7083
    6.975    5.9084
    6.990    5.4028
    7.005    5.5608
    7.020    5.6556
    7.035    5.6556
    7.050    5.7504
    7.065    5.4555
    7.080    5.5082
    7.095    5.3081
    7.110    5.4976
    7.125    5.4660
    7.140    5.5924
    7.155    5.6240
    7.170    5.5819
    7.185    5.6345
    7.200    5.2554
    7.215    5.2554
    7.230    5.4766
    7.245    5.2765
    7.260    5.1922
    7.275    5.6556
    7.290    5.4766
    7.305    5.6767
    7.320    5.4239
    7.335    5.3081
    7.350    5.8662
    7.365    5.5819
    7.380    5.6556
    7.395    5.6240
    7.410    5.5187
    7.425    5.7504
    7.440    5.6977
    7.455    5.5292
    7.470    5.6556
    7.485    5.6135
    7.500    5.7925
    7.515    5.5608
    7.530    5.6345
    7.545    5.5819
    7.560    5.8241
    7.575    5.8978
    7.590    5.4450
    7.605    5.8557
    7.620    5.8347
    7.635    5.4239
    7.650    5.6451
    7.665    5.4344
    7.680    5.7925
    7.695    5.7399
    7.710    5.5187
    7.725    5.7188
    7.740    5.8662
    7.755    5.7399
    7.770    5.7083
    7.785    5.8557
    7.800    6.0664
    7.815    5.4555
    7.830    6.0137
    7.845    5.5714
    7.860    5.5187
    7.875    5.9189
    7.890    5.8136
    7.905    5.4239
    7.920    5.6029
    7.935    5.8136
    7.950    5.4871
    7.965    5.7399
    7.980    5.8347
    7.995    5.6451
    8.010    5.6872
    8.025    5.6451
    8.040    5.3923
    8.055    5.5714
    8.070    5.6240
    8.085    5.9400
    8.100    5.2870
    8.115    5.5398
    8.130    5.6661
    8.145    5.8768
    8.160    5.8978
    8.175    6.1611
    8.190    5.7715
    8.205    6.0348
    8.220    5.7925
    8.235    5.6345
    8.250    5.9821
    8.265    5.9926
    8.280    6.2033
    8.295    5.9400
    8.310    5.7715
    8.325    5.5819
    8.340    5.3081
    8.355    5.8031
    8.370    5.6135
    8.385    5.5608
    8.400    5.5082
    8.415    5.6872
    8.430    5.5924
    8.445    5.9716
    8.460    5.9505
    8.475    5.9189
    8.490    6.0769
    8.505    5.7820
    8.520    5.8978
    8.535    5.7715
    8.550    5.6345
    8.565    6.2033
    8.580    5.9716
    8.595    5.8347
    8.610    6.1717
    8.625    6.0137
    8.640    5.2975
    8.655    5.8136
    8.670    6.2875
    8.685    6.1295
    8.700    5.9294
    8.715    6.2770
    8.730    6.0348
    8.745    5.8452
    8.760    5.9926
    8.775    6.0874
    8.790    6.4350
    8.805    5.9716
    8.820    6.1611
    8.835    5.9084
    8.850    6.1190
    8.865    6.3402
    8.880    5.7820
    8.895    6.0453
    8.910    6.1822
    8.925    5.5924
    8.940    5.9189
    8.955    5.8662
    8.970    6.0979
    8.985    6.0453
    9.000    6.0769
    9.015    5.8662
    9.030    5.5608
    9.045    5.9821
    9.060    6.2243
    9.075    6.1822
    9.090    5.6661
    9.105    6.2033
    9.120    5.8347
    9.135    5.8768
    9.150    5.8662
    9.165    6.1611
    9.180    6.1717
    9.195    6.4771
    9.210    6.1822
    9.225    5.9505
    9.240    6.4350
    9.255    5.7715
    9.270    5.9821
    9.285    6.0874
    9.300    6.3612
    9.315    6.2349
    9.330    6.2665
    9.345    6.4244
    9.360    5.9821
    9.375    6.3928
    9.390    6.5719
    9.405    6.2665
    9.420    5.9926
    9.435    6.1295
    9.450    5.9084
    9.465    6.2138
    9.480    6.0769
    9.495    6.2454
    9.510    6.4139
    9.525    6.6561
    9.540    6.3823
    9.555    6.2349
    9.570    6.3086
    9.585    6.6351
    9.600    6.1295
    9.615    6.2875
    9.630    6.2243
    9.645    5.9294
    9.660    6.1717
    9.675    6.4139
    9.690    6.1822
    9.705    6.3928
    9.720    6.2349
    9.735    6.4982
    9.750    6.2138
    9.765    6.6561
    9.780    6.1717
    9.795    6.3507
    9.810    6.1506
    9.825    6.1822
    9.840    6.3718
    9.855    5.9821
    9.870    6.0453
    9.885    6.2349
    9.900    6.3928
    9.915    6.2981
    9.930    6.3507
    9.945    6.4244
    9.960    6.2033
    9.975    6.4455
    9.990    6.4876
   10.005    6.5192
   10.020    6.1190
   10.035    5.9084
   10.050    5.9610
   10.065    6.3612
   10.080    6.4139
   10.095    6.0874
   10.110    6.4560
   10.125    6.5087
   10.140    6.1190
   10.155    6.4666
   10.170    6.4876
   10.185    6.2138
   10.200    6.1190
   10.215    6.2981
   10.230    6.1927
   10.245    6.2243
   10.260    6.4244
   10.275    6.4455
   10.290    6.5508
   10.305    6.3928
   10.320    6.4034
   10.335    5.8662
   10.350    6.2559
   10.365    6.6035
   10.380    6.4139
   10.395    6.3823
   10.410    6.1822
   10.425    6.1611
   10.440    6.2981
   10.455    6.4350
   10.470    6.2349
   10.485    6.2665
   10.500    6.0453
   10.515    6.2243
   10.530    6.2559
   10.545    5.9505
   10.560    6.1927
   10.575    6.4350
   10.590    6.7509
   10.605    6.2349
   10.620    6.1822
   10.635    6.0348
   10.650    6.4876
   10.665    6.5087
   10.680    6.4244
   10.695    6.3718
   10.710    6.4350
   10.725    6.0664
   10.740    5.7293
   10.755    6.1190
   10.770    6.2243
   10.785    6.4982
   10.800    6.5613
   10.815    6.2665
   10.830    6.1717
   10.845    6.2665
   10.860    6.2243
   10.875    5.8873
   10.890    5.8768
   10.905    5.8136
   10.920    6.1190
   10.935    6.2243
   10.950    6.2454
   10.965    6.3402
   10.980    5.7925
   10.995    5.9189
   11.010    6.2243
   11.025    6.4350
   11.040    6.4350
   11.055    6.2349
   11.070    5.8768
   11.085    5.9400
   11.100    6.0453
   11.115    6.0348
   11.130    6.0348
   11.145    6.0348
   11.160    6.1611
   11.175    5.8031
   11.190    5.6556
   11.205    6.0348
   11.220    6.0453
   11.235    6.0348
   11.250    5.7609
   11.265    6.0874
   11.280    6.0979
   11.295    6.1927
   11.310    6.0979
   11.325    5.9821
   11.340    6.0348
   11.355    6.0242
   11.370    5.9084
   11.385    5.9084
   11.400    6.2665
   11.415    5.9716
   11.430    6.0769
   11.445    5.7293
   11.460    5.6661
   11.475    6.0453
   11.490    6.2138
   11.505    5.8136
   11.520    5.9610
   11.535    6.0874
   11.550    5.6556
   11.565    5.6767
   11.580    5.9084
   11.595    6.0979
   11.610    5.8768
   11.625    5.2133
   11.640    5.8452
   11.655    5.9610
   11.670    6.2033
   11.685    6.1506
   11.700    5.9821
   11.715    5.3923
   11.730    5.3607
   11.745    5.5082
   11.760    5.5608
   11.775    5.8031
   11.790    5.8031
   11.805    5.6661
   11.820    5.8978
   11.835    5.8136
   11.850    5.9716
   11.865    5.8136
   11.880    5.6135
   11.895    5.5924
   11.910    5.8031
   11.925    5.8241
   11.940    5.4766
   11.955    5.5819
   11.970    5.8452
   11.985    5.7188
   12.000    5.8136
   12.015    5.9084
   12.030    5.5608
   12.045    5.6661
   12.060    5.4555
   12.075    5.5503
   12.090    5.6240
   12.105    5.5503
   12.120    5.5082
   12.135    5.4134
   12.150    5.3818
   12.165    5.7609
   12.180    5.6661
   12.195    5.4239
   12.210    5.3712
   12.225    5.6556
   12.240    5.3502
   12.255    5.3186
   12.270    5.3081
   12.285    5.7293
   12.300    5.2027
   12.315    5.2449
   12.330    5.2975
   12.345    5.9084
   12.360    5.7609
   12.375    5.5819
   12.390    5.3923
   12.405    5.5082
   12.420    5.4976
   12.435    5.7820
   12.450    5.4450
   12.465    5.2133
   12.480    5.6977
   12.495    6.0558
   12.510    5.1817
   12.525    5.5503
   12.540    5.3607
   12.555    5.1290
   12.570    5.2554
   12.585    5.4871
   12.600    5.3291
   12.615    5.6451
   12.630    5.6767
   12.645    5.5292
   12.660    5.3186
   12.675    5.7820
   12.690    5.2238
   12.705    5.2343
   12.720    5.1290
   12.735    4.9710
   12.750    5.2133
   12.765    5.4134
   12.780    5.4660
   12.795    5.4976
   12.810    5.3397
   12.825    5.1922
   12.840    5.4344
   12.855    5.2659
   12.870    5.2975
   12.885    5.2238
   12.900    5.2238
   12.915    5.1185
   12.930    5.3712
   12.945    5.4871
   12.960    5.5187
   12.975    5.2765
   12.990    5.2765
   13.005    5.2238
   13.020    5.2449
   13.035    5.0448
   13.050    5.1290
   13.065    5.3502
   13.080    5.2659
   13.095    5.3081
   13.110    5.2238
   13.125    4.9078
   13.140    5.2870
   13.155    5.4344
   13.170    5.3397
   13.185    5.1080
   13.200    5.2659
   13.215    5.2449
   13.230    5.4766
   13.245    5.5503
   13.260    5.3607
   13.275    5.0764
   13.290    5.1185
   13.305    5.2870
   13.320    5.3291
   13.335    5.3081
   13.350    5.2027
   13.365    5.0342
   13.380    5.2449
   13.395    5.2870
   13.410    5.1711
   13.425    5.4976
   13.440    5.0974
   13.455    5.4450
   13.470    4.9289
   13.485    4.9500
   13.500    5.2659
   13.515    5.1290
   13.530    5.0448
   13.545    5.3291
   13.560    5.2449
   13.575    5.1606
   13.590    5.1185
   13.605    5.5187
   13.620    5.3291
   13.635    5.0553
   13.650    4.8657
   13.665    5.1290
   13.680    4.9605
   13.695    5.1501
   13.710    5.1817
   13.725    5.0553
   13.740    4.9816
   13.755    4.9921
   13.770    5.0448
   13.785    5.0974
   13.800    5.3186
   13.815    5.2449
   13.830    5.2343
   13.845    5.2765
   13.860    5.4555
   13.875    5.3291
   13.890    5.2975
   13.905    5.0237
   13.920    4.9289
   13.935    5.2449
   13.950    5.3712
   13.965    5.2133
   13.980    5.1080
   13.995    5.1080
   14.010    5.4239
   14.025    5.3186
   14.040    5.3291
   14.055    5.0974
   14.070    4.8868
   14.085    5.2027
   14.100    5.1395
   14.115    5.0448
   14.130    5.3712
   14.145    5.0974
   14.160    5.1290
   14.175    4.9500
   14.190    5.0448
   14.205    5.4239
   14.220    4.8973
   14.235    5.0132
   14.250    5.3291
   14.265    5.1711
   14.280    5.1922
   14.295    4.9921
   14.310    5.3397
   14.325    5.0764
   14.340    5.2027
   14.355    5.0658
   14.370    5.1290
   14.385    5.0448
   14.400    5.2027
   14.415    5.1185
   14.430    5.1080
   14.445    5.0237
   14.460    5.3502
   14.475    5.1817
   14.490    5.1817
   14.505    5.2659
   14.520    4.7393
   14.535    5.2870
   14.550    5.2449
   14.565    5.0974
   14.580    4.9816
   14.595    5.2027
   14.610    4.9605
   14.625    5.0869
   14.640    5.0869
   14.655    5.3186
   14.670    5.1290
   14.685    5.2343
   14.700    4.4971
   14.715    5.2554
   14.730    5.0237
   14.745    4.8552
   14.760    5.3291
   14.775    5.2765
   14.790    5.1817
   14.805    5.0553
   14.820    5.4134
   14.835    5.2449
   14.850    5.3607
   14.865    4.9605
   14.880    4.8131
   14.895    5.3818
   14.910    5.1395
   14.925    5.1606
   14.940    5.3923
   14.955    5.4344
   14.970    5.2343
   14.985    5.2133
   15.000    5.2133
   15.015    5.2238
   15.030    5.0448
   15.045    4.8973
   15.060    5.2133
   15.075    5.2133
   15.090    5.2870
   15.105    5.2343
   15.120    4.8973
   15.135    4.8657
   15.150    5.2554
   15.165    5.2027
   15.180    5.2343
   15.195    5.2343
   15.210    5.1185
   15.225    5.3186
   15.240    4.9078
   15.255    4.9394
   15.270    5.0869
   15.285    5.2870
   15.300    5.2238
   15.315    4.7393
   15.330    5.0974
   15.345    5.3607
   15.360    5.1290
   15.375    5.2343
   15.390    5.3712
   15.405    5.1922
   15.420    5.2870
   15.435    5.4555
   15.450    5.4871
   15.465    5.0342
   15.480    5.2659
   15.495    5.2133
   15.510    4.9500
   15.525    4.9710
   15.540    5.0132
   15.555    5.2238
   15.570    4.9500
   15.585    5.0974
   15.600    4.9289
   15.615    4.9921
   15.630    4.9816
   15.645    5.3291
   15.660    5.2238
   15.675    5.0764
   15.690    5.0764
   15.705    5.0342
   15.720    5.0237
   15.735    5.2238
   15.750    4.9710
   15.765    5.3186
   15.780    5.0974
   15.795    5.2554
   15.810    5.2343
   15.825    5.0132
   15.840    5.2659
   15.855    5.3186
   15.870    5.5187
   15.885    5.2238
   15.900    5.1501
   15.915    5.1922
   15.930    5.2027
   15.945    4.8341
   15.960    5.2659
   15.975    5.0553
   15.990    5.3712
   16.005    5.3607
   16.020    5.1185
   16.035    5.2238
   16.050    5.0658
   16.065    5.1606
   16.080    5.0974
   16.095    5.2975
   16.110    5.2133
   16.125    5.4450
   16.140    4.9500
   16.155    4.8552
   16.170    5.0237
   16.185    5.7504
   16.200    5.1711
   16.215    5.2133
   16.230    5.1185
   16.245    5.4660
   16.260    5.1922
   16.275    5.2659
   16.290    4.8131
   16.305    4.7920
   16.320    5.0869
   16.335    5.1922
   16.350    5.2765
   16.365    5.0237
   16.380    4.9605
   16.395    4.8236
   16.410    5.3712
   16.425    5.2449
   16.440    5.2554
   16.455    5.0764
   16.470    5.3186
   16.485    4.9710
   16.500    4.9394
   16.515    5.1185
   16.530    4.9816
   16.545    5.4871
   16.560    4.9605
   16.575    5.0342
   16.590    4.9710
   16.605    5.0237
   16.620    5.0974
   16.635    4.9921
   16.650    5.2554
   16.665    5.1606
   16.680    5.4239
   16.695    5.3291
   16.710    5.1290
   16.725    5.3291
   16.740    5.0132
   16.755    5.3923
   16.770    5.4660
   16.785    5.4239
   16.800    5.0869
   16.815    4.9921
   16.830    5.0974
   16.845    5.0132
   16.860    5.1185
   16.875    4.9921
   16.890    5.2554
   16.905    5.4555
   16.920    5.3291
   16.935    4.8868
   16.950    5.1606
   16.965    5.0132
   16.980    5.3397
   16.995    5.4976
   17.010    5.2343
   17.025    4.8447
   17.040    5.2027
   17.055    5.4976
   17.070    5.3607
   17.085    5.0342
   17.100    4.9184
   17.115    5.0026
   17.130    5.3081
   17.145    5.0658
   17.160    4.9078
   17.175    5.1080
   17.190    5.2870
   17.205    5.4028
   17.220    5.2765
   17.235    5.3291
   17.250    5.0132
   17.265    5.2027
   17.280    5.6977
   17.295    5.3186
   17.310    5.3081
   17.325    5.2238
   17.340    5.2027
   17.355    5.3818
   17.370    5.2975
   17.385    5.0026
   17.400    4.8447
   17.415    5.3397
   17.430    5.0764
   17.445    5.2765
   17.460    5.3186
   17.475    4.7815
   17.490    5.3291
   17.505    5.4239
   17.520    5.0237
   17.535    5.3923
   17.550    5.0658
   17.565    5.2238
   17.580    5.3607
   17.595    5.1290
   17.610    5.1817
   17.625    5.1922
   17.640    5.1185
   17.655    4.8973
   17.670    5.5082
   17.685    5.2027
   17.700    5.2133
   17.715    5.3923
   17.730    5.4871
   17.745    5.1922
   17.760    5.4871
   17.775    5.4976
   17.790    5.0764
   17.805    5.1501
   17.820    5.0658
   17.835    4.8868
   17.850    5.0448
   17.865    5.0869
   17.880    4.9500
   17.895    5.4766
   17.910    5.4239
   17.925    5.5924
   17.940    5.3081
   17.955    5.2554
   17.970    5.5398
   17.985    5.1922
   18.000    5.1606
   18.015    5.0974
   18.030    5.0448
   18.045    5.1395
   18.060    5.1606
   18.075    4.9500
   18.090    5.1606
   18.105    5.0026
   18.120    5.0658
   18.135    4.9921
   18.150    5.0553
   18.165    5.6767
   18.180    5.6345
   18.195    5.1817
   18.210    5.3923
   18.225    5.2343
   18.240    4.9710
   18.255    5.0869
   18.270    5.0658
   18.285    5.3818
   18.300    5.1606
   18.315    5.3923
   18.330    5.2975
   18.345    5.2238
   18.360    5.4450
   18.375    5.3712
   18.390    5.2133
   18.405    5.2133
   18.420    5.2343
   18.435    5.2027
   18.450    5.2975
   18.465    4.8657
   18.480    4.9605
   18.495    5.2027
   18.510    5.1606
   18.525    5.3712
   18.540    5.1501
   18.555    5.2133
   18.570    5.2343
   18.585    5.1080
   18.600    5.2027
   18.615    5.3397
   18.630    5.1711
   18.645    5.1922
   18.660    5.4766
   18.675    5.3607
   18.690    4.9500
   18.705    4.9078
   18.720    5.3291
   18.735    5.1606
   18.750    5.0764
   18.765    5.3291
   18.780    5.0132
   18.795    4.9184
   18.810    5.0132
   18.825    5.3397
   18.840    5.3607
   18.855    4.9816
   18.870    5.0974
   18.885    5.4239
   18.900    5.3186
   18.915    5.1711
   18.930    5.0448
   18.945    5.3291
   18.960    5.1290
   18.975    5.7293
   18.990    5.5819
   19.005    5.4871
   19.020    5.1817
   19.035    5.1290
   19.050    5.4660
   19.065    5.2870
   19.080    5.2027
   19.095    5.1711
   19.110    5.2765
   19.125    5.1606
   19.140    5.1922
   19.155    5.2449
   19.170    5.1290
   19.185    5.0448
   19.200    4.9500
   19.215    4.9289
   19.230    5.1922
   19.245    5.0869
   19.260    4.8025
   19.275    4.7709
   19.290    5.4028
   19.305    5.4028
   19.320    5.4134
   19.335    4.9605
   19.350    5.6661
   19.365    5.3186
   19.380    5.3712
   19.395    5.5398
   19.410    5.3186
   19.425    5.6345
   19.440    5.7609
   19.455    5.5608
   19.470    5.4028
   19.485    5.3081
   19.500    5.3081
   19.515    5.5292
   19.530    5.3291
   19.545    5.1501
   19.560    5.1501
   19.575    5.0237
   19.590    5.1711
   19.605    5.7083
   19.620    5.9294
   19.635    5.6135
   19.650    5.2659
   19.665    5.3397
   19.680    5.0869
   19.695    5.0869
   19.710    5.0448
   19.725    5.1395
   19.740    5.4555
   19.755    5.4239
   19.770    5.3923
   19.785    5.4134
   19.800    5.0553
   19.815    5.2449
   19.830    5.6135
   19.845    5.4450
   19.860    5.6977
   19.875    5.5714
   19.890    5.3712
   19.905    5.5082
   19.920    5.3186
   19.935    5.3502
   19.950    5.3081
   19.965    5.7609
   19.980    5.5398
   19.995    5.4239
   20.010    5.2870
   20.025    5.3081
   20.040    5.0342
   20.055    5.4450
   20.070    5.4134
   20.085    5.5714
   20.100    5.3923
   20.115    5.4555
   20.130    5.1711
   20.145    5.4344
   20.160    5.5082
   20.175    5.2870
   20.190    5.3291
   20.205    5.5819
   20.220    5.3712
   20.235    5.1817
   20.250    5.3502
   20.265    5.4450
   20.280    5.5187
   20.295    5.4660
   20.310    5.5819
   20.325    5.2659
   20.340    5.2765
   20.355    5.0764
   20.370    5.3818
   20.385    5.2449
   20.400    5.4028
   20.415    5.8768
   20.430    5.5398
   20.445    5.5714
   20.460    5.5819
   20.475    5.4766
   20.490    5.1711
   20.505    5.4450
   20.520    5.5082
   20.535    5.1711
   20.550    5.5187
   20.565    5.5924
   20.580    5.4028
   20.595    5.5187
   20.610    5.4871
   20.625    5.4555
   20.640    5.3712
   20.655    5.4028
   20.670    5.4555
   20.685    5.1185
   20.700    5.5819
   20.715    5.6872
   20.730    5.8136
   20.745    5.5608
   20.760    5.3923
   20.775    5.5187
   20.790    5.5398
   20.805    5.7504
   20.820    5.4976
   20.835    5.5292
   20.850    5.2870
   20.865    5.4976
   20.880    5.6661
   20.895    5.7293
   20.910    5.2975
   20.925    5.3081
   20.940    5.6661
   20.955    5.3502
   20.970    5.4555
   20.985    5.3081
   21.000    5.3607
   21.015    5.4450
   21.030    5.5608
   21.045    5.8031
   21.060    5.2133
   21.075    5.6135
   21.090    6.0242
   21.105    5.3502
   21.120    5.7609
   21.135    5.6767
   21.150    5.3923
   21.165    5.3081
   21.180    5.4239
   21.195    5.4660
   21.210    5.0869
   21.225    5.5292
   21.240    5.3923
   21.255    5.2975
   21.270    5.5082
   21.285    5.2027
   21.300    5.5398
   21.315    5.5714
   21.330    5.5082
   21.345    5.8136
   21.360    5.7293
   21.375    5.6977
   21.390    5.4344
   21.405    5.0869
   21.420    5.4976
   21.435    5.4871
   21.450    5.4766
   21.465    5.6135
   21.480    5.7715
   21.495    5.6767
   21.510    5.6345
   21.525    5.7504
   21.540    5.1501
   21.555    5.6872
   21.570    5.5187
   21.585    5.6767
   21.600    5.5714
   21.615    5.4976
   21.630    5.6556
   21.645    5.2975
   21.660    5.3502
   21.675    5.3291
   21.690    5.5608
   21.705    5.6661
   21.720    5.5714
   21.735    5.3923
   21.750    5.4028
   21.765    5.6767
   21.780    5.6767
   21.795    5.5398
   21.810    5.5819
   21.825    5.6240
   21.840    5.5503
   21.855    5.4976
   21.870    5.6135
   21.885    5.6345
   21.900    5.8768
   21.915    5.8452
   21.930    5.5187
   21.945    5.6135
   21.960    5.5924
   21.975    5.8347
   21.990    5.7504
   22.005    5.5292
   22.020    5.6977
   22.035    5.5292
   22.050    5.2870
   22.065    5.6556
   22.080    5.5819
   22.095    5.5292
   22.110    6.0348
   22.125    5.6767
   22.140    5.4976
   22.155    5.0342
   22.170    5.1290
   22.185    5.7188
   22.200    5.4450
   22.215    5.3397
   22.230    5.7399
   22.245    5.9294
   22.260    5.5503
   22.275    6.0453
   22.290    5.8873
   22.305    5.4871
   22.320    6.0242
   22.335    5.6767
   22.350    5.3818
   22.365    5.2870
   22.380    5.4344
   22.395    5.3291
   22.410    5.4660
   22.425    5.5819
   22.440    5.7399
   22.455    5.4344
   22.470    5.4134
   22.485    5.9505
   22.500    5.5292
   22.515    5.9084
   22.530    5.6977
   22.545    5.8557
   22.560    5.7504
   22.575    5.7925
   22.590    5.4239
   22.605    5.3712
   22.620    5.4660
   22.635    5.6977
   22.650    5.6556
   22.665    5.8978
   22.680    5.7293
   22.695    5.2343
   22.710    5.4660
   22.725    5.2133
   22.740    5.6029
   22.755    5.8768
   22.770    5.9189
   22.785    5.7188
   22.800    5.6345
   22.815    5.4134
   22.830    5.6135
   22.845    5.8136
   22.860    5.9610
   22.875    5.8452
   22.890    5.5924
   22.905    5.8452
   22.920    5.9505
   22.935    5.3397
   22.950    5.6451
   22.965    5.7504
   22.980    5.6135
   22.995    5.4344
   23.010    5.4976
   23.025    5.8031
   23.040    5.6029
   23.055    5.6240
   23.070    5.2659
   23.085    5.3397
   23.100    5.7293
   23.115    5.3502
   23.130    5.5819
   23.145    5.7083
   23.160    5.5608
   23.175    5.5819
   23.190    5.6872
   23.205    5.4344
   23.220    5.2765
   23.235    5.3081
   23.250    5.3607
   23.265    5.0764
   23.280    5.5292
   23.295    5.3818
   23.310    5.7504
   23.325    5.7820
   23.340    5.6661
   23.355    5.5398
   23.370    5.5187
   23.385    5.9084
   23.400    5.5714
   23.415    5.2343
   23.430    5.5503
   23.445    5.6240
   23.460    5.3818
   23.475    5.6345
   23.490    5.6451
   23.505    5.6556
   23.520    5.4028
   23.535    5.8241
   23.550    5.5714
   23.565    5.5398
   23.580    5.6135
   23.595    5.6029
   23.610    5.5924
   23.625    5.7820
   23.640    5.2133
   23.655    5.5819
   23.670    5.7083
   23.685    5.8873
   23.700    5.4871
   23.715    5.3186
   23.730    5.1290
   23.745    5.4450
   23.760    5.2343
   23.775    5.5819
   23.790    5.5292
   23.805    5.1817
   23.820    5.6872
   23.835    6.0032
   23.850    5.5503
   23.865    5.3291
   23.880    5.2133
   23.895    5.8452
   23.910    5.4028
   23.925    5.2870
   23.940    5.6556
   23.955    5.5398
   23.970    5.3923
   23.985    5.5082
   24.000    5.5924
   24.015    5.3291
   24.030    5.1711
   24.045    5.3081
   24.060    5.3818
   24.075    5.3818
   24.090    5.6135
   24.105    5.6345
   24.120    5.3502
   24.135    5.5608
   24.150    5.6135
   24.165    5.8452
   24.180    5.5714
   24.195    5.3818
   24.210    5.5819
   24.225    5.5187
   24.240    5.3818
   24.255    5.9610
   24.270    5.4766
   24.285    5.3607
   24.300    5.2027
   24.315    5.4344
   24.330    5.6029
   24.345    5.8978
   24.360    5.7609
   24.375    5.3186
   24.390    5.3291
   24.405    5.4344
   24.420    5.4344
   24.435    6.2033
   24.450    5.3818
   24.465    5.5398
   24.480    5.3502
   24.495    5.5398
   24.510    5.6135
   24.525    5.4239
   24.540    5.1080
   24.555    5.0974
   24.570    5.5398
   24.585    5.3186
   24.600    5.2765
   24.615    5.1606
   24.630    5.5082
   24.645    5.3607
   24.660    5.2554
   24.675    5.1290
   24.690    5.2133
   24.705    5.6135
   24.720    5.4239
   24.735    5.5503
   24.750    5.3607
   24.765    5.1711
   24.780    5.7083
   24.795    5.7188
   24.810    5.2343
   24.825    5.2554
   24.840    4.9289
   24.855    5.4555
   24.870    5.4660
   24.885    5.3186
   24.900    5.3712
   24.915    5.3291
   24.930    5.2870
   24.945    5.4028
   24.960    5.2133
   24.975    5.4344
   24.990    5.3818
   25.005    5.3397
   25.020    5.5924
   25.035    5.4239
   25.050    5.6345
   25.065    5.4028
   25.080    5.3923
   25.095    5.2238
   25.110    5.4134
   25.125    5.5924
   25.140    5.4976
   25.155    5.4028
   25.170    5.4871
   25.185    5.2554
   25.200    5.0764
   25.215    5.1922
   25.230    4.7604
   25.245    5.0237
   25.260    5.2554
   25.275    4.6867
   25.290    5.1711
   25.305    5.0026
   25.320    5.3818
   25.335    5.6451
   25.350    6.1927
   25.365    5.7188
   25.380    5.4134
   25.395    5.3186
   25.410    5.1606
   25.425    5.1922
   25.440    5.2975
   25.455    5.3818
   25.470    5.4766
   25.485    5.3081
   25.500    5.4239
   25.515    5.4555
   25.530    5.4976
   25.545    5.5819
   25.560    5.2870
   25.575    5.1501
   25.590    5.0132
   25.605    5.2554
   25.620    5.3818
   25.635    5.5398
   25.650    5.6135
   25.665    5.1501
   25.680    5.0658
   25.695    5.3502
   25.710    5.2870
   25.725    5.3397
   25.740    5.2449
   25.755    5.2659
   25.770    5.0764
   25.785    5.1711
   25.800    5.5608
   25.815    5.2554
   25.830    5.2554
   25.845    5.1606
   25.860    5.1395
   25.875    5.2343
   25.890    5.4028
   25.905    5.3502
   25.920    5.4871
   25.935    5.2449
   25.950    5.1290
   25.965    5.3818
   25.980    5.1606
   25.995    5.4134
   26.010    5.1290
   26.025    4.9710
   26.040    4.9289
   26.055    5.2027
   26.070    5.2238
   26.085    5.2449
   26.100    5.0026
   26.115    5.0974
   26.130    5.2238
   26.145    5.1080
   26.160    5.1711
   26.175    5.0132
   26.190    5.2975
   26.205    5.4344
   26.220    4.8763
   26.235    4.7815
   26.250    4.8025
   26.265    5.4344
   26.280    5.4344
   26.295    5.2238
   26.310    5.3397
   26.325    5.3923
   26.340    5.3712
   26.355    5.2975
   26.370    5.0658
   26.385    4.9816
   26.400    5.4450
   26.415    5.1922
   26.430    5.3818
   26.445    5.3923
   26.460    5.5608
   26.475    5.1185
   26.490    5.3712
   26.505    5.4344
   26.520    5.2343
   26.535    5.3712
   26.550    5.1922
   26.565    4.9816
   26.580    4.9710
   26.595    4.6130
   26.610    4.9078
   26.625    5.2554
   26.640    5.1606
   26.655    5.0974
   26.670    5.1290
   26.685    5.0869
   26.700    5.0237
   26.715    5.2238
   26.730    4.9500
   26.745    4.8657
   26.760    5.0553
   26.775    4.8236
   26.790    5.1501
   26.805    5.2343
   26.820    5.1501
   26.835    5.1922
   26.850    5.0237
   26.865    4.7499
   26.880    4.7499
   26.895    5.0764
   26.910    4.8657
   26.925    4.9078
   26.940    5.3186
   26.955    5.2554
   26.970    5.1922
   26.985    5.0974
   27.000    5.1080
   27.015    5.0132
   27.030    4.7815
   27.045    4.8868
   27.060    5.1606
   27.075    5.2449
   27.090    5.2765
   27.105    5.3291
   27.120    5.0448
   27.135    4.9921
   27.150    5.3397
   27.165    5.2554
   27.180    5.2659
   27.195    5.0342
   27.210    5.2554
   27.225    5.0132
   27.240    5.0974
   27.255    4.8763
   27.270    5.2133
   27.285    5.0237
   27.300    5.0974
   27.315    5.0658
   27.330    5.3818
   27.345    5.2343
   27.360    4.9816
   27.375    5.1922
   27.390    4.8447
   27.405    5.2659
   27.420    5.1501
   27.435    5.0026
   27.450    4.9710
   27.465    5.0237
   27.480    4.9289
   27.495    5.0026
   27.510    4.9500
   27.525    4.8657
   27.540    4.8131
   27.555    4.7920
   27.570    5.2554
   27.585    5.2870
   27.600    5.1711
   27.615    5.4766
   27.630    5.0974
   27.645    5.0237
   27.660    4.8552
   27.675    4.8763
   27.690    5.0237
   27.705    4.6130
   27.720    4.8657
   27.735    5.0342
   27.750    4.9500
   27.765    5.2133
   27.780    5.0237
   27.795    4.8341
   27.810    4.8657
   27.825    4.9078
   27.840    4.9500
   27.855    5.0132
   27.870    5.0132
   27.885    5.0237
   27.900    5.1395
   27.915    4.9710
   27.930    5.0764
   27.945    4.8552
   27.960    4.5498
   27.975    4.8341
   27.990    4.6972
   28.005    4.8763
   28.020    4.7183
   28.035    4.8131
   28.050    4.8025
   28.065    4.8657
   28.080    4.9184
   28.095    5.1501
   28.110    4.8763
   28.125    4.9394
   28.140    4.8657
   28.155    5.1711
   28.170    5.1395
   28.185    5.0448
   28.200    4.8763
   28.215    4.9184
   28.230    4.5498
   28.245    4.8025
   28.260    4.8973
   28.275    4.9605
   28.290    4.8447
   28.305    4.9394
   28.320    4.8552
   28.335    4.7604
   28.350    5.0658
   28.365    4.8552
   28.380    5.0764
   28.395    5.3081
   28.410    4.8657
   28.425    4.8868
   28.440    4.9500
   28.455    4.8236
   28.470    5.0869
   28.485    5.1290
   28.500    4.6867
   28.515    4.9921
   28.530    5.1290
   28.545    4.7183
   28.560    4.6340
   28.575    4.7499
   28.590    4.9710
   28.605    5.0132
   28.620    5.3818
   28.635    4.6024
   28.650    4.9605
   28.665    4.7499
   28.680    4.8447
   28.695    4.4760
   28.710    4.8657
   28.725    4.4234
   28.740    4.4866
   28.755    4.8763
   28.770    4.6340
   28.785    4.8131
   28.800    4.5392
   28.815    4.4550
   28.830    4.8025
   28.845    4.5708
   28.860    4.5076
   28.875    4.7815
   28.890    4.8868
   28.905    4.5919
   28.920    4.2970
   28.935    4.4760
   28.950    4.5182
   28.965    4.9710
   28.980    4.7604
   28.995    4.5392
   29.010    4.5603
   29.025    4.3181
   29.040    5.1501
   29.055    5.0658
   29.070    4.6235
   29.085    5.2449
   29.100    4.8236
   29.115    4.4971
   29.130    5.0342
   29.145    4.9921
   29.160    4.7815
   29.175    4.9605
   29.190    4.7077
   29.205    4.9394
   29.220    4.3918
   29.235    4.5182
   29.250    4.6656
   29.265    4.3813
   29.280    4.1811
   29.295    4.3602
   29.310    4.2970
   29.325    4.5919
   29.340    4.7393
   29.355    4.6024
   29.370    4.7077
   29.385    4.8341
   29.400    4.5287
   29.415    4.8341
   29.430    4.8341
   29.445    4.5919
   29.460    4.9921
   29.475    4.7077
   29.490    4.4234
   29.505    4.6130
   29.520    5.1185
   29.535    4.6445
   29.550    4.6024
   29.565    4.9184
   29.580    4.6551
   29.595    4.3075
   29.610    4.5919
   29.625    5.0448
   29.640    4.7499
   29.655    4.8025
   29.670    4.5814
   29.685    4.6551
   29.700    4.5603
   29.715    4.5498
   29.730    4.7920
   29.745    5.1185
   29.760    4.6867
   29.775    4.5498
   29.790    4.4866
   29.805    4.6656
   29.820    4.8025
   29.835    4.7499
   29.850    4.7604
   29.865    4.6867
   29.880    4.5919
   29.895    4.9289
   29.910    4.5919
   29.925    4.6024
   29.940    4.4128
   29.955    4.5919
   29.970    4.7393
   29.985    4.8236
   30.000    4.6445
   30.015    4.3286
   30.030    4.3497
   30.045    4.2759
   30.060    4.3391
   30.075    4.4550
   30.090    4.6867
   30.105    4.5287
   30.120    4.6235
   30.135    4.6867
   30.150    4.4971
   30.165    4.3813
   30.180    4.5287
   30.195    4.2654
   30.210    4.3181
   30.225    4.4971
   30.240    4.7499
   30.255    4.3181
   30.270    4.3181
   30.285    4.3286
   30.300    4.6867
   30.315    4.4971
   30.330    4.3813
   30.345    4.6551
   30.360    4.6867
   30.375    4.7183
   30.390    4.3813
   30.405    4.2759
   30.420    4.5287
   30.435    4.3286
   30.450    4.0969
   30.465    4.4760
   30.480    4.7499
   30.495    4.4339
   30.510    4.4550
   30.525    4.4234
   30.540    4.2759
   30.555    4.4760
   30.570    4.5076
   30.585    4.3602
   30.600    4.5392
   30.615    4.2654
   30.630    4.4339
   30.645    4.4760
   30.660    4.2443
   30.675    4.4655
   30.690    4.7920
   30.705    4.4866
   30.720    4.6445
   30.735    4.2970
   30.750    4.4550
   30.765    4.5498
   30.780    4.5498
   30.795    4.3497
   30.810    4.5814
   30.825    4.2654
   30.840    4.4339
   30.855    4.2549
   30.870    4.6445
   30.885    4.1496
   30.900    4.0864
   30.915    4.2654
   30.930    4.3813
   30.945    4.4023
   30.960    4.2338
   30.975    4.4234
   30.990    4.5814
   31.005    4.3918
   31.020    4.5498
   31.035    4.4444
   31.050    4.4339
   31.065    4.4023
   31.080    4.2970
   31.095    4.2127
   31.110    4.6024
   31.125    4.4444
   31.140    4.1706
   31.155    4.8131
   31.170    4.5287
   31.185    4.5603
   31.200    4.4339
   31.215    4.2233
   31.230    4.5814
   31.245    4.5708
   31.260    4.2022
   31.275    4.2549
   31.290    4.3813
   31.305    4.3497
   31.320    4.4971
   31.335    4.3181
   31.350    4.4128
   31.365    4.6024
   31.380    4.4128
   31.395    4.2338
   31.410    4.4023
   31.425    4.3813
   31.440    4.2022
   31.455    4.2970
   31.470    4.4023
   31.485    4.2970
   31.500    4.1917
   31.515    4.5603
   31.530    4.7077
   31.545    4.6130
   31.560    4.4128
   31.575    4.6130
   31.590    4.2549
   31.605    4.1390
   31.620    4.1285
   31.635    4.1811
   31.650    4.3391
   31.665    4.4444
   31.680    4.1496
   31.695    4.0021
   31.710    4.5076
   31.725    4.4550
   31.740    4.2759
   31.755    4.4550
   31.770    4.0864
   31.785    4.4444
   31.800    4.2865
   31.815    4.0548
   31.830    4.0232
   31.845    4.2654
   31.860    4.3181
   31.875    4.0021
   31.890    4.4023
   31.905    4.4339
   31.920    4.4128
   31.935    4.0232
   31.950    4.0969
   31.965    4.4023
   31.980    4.0969
   31.995    4.2338
   32.010    4.3813
   32.025    4.2127
   32.040    4.2654
   32.055    4.2759
   32.070    4.0126
   32.085    4.0864
   32.100    4.3918
   32.115    4.5392
   32.130    4.2233
   32.145    4.3813
   32.160    4.5498
   32.175    4.2443
   32.190    4.2970
   32.205    4.0864
   32.220    4.2338
   32.235    4.1601
   32.250    4.4760
   32.265    4.2654
   32.280    4.3391
   32.295    4.5287
   32.310    4.0021
   32.325    3.8863
   32.340    4.2233
   32.355    4.4444
   32.370    4.3602
   32.385    4.0548
   32.400    4.2654
   32.415    4.2443
   32.430    4.0758
   32.445    3.8863
   32.460    3.9073
   32.475    4.3602
   32.490    4.1390
   32.505    4.2022
   32.520    4.5708
   32.535    4.1811
   32.550    4.2443
   32.565    3.9916
   32.580    4.1390
   32.595    4.3181
   32.610    4.4339
   32.625    4.0758
   32.640    4.1811
   32.655    4.1390
   32.670    4.2443
   32.685    4.2443
   32.700    4.1706
   32.715    4.1601
   32.730    4.2865
   32.745    4.1811
   32.760    4.2127
   32.775    4.0969
   32.790    3.9389
   32.805    4.0969
   32.820    4.3602
   32.835    4.2549
   32.850    4.1601
   32.865    4.0758
   32.880    4.2127
   32.895    4.0126
   32.910    4.0021
   32.925    3.9494
   32.940    3.8547
   32.955    4.2233
   32.970    4.2654
   32.985    3.9600
   33.000    4.2022
   33.015    4.0969
   33.030    4.0021
   33.045    4.1496
   33.060    4.0126
   33.075    3.8968
   33.090    3.8020
   33.105    3.8863
   33.120    3.9073
   33.135    4.0758
   33.150    3.8757
   33.165    3.9705
   33.180    4.0864
   33.195    4.0969
   33.210    4.0864
   33.225    4.0758
   33.240    3.9810
   33.255    3.7599
   33.270    3.9494
   33.285    3.9284
   33.300    3.7599
   33.315    4.2865
   33.330    4.1285
   33.345    4.0548
   33.360    3.8441
   33.375    4.3181
   33.390    4.1811
   33.405    4.3286
   33.420    4.0653
   33.435    3.9073
   33.450    3.8757
   33.465    4.3497
   33.480    3.9179
   33.495    4.1180
   33.510    3.9494
   33.525    4.1706
   33.540    3.9179
   33.555    4.2970
   33.570    4.2127
   33.585    4.3602
   33.600    4.2865
   33.615    4.0442
   33.630    3.8652
   33.645    3.9810
   33.660    3.9916
   33.675    4.0232
   33.690    4.1601
   33.705    4.3813
   33.720    3.8652
   33.735    3.8020
   33.750    3.7809
   33.765    4.1074
   33.780    4.3181
   33.795    3.9705
   33.810    4.0864
   33.825    4.0126
   33.840    3.8863
   33.855    4.3181
   33.870    3.8968
   33.885    4.0969
   33.900    4.1811
   33.915    3.9916
   33.930    3.7388
   33.945    3.8757
   33.960    3.6440
   33.975    3.8336
   33.990    4.0548
   34.005    3.8231
   34.020    4.2759
   34.035    3.8547
   34.050    4.2970
   34.065    4.1180
   34.080    4.1601
   34.095    4.0758
   34.110    3.8441
   34.125    3.9494
   34.140    3.9494
   34.155    3.8757
   34.170    4.1706
   34.185    3.9600
   34.200    3.6967
   34.215    4.1917
   34.230    3.7809
   34.245    3.6862
   34.260    3.8231
   34.275    3.7388
   34.290    3.7283
   34.305    4.0337
   34.320    3.8547
   34.335    3.6651
   34.350    3.9600
   34.365    3.9705
   34.380    4.0864
   34.395    4.0232
   34.410    3.9600
   34.425    3.7493
   34.440    4.0021
   34.455    4.0021
   34.470    3.9494
   34.485    4.0021
   34.500    3.7493
   34.515    3.7072
   34.530    3.8863
   34.545    3.6756
   34.560    3.9073
   34.575    3.9179
   34.590    3.9705
   34.605    3.8441
   34.620    3.5492
   34.635    3.9916
   34.650    3.9600
   34.665    3.9916
   34.680    3.8125
   34.695    3.9705
   34.710    3.8441
   34.725    3.7283
   34.740    3.9810
   34.755    4.0653
   34.770    3.8547
   34.785    3.9600
   34.800    3.9916
   34.815    3.7915
   34.830    3.5282
   34.845    3.8231
   34.860    3.9705
   34.875    3.9179
   34.890    3.8336
   34.905    3.7283
   34.920    4.0969
   34.935    4.0337
   34.950    3.7283
   34.965    3.6756
   34.980    4.0232
   34.995    4.1285
   35.010    3.9600
   35.025    3.7072
   35.040    4.0758
   35.055    3.9073
   35.070    3.7599
   35.085    3.9810
   35.100    4.0021
   35.115    3.8020
   35.130    3.7704
   35.145    3.7599
   35.160    3.6230
   35.175    3.6124
   35.190    3.4650
   35.205    3.6019
   35.220    3.8547
   35.235    3.7493
   35.250    3.8336
   35.265    3.6862
   35.280    3.9073
   35.295    3.5914
   35.310    3.5703
   35.325    3.8757
   35.340    4.1285
   35.355    3.9389
   35.370    3.7704
   35.385    3.6546
   35.400    3.5914
   35.415    3.7599
   35.430    3.8125
   35.445    3.8125
   35.460    3.8652
   35.475    3.6756
   35.490    3.7704
   35.505    3.9600
   35.520    3.9073
   35.535    3.7704
   35.550    3.8757
   35.565    3.5808
   35.580    3.6967
   35.595    3.8968
   35.610    3.8652
   35.625    3.7809
   35.640    3.8863
   35.655    3.5598
   35.670    3.3175
   35.685    3.3281
   35.700    3.5282
   35.715    3.4755
   35.730    3.6651
   35.745    3.6230
   35.760    3.7283
   35.775    3.6862
   35.790    3.7809
   35.805    3.7072
   35.820    3.7283
   35.835    3.6546
   35.850    3.8757
   35.865    3.6756
   35.880    3.7493
   35.895    3.8231
   35.910    3.5914
   35.925    3.6440
   35.940    4.0758
   35.955    3.7283
   35.970    3.7915
   35.985    3.7177
   36.000    3.8336
   36.015    3.5808
   36.030    3.4544
   36.045    3.6124
   36.060    3.6651
   36.075    3.7388
   36.090    3.6230
   36.105    3.7493
   36.120    3.8336
   36.135    3.6124
   36.150    3.5492
   36.165    3.8231
   36.180    3.7177
   36.195    3.6546
   36.210    3.6230
   36.225    3.8652
   36.240    3.5914
   36.255    3.6546
   36.270    3.8231
   36.285    3.7283
   36.300    3.5387
   36.315    3.3913
   36.330    3.7388
   36.345    3.5914
   36.360    3.8863
   36.375    3.9705
   36.390    3.9073
   36.405    4.0653
   36.420    3.8125
   36.435    3.6546
   36.450    3.6440
   36.465    3.7072
   36.480    3.7704
   36.495    3.5808
   36.510    3.2649
   36.525    3.6335
   36.540    3.7072
   36.555    3.6967
   36.570    3.6230
   36.585    3.5176
   36.600    3.6651
   36.615    3.4650
   36.630    3.6019
   36.645    3.7493
   36.660    3.7704
   36.675    3.5914
   36.690    3.4018
   36.705    3.7072
   36.720    3.6546
   36.735    3.4334
   36.750    3.5598
   36.765    3.7915
   36.780    3.5387
   36.795    3.6440
   36.810    3.8441
   36.825    4.0442
   36.840    3.8231
   36.855    3.5703
   36.870    3.4334
   36.885    3.9284
   36.900    3.6546
   36.915    3.3807
   36.930    3.5808
   36.945    3.5808
   36.960    3.9073
   36.975    3.7388
   36.990    3.4966
   37.005    3.6019
   37.020    3.5282
   37.035    3.3281
   37.050    3.6546
   37.065    3.8125
   37.080    3.6019
   37.095    3.6124
   37.110    3.6756
   37.125    3.4334
   37.140    3.6019
   37.155    3.9389
   37.170    3.6230
   37.185    3.7388
   37.200    3.7809
   37.215    3.5387
   37.230    3.7072
   37.245    3.4544
   37.260    3.4018
   37.275    3.8863
   37.290    4.1180
   37.305    3.7704
   37.320    3.5176
   37.335    3.4650
   37.350    3.4123
   37.365    3.4123
   37.380    3.6862
   37.395    3.9705
   37.410    3.6651
   37.425    3.3807
   37.440    3.4439
   37.455    3.4229
   37.470    3.8757
   37.485    3.6230
   37.500    3.6335
   37.515    3.5387
   37.530    3.5282
   37.545    3.6230
   37.560    3.6019
   37.575    3.8020
   37.590    3.7599
   37.605    3.8020
   37.620    3.7388
   37.635    3.4544
   37.650    3.8231
   37.665    3.8441
   37.680    3.3702
   37.695    3.5071
   37.710    3.5387
   37.725    3.6230
   37.740    3.6651
   37.755    3.8757
   37.770    3.5914
   37.785    3.7915
   37.800    3.9179
   37.815    3.6124
   37.830    3.3597
   37.845    3.7493
   37.860    3.7915
   37.875    3.7177
   37.890    3.8336
   37.905    3.5703
   37.920    3.7388
   37.935    3.6546
   37.950    3.5703
   37.965    3.7704
   37.980    3.5914
   37.995    3.4966
   38.010    3.4650
   38.025    3.3175
   38.040    3.6335
   38.055    3.9389
   38.070    3.6230
   38.085    3.6440
   38.100    3.4650
   38.115    3.7072
   38.130    3.7177
   38.145    3.3386
   38.160    3.6756
   38.175    3.3597
   38.190    3.6546
   38.205    3.5387
   38.220    3.3702
   38.235    3.6230
   38.250    3.4439
   38.265    3.4544
   38.280    3.4229
   38.295    3.4860
   38.310    3.4334
   38.325    3.7915
   38.340    3.1701
   38.355    3.1806
   38.370    3.4650
   38.385    3.5176
   38.400    3.4018
   38.415    3.6124
   38.430    3.7388
   38.445    3.5703
   38.460    3.5808
   38.475    3.6546
   38.490    3.4860
   38.505    3.3175
   38.520    3.5176
   38.535    3.8652
   38.550    3.6756
   38.565    3.4755
   38.580    3.6019
   38.595    3.6651
   38.610    3.5808
   38.625    4.0126
   38.640    3.5808
   38.655    3.5703
   38.670    3.3702
   38.685    3.2754
   38.700    3.8231
   38.715    3.6019
   38.730    3.3491
   38.745    3.5282
   38.760    3.6862
   38.775    3.4123
   38.790    3.5703
   38.805    3.7283
   38.820    3.5598
   38.835    3.3281
   38.850    3.4018
   38.865    3.4123
   38.880    3.5703
   38.895    3.7599
   38.910    3.5492
   38.925    3.4966
   38.940    3.5598
   38.955    3.8757
   38.970    3.4755
   38.985    3.5176
   39.000    3.6440
   39.015    3.6124
   39.030    3.7072
   39.045    3.6862
   39.060    3.6335
   39.075    3.5808
   39.090    3.5176
   39.105    3.6230
   39.120    3.2122
   39.135    3.1596
   39.150    3.3597
   39.165    3.5703
   39.180    3.4755
   39.195    3.3913
   39.210    3.3702
   39.225    3.6019
   39.240    3.5703
   39.255    3.5176
   39.270    3.5598
   39.285    3.1490
   39.300    3.5492
   39.315    3.5387
   39.330    3.4755
   39.345    3.3597
   39.360    3.4018
   39.375    3.4860
   39.390    3.4544
   39.405    3.6440
   39.420    3.4650
   39.435    3.2543
   39.450    3.4860
   39.465    3.4544
   39.480    3.4755
   39.495    3.6335
   39.510    4.0232
   39.525    3.5387
   39.540    3.5282
   39.555    3.3913
   39.570    3.4544
   39.585    3.3807
   39.600    3.6335
   39.615    3.4544
   39.630    3.0016
   39.645    3.3281
   39.660    3.4860
   39.675    3.3702
   39.690    3.4544
   39.705    3.5808
   39.720    3.3281
   39.735    3.4334
   39.750    3.2965
   39.765    3.5808
   39.780    3.5176
   39.795    3.2017
   39.810    3.1806
   39.825    3.5492
   39.840    3.4334
   39.855    3.6862
   39.870    3.4966
   39.885    3.6440
   39.900    3.5282
   39.915    3.5282
   39.930    3.3386
   39.945    3.3491
   39.960    3.2649
   39.975    3.2543
   39.990    3.5703
