    1.500   19.8736
    1.515   19.8526
    1.530   19.8947
    1.545   19.6735
    1.560   18.7994
    1.575   18.3465
    1.590   18.0516
    1.605   18.3886
    1.620   18.1569
    1.635   17.9989
    1.650   17.7988
    1.665   18.2622
    1.680   17.9252
    1.695   18.0095
    1.710   17.3881
    1.725   17.6725
    1.740   18.2622
    1.755   17.1248
    1.770   17.0195
    1.785   17.0827
    1.800   16.9142
    1.815   16.5666
    1.830   16.6509
    1.845   16.4192
    1.860   16.6298
    1.875   16.5771
    1.890   16.0716
    1.905   16.4297
    1.920   16.4508
    1.935   15.9031
    1.950   16.0611
    1.965   15.7978
    1.980   15.8820
    1.995   16.4508
    2.010   16.1980
    2.025   15.4081
    2.040   15.6503
    2.055   15.6398
    2.070   15.6503
    2.085   15.3239
    2.100   15.0606
    2.115   14.7025
    2.130   14.6182
    2.145   15.1132
    2.160   14.3655
    2.175   14.4286
    2.190   14.5024
    2.205   15.5134
    2.220   14.9974
    2.235   14.7657
    2.250   15.3028
    2.265   15.1975
    2.280   14.9868
    2.295   14.2180
    2.310   14.1232
    2.325   14.0179
    2.340   14.3023
    2.355   15.2923
    2.370   14.7446
    2.385   14.3233
    2.400   14.6498
    2.415   14.5024
    2.430   14.1127
    2.445   13.8599
    2.460   13.7125
    2.475   14.0916
    2.490   14.1969
    2.505   14.2285
    2.520   14.2075
    2.535   14.0916
    2.550   13.7230
    2.565   14.4497
    2.580   14.4076
    2.595   14.2391
    2.610   13.8810
    2.625   13.9021
    2.640   14.1232
    2.655   14.5656
    2.670   14.3339
    2.685   14.1022
    2.700   14.3023
    2.715   14.6077
    2.730   14.1232
    2.745   14.2075
    2.760   14.4813
    2.775   13.6072
    2.790   13.8915
    2.805   14.4708
    2.820   14.2601
    2.835   14.2917
    2.850   14.0916
    2.865   14.1022
    2.880   14.1864
    2.895   14.1759
    2.910   14.5024
    2.925   14.2812
    2.940   13.9547
    2.955   14.4392
    2.970   14.3128
    2.985   14.9236
    3.000   14.3023
    3.015   14.7341
    3.030   15.0184
    3.045   15.0816
    3.060   14.6393
    3.075   14.4708
    3.090   15.2607
    3.105   15.1237
    3.120   15.3765
    3.135   15.3870
    3.150   15.5766
    3.165   15.1132
    3.180   15.9136
    3.195   15.9347
    3.210   16.6614
    3.225   16.5877
    3.240   16.6930
    3.255   16.6298
    3.270   16.7035
    3.285   17.7988
    3.300   17.8304
    3.315   17.4092
    3.330   18.4202
    3.345   18.6835
    3.360   19.2628
    3.375   19.1469
    3.390   19.3681
    3.405   19.8736
    3.420   20.5898
    3.435   20.1580
    3.450   20.8531
    3.465   21.3691
    3.480   20.4318
    3.495   20.2317
    3.510   20.8215
    3.525   20.4318
    3.540   18.7362
    3.555   18.9152
    3.570   17.4513
    3.585   18.1464
    3.600   17.4829
    3.615   17.0827
    3.630   16.7246
    3.645   15.9768
    3.660   15.9663
    3.675   16.3770
    3.690   16.4192
    3.705   15.9558
    3.720   16.4613
    3.735   16.7246
    3.750   16.4402
    3.765   16.0821
    3.780   16.3033
    3.795   16.2823
    3.810   16.9247
    3.825   17.0405
    3.840   16.9458
    3.855   16.5456
    3.870   17.0405
    3.885   16.4297
    3.900   17.0090
    3.915   16.2085
    3.930   15.8294
    3.945   15.7030
    3.960   15.5661
    3.975   15.1027
    3.990   14.9658
    4.005   14.7341
    4.020   14.1022
    4.035   13.9968
    4.050   13.5124
    4.065   13.3228
    4.080   13.1543
    4.095   13.1016
    4.110   12.3960
    4.125   12.2275
    4.140   12.4697
    4.155   12.3749
    4.170   12.9963
    4.185   11.9115
    4.200   12.2801
    4.215   12.6172
    4.230   11.3955
    4.245   11.0585
    4.260   11.4587
    4.275   11.6061
    4.290   11.4271
    4.305   11.7009
    4.320   12.1011
    4.335   11.8589
    4.350   10.9847
    4.365   11.3428
    4.380   11.5219
    4.395   11.0058
    4.410   11.1848
    4.425   11.2480
    4.440   11.4692
    4.455   10.8583
    4.470   10.8689
    4.485   11.2796
    4.500   11.1743
    4.515   11.3428
    4.530   11.3323
    4.545   11.5113
    4.560   11.2586
    4.575   11.1427
    4.590   10.7320
    4.605   11.4165
    4.620   11.1848
    4.635   11.2375
    4.650   11.0163
    4.665   10.9742
    4.680   10.8268
    4.695   11.3849
    4.710   11.4692
    4.725   11.3639
    4.740   10.3318
    4.755   10.3528
    4.770   11.3955
    4.785   11.7114
    4.800   11.4587
    4.815   10.6266
    4.830   10.8794
    4.845   11.1322
    4.860   10.7320
    4.875   11.1848
    4.890   11.1638
    4.905   10.7530
    4.920   11.1427
    4.935   11.3744
    4.950   11.2164
    4.965   11.3007
    4.980   10.9742
    4.995   11.1216
    5.010   11.1638
    5.025   10.9321
    5.040   11.3428
    5.055   11.3955
    5.070   11.1006
    5.085   11.1954
    5.100   11.2164
    5.115   11.3007
    5.130   11.6272
    5.145   11.0900
    5.160   11.1743
    5.175   10.5845
    5.190   11.0585
    5.205   10.5108
    5.220   10.5003
    5.235   10.9426
    5.250   10.8373
    5.265   10.5108
    5.280   10.5108
    5.295   10.7636
    5.310   10.2686
    5.325   10.6372
    5.340   10.7952
    5.355   11.1638
    5.370   11.3217
    5.385   11.0269
    5.400   10.7952
    5.415   10.9426
    5.430   10.7636
    5.445   11.1743
    5.460   11.1532
    5.475   10.9847
    5.490   11.3744
    5.505   11.1322
    5.520   11.2375
    5.535   11.0269
    5.550   10.9847
    5.565   10.8162
    5.580   11.0269
    5.595   11.0269
    5.610   10.6056
    5.625   10.5740
    5.640   11.1743
    5.655   11.0374
    5.670   11.3639
    5.685   11.1848
    5.700   10.8794
    5.715   11.1322
    5.730   10.7636
    5.745   11.1322
    5.760   10.8583
    5.775   10.5003
    5.790   10.9742
    5.805   11.1006
    5.820   10.6793
    5.835   10.8268
    5.850   10.7425
    5.865   11.0690
    5.880   10.7425
    5.895   10.1527
    5.910   10.8899
    5.925   10.6793
    5.940   11.1111
    5.955   10.7846
    5.970   11.1532
    5.985   10.7741
    6.000   11.1427
    6.015   11.2270
    6.030   10.8268
    6.045   10.3528
    6.060   10.9110
    6.075   11.2164
    6.090   11.3639
    6.105   10.9215
    6.120   10.9531
    6.135   11.2059
    6.150   11.2059
    6.165   10.9005
    6.180   10.5003
    6.195   11.1954
    6.210   10.8899
    6.225   10.7109
    6.240   10.5740
    6.255   10.9953
    6.270   10.7320
    6.285   10.5319
    6.300   11.0900
    6.315   10.9215
    6.330   11.1216
    6.345   10.9110
    6.360   11.3112
    6.375   11.1216
    6.390   10.7004
    6.405   11.2164
    6.420   10.7952
    6.435   11.1743
    6.450   10.9215
    6.465   10.8057
    6.480   11.5324
    6.495   11.1322
    6.510   11.3323
    6.525   11.0690
    6.540   10.7741
    6.555   11.1006
    6.570   11.7746
    6.585   11.5956
    6.600   11.5113
    6.615   11.1111
    6.630   11.6272
    6.645   11.2691
    6.660   11.2796
    6.675   11.8483
    6.690   11.3533
    6.705   11.2586
    6.720   11.5850
    6.735   11.5745
    6.750   11.4903
    6.765   11.4376
    6.780   12.2591
    6.795   12.5329
    6.810   12.8805
    6.825   12.7857
    6.840   12.8910
    6.855   12.9121
    6.870   13.0490
    6.885   13.4071
    6.900   13.8178
    6.915   13.8283
    6.930   14.1443
    6.945   13.9652
    6.960   13.8915
    6.975   14.0600
    6.990   14.1969
    7.005   14.2707
    7.020   14.4602
    7.035   14.2075
    7.050   14.8289
    7.065   14.9552
    7.080   15.3133
    7.095   15.0290
    7.110   15.1132
    7.125   15.6187
    7.140   16.2085
    7.155   15.9136
    7.170   16.2823
    7.185   16.5666
    7.200   16.6614
    7.215   18.0621
    7.230   18.5255
    7.245   18.7362
    7.260   19.9789
    7.275   20.6951
    7.290   22.0221
    7.305   22.8963
    7.320   23.2333
    7.335   25.5714
    7.350   26.5508
    7.365   28.5308
    7.380   31.4376
    7.395   35.0500
    7.410   39.5261
    7.425   45.1606
    7.440   50.1422
    7.455   53.8494
    7.470   53.5334
    7.485   49.5629
    7.500   39.9684
    7.515   28.3202
    7.530   18.4939
    7.545   13.8389
    7.560   12.3328
    7.575   12.1854
    7.590   11.8799
    7.605   12.0800
    7.620   11.3955
    7.635   11.9747
    7.650   11.6061
    7.665   11.8167
    7.680   12.4381
    7.695   11.7536
    7.710   11.7430
    7.725   12.2907
    7.740   12.3012
    7.755   12.2486
    7.770   11.9853
    7.785   12.4487
    7.800   12.4065
    7.815   11.8167
    7.830   11.8694
    7.845   12.7857
    7.860   12.2275
    7.875   11.7220
    7.890   11.9221
    7.905   12.2591
    7.920   11.9537
    7.935   11.9010
    7.950   12.1538
    7.965   12.0484
    7.980   12.2380
    7.995   12.5013
    8.010   12.6277
    8.025   12.4276
    8.040   11.9853
    8.055   12.2275
    8.070   12.3012
    8.085   12.7751
    8.100   12.8278
    8.115   12.9858
    8.130   12.6488
    8.145   13.1438
    8.160   13.0806
    8.175   13.5545
    8.190   14.0074
    8.205   14.1969
    8.220   14.3760
    8.235   14.7341
    8.250   14.9868
    8.265   15.4818
    8.280   16.1243
    8.295   16.7667
    8.310   17.0511
    8.325   17.8936
    8.340   18.7678
    8.355   20.3791
    8.370   22.4961
    8.385   24.0337
    8.400   26.2033
    8.415   28.0253
    8.430   28.4044
    8.445   27.1933
    8.460   24.9500
    8.475   21.9905
    8.490   17.3460
    8.505   15.2607
    8.520   12.9963
    8.535   11.9326
    8.550   11.7957
    8.565   11.5956
    8.580   11.6061
    8.595   11.5429
    8.610   10.9637
    8.625   11.0585
    8.640   11.0269
    8.655   11.5850
    8.670   11.4376
    8.685   11.2480
    8.700   11.1532
    8.715   11.5956
    8.730   11.4481
    8.745   11.3639
    8.760   11.5429
    8.775   11.1848
    8.790   11.5745
    8.805   11.6061
    8.820   11.7114
    8.835   11.4797
    8.850   11.3639
    8.865   11.4692
    8.880   10.9005
    8.895   11.3007
    8.910   11.1427
    8.925   10.8373
    8.940   11.9747
    8.955   11.4692
    8.970   11.0690
    8.985   10.9531
    9.000   11.4903
    9.015   11.6904
    9.030   11.2902
    9.045   11.1427
    9.060   11.4165
    9.075   11.1427
    9.090   11.1532
    9.105   10.9110
    9.120   11.1954
    9.135   11.3323
    9.150   11.2691
    9.165   11.2691
    9.180   11.1848
    9.195   11.1743
    9.210   11.2270
    9.225   11.3428
    9.240   11.5429
    9.255   11.7114
    9.270   11.7325
    9.285   11.5324
    9.300   11.8905
    9.315   11.0058
    9.330   11.2480
    9.345   10.9005
    9.360   11.2480
    9.375   11.3639
    9.390   11.6693
    9.405   11.9326
    9.420   11.5640
    9.435   12.2170
    9.450   11.4165
    9.465   11.7220
    9.480   11.7114
    9.495   10.9531
    9.510   11.6272
    9.525   11.7957
    9.540   11.5534
    9.555   11.4165
    9.570   11.7220
    9.585   11.6798
    9.600   11.2691
    9.615   11.3639
    9.630   11.4271
    9.645   11.5745
    9.660   11.5956
    9.675   11.3955
    9.690   11.8589
    9.705   11.4376
    9.720   11.9958
    9.735   12.1959
    9.750   11.4903
    9.765   11.6588
    9.780   11.7852
    9.795   11.3217
    9.810   10.9215
    9.825   11.5219
    9.840   11.1848
    9.855   11.4903
    9.870   11.5640
    9.885   12.0800
    9.900   11.4376
    9.915   11.5640
    9.930   11.6482
    9.945   11.9010
    9.960   11.3849
    9.975   11.4481
    9.990   11.9642
   10.005   11.2059
   10.020   11.9537
   10.035   11.4376
   10.050   11.9221
   10.065   12.2275
   10.080   12.0800
   10.095   11.7957
   10.110   11.3849
   10.125   11.6272
   10.140   11.7325
   10.155   11.4481
   10.170   11.6482
   10.185   12.0379
   10.200   11.7220
   10.215   11.5113
   10.230   11.5956
   10.245   11.4271
   10.260   11.6588
   10.275   11.2691
   10.290   11.7009
   10.305   11.4165
   10.320   11.4797
   10.335   11.6061
   10.350   11.1111
   10.365   11.1848
   10.380   11.7114
   10.395   11.9958
   10.410   11.6166
   10.425   11.6482
   10.440   11.8589
   10.455   11.3533
   10.470   11.1216
   10.485   11.1216
   10.500   11.5534
   10.515   11.2480
   10.530   11.3639
   10.545   12.1959
   10.560   12.0063
   10.575   11.9326
   10.590   11.6061
   10.605   11.9326
   10.620   12.1327
   10.635   11.8167
   10.650   11.4692
   10.665   11.7430
   10.680   11.4797
   10.695   11.3955
   10.710   11.3639
   10.725   11.6166
   10.740   11.8694
   10.755   11.7325
   10.770   11.7325
   10.785   11.7220
   10.800   11.8905
   10.815   11.5956
   10.830   12.1538
   10.845   12.2907
   10.860   11.6272
   10.875   12.1538
   10.890   11.7325
   10.905   11.7220
   10.920   11.6798
   10.935   12.1432
   10.950   12.0274
   10.965   11.8167
   10.980   12.6066
   10.995   12.7436
   11.010   12.7962
   11.025   12.6488
   11.040   12.8173
   11.055   13.0490
   11.070   13.2596
   11.085   13.8705
   11.100   13.9968
   11.115   14.9131
   11.130   14.7025
   11.145   14.7762
   11.160   16.3560
   11.175   17.3776
   11.190   18.5045
   11.205   19.3576
   11.220   21.3375
   11.235   23.3702
   11.250   24.6130
   11.265   26.0242
   11.280   24.9816
   11.295   23.8547
   11.310   20.4213
   11.325   17.2828
   11.340   14.3760
   11.355   12.2486
   11.370   11.9326
   11.385   11.4165
   11.400   11.5640
   11.415   11.5113
   11.430   10.9426
   11.445   11.2691
   11.460   11.6272
   11.475   11.4376
   11.490   11.3639
   11.505   11.4481
   11.520   10.7109
   11.535   11.1427
   11.550   11.5324
   11.565   11.8062
   11.580   10.9742
   11.595   11.2480
   11.610   11.1427
   11.625   11.1216
   11.640   11.1427
   11.655   11.0795
   11.670   11.1848
   11.685   11.0269
   11.700   11.1216
   11.715   10.7004
   11.730   11.1954
   11.745   11.0900
   11.760   11.1111
   11.775   10.9637
   11.790   10.9215
   11.805   10.6266
   11.820   10.7530
   11.835   11.2164
   11.850   11.1743
   11.865   11.1111
   11.880   11.3007
   11.895   11.3112
   11.910   10.8373
   11.925   11.1954
   11.940   11.1743
   11.955   10.6688
   11.970   10.8162
   11.985   10.9215
   12.000   11.0374
   12.015   11.1216
   12.030   11.2691
   12.045   11.0163
   12.060   11.0795
   12.075   10.9742
   12.090   11.1848
   12.105   11.0690
   12.120   10.9426
   12.135   11.3007
   12.150   11.2480
   12.165   10.6477
   12.180   10.6898
   12.195   10.2370
   12.210   10.9005
   12.225   11.3533
   12.240   11.5008
   12.255   10.9742
   12.270   10.5529
   12.285   10.6056
   12.300   10.3844
   12.315   11.0900
   12.330   11.1111
   12.345   10.6477
   12.360   10.5003
   12.375   10.9426
   12.390   10.9637
   12.405   10.5213
   12.420   10.6688
   12.435   10.8057
   12.450   10.3002
   12.465   10.2370
   12.480   10.7109
   12.495   10.9321
   12.510   10.2896
   12.525   10.1843
   12.540   10.1632
   12.555   10.4371
   12.570   11.1216
   12.585   10.6266
   12.600   10.7109
   12.615   10.4581
   12.630   10.8057
   12.645   10.6688
   12.660   10.9742
   12.675   10.9005
   12.690   10.9321
   12.705   11.0795
   12.720   10.6793
   12.735   10.7320
   12.750   10.8373
   12.765   11.1954
   12.780   10.5108
   12.795   10.1843
   12.810   10.5213
   12.825   10.6266
   12.840   10.8268
   12.855   10.3423
   12.870    9.9737
   12.885   10.1422
   12.900   10.3949
   12.915   10.3633
   12.930   10.6688
   12.945   10.3212
   12.960   10.2896
   12.975   11.0269
   12.990   11.2480
   13.005   10.6056
   13.020   10.7952
   13.035   10.5740
   13.050   10.6266
   13.065   11.0900
   13.080   10.7846
   13.095   10.1632
   13.110   10.4160
   13.125   10.3318
   13.140   10.6688
   13.155   10.6898
   13.170   10.6793
   13.185   10.7741
   13.200   10.3212
   13.215   10.4687
   13.230   10.5213
   13.245   10.4897
   13.260   10.4897
   13.275   10.3633
   13.290   10.5424
   13.305   10.5740
   13.320   10.5635
   13.335   10.6477
   13.350   10.4371
   13.365   10.0158
   13.380   10.8478
   13.395   11.2586
   13.410   11.0374
   13.425   10.8689
   13.440   10.8057
   13.455   11.2375
   13.470   10.7109
   13.485   11.2164
   13.500   10.7109
   13.515   11.5219
   13.530   11.1638
   13.545   11.5850
   13.560   11.0795
   13.575   10.7214
   13.590   10.5319
   13.605   10.6477
   13.620   10.7741
   13.635   10.6688
   13.650   10.7004
   13.665   10.4476
   13.680   11.1006
   13.695   10.5529
   13.710   10.4265
   13.725   10.5845
   13.740   10.4581
   13.755   10.4792
   13.770   10.3318
   13.785   11.0690
   13.800   10.2896
   13.815   10.6266
   13.830   10.9531
   13.845   10.4792
   13.860   10.5319
   13.875   10.5845
   13.890   10.8057
   13.905   10.5635
   13.920   10.1843
   13.935   10.2475
   13.950   11.0690
   13.965   10.5740
   13.980   10.0369
   13.995   10.6582
   14.010   10.8794
   14.025   10.4581
   14.040   10.2580
   14.055   10.4055
   14.070   10.3844
   14.085   10.4055
   14.100   10.7952
   14.115   10.4055
   14.130   10.4265
   14.145   10.2475
   14.160   10.0685
   14.175   10.7636
   14.190   10.8689
   14.205   10.9321
   14.220   10.4687
   14.235   10.2580
   14.250   10.7952
   14.265   10.3739
   14.280   10.4687
   14.295   10.3423
   14.310   10.4897
   14.325   10.1106
   14.340   10.3739
   14.355   10.8478
   14.370   11.1638
   14.385   10.5845
   14.400   10.5951
   14.415   10.2054
   14.430   10.9426
   14.445   10.4792
   14.460   11.1427
   14.475   11.4797
   14.490   10.4476
   14.505   10.6056
   14.520   10.4897
   14.535   10.2370
   14.550   10.2580
   14.565   10.5319
   14.580   10.7004
   14.595    9.7946
   14.610   10.3528
   14.625   10.4792
   14.640   10.6582
   14.655   10.4792
   14.670    9.8789
   14.685   10.3844
   14.700   10.2580
   14.715   10.4265
   14.730   10.7741
   14.745   10.5108
   14.760   10.8478
   14.775   10.5319
   14.790   10.3949
   14.805   10.4476
   14.820   10.6688
   14.835   10.4160
   14.850   10.5635
   14.865   10.8689
   14.880   10.9637
   14.895   11.7852
   14.910   11.6377
   14.925   11.3217
   14.940   11.1111
   14.955   11.1638
   14.970   11.8905
   14.985   11.4797
   15.000   11.4271
   15.015   11.2691
   15.030   10.7952
   15.045   10.7320
   15.060   10.6898
   15.075   10.2370
   15.090   10.4055
   15.105   10.2264
   15.120   10.8373
   15.135   10.7952
   15.150   10.4160
   15.165   10.8899
   15.180   10.5845
   15.195   10.7636
   15.210   10.7109
   15.225   10.4792
   15.240   10.4371
   15.255   10.4055
   15.270   10.6793
   15.285   11.1532
   15.300   11.1216
   15.315   10.8162
   15.330   10.6793
   15.345   10.4371
   15.360   10.7741
   15.375   10.8057
   15.390   11.1638
   15.405   11.6272
   15.420   11.8273
   15.435   11.9431
   15.450   12.5434
   15.465   12.6066
   15.480   12.6804
   15.495   12.6382
   15.510   11.4903
   15.525   11.5850
   15.540   11.9431
   15.555   10.9742
   15.570   10.6266
   15.585   10.5424
   15.600   10.3949
   15.615   10.4581
   15.630   10.5635
   15.645   10.4055
   15.660    9.9842
   15.675   10.2791
   15.690   10.8794
   15.705   11.2375
   15.720   11.1427
   15.735   10.4581
   15.750   10.1422
   15.765   10.6793
   15.780   10.5635
   15.795   10.8689
   15.810   10.4371
   15.825   10.8794
   15.840   10.6477
   15.855   10.4687
   15.870   10.4055
   15.885   10.2791
   15.900   10.4476
   15.915   10.4371
   15.930   10.4265
   15.945   10.5845
   15.960   10.7004
   15.975   10.4687
   15.990   10.5003
   16.005   10.6793
   16.020   10.2896
   16.035   10.6688
   16.050   10.9637
   16.065   10.7214
   16.080   10.6898
   16.095   11.1638
   16.110   10.6477
   16.125   10.3949
   16.140   10.2580
   16.155   10.0474
   16.170    9.8157
   16.185   10.3002
   16.200   10.3633
   16.215   10.1527
   16.230   10.1948
   16.245   10.9321
   16.260   10.6266
   16.275   10.5845
   16.290   10.2370
   16.305   10.5951
   16.320   10.5003
   16.335   10.5424
   16.350   10.5635
   16.365   10.7109
   16.380   10.7004
   16.395   10.5529
   16.410   10.3949
   16.425   10.3318
   16.440   10.8162
   16.455   10.8794
   16.470   10.6582
   16.485   10.7214
   16.500   10.9426
   16.515   10.4897
   16.530   10.6582
   16.545   10.6477
   16.560   10.1527
   16.575   10.6688
   16.590   10.8899
   16.605   10.5845
   16.620   10.4160
   16.635   11.1427
   16.650   10.8162
   16.665   10.7952
   16.680   10.8373
   16.695   11.2164
   16.710   11.4060
   16.725   11.3217
   16.740   11.3217
   16.755   11.0479
   16.770   11.5745
   16.785   11.0900
   16.800   11.2691
   16.815   11.2902
   16.830   11.1954
   16.845   11.0900
   16.860   10.8899
   16.875   11.1216
   16.890   11.1848
   16.905   11.7746
   16.920   11.7536
   16.935   11.1848
   16.950   11.1532
   16.965   11.0269
   16.980   10.4687
   16.995   10.8268
   17.010   10.7425
   17.025   10.6266
   17.040   11.0269
   17.055   10.7846
   17.070   11.0058
   17.085   10.7109
   17.100   11.0374
   17.115   10.7320
   17.130   10.8689
   17.145   10.6266
   17.160   10.7741
   17.175   10.7004
   17.190    9.9631
   17.205   10.6477
   17.220   10.7214
   17.235   10.6056
   17.250   10.2475
   17.265   10.5740
   17.280    9.9947
   17.295   10.7214
   17.310   10.9953
   17.325   10.7214
   17.340   11.3428
   17.355   10.6793
   17.370   10.0474
   17.385   10.5424
   17.400   10.4160
   17.415   10.3949
   17.430   10.7109
   17.445   10.3949
   17.460   10.2686
   17.475   10.6898
   17.490   10.5319
   17.505   10.6372
   17.520   10.4792
   17.535   10.4792
   17.550   10.5740
   17.565   10.3528
   17.580   10.5319
   17.595   10.5845
   17.610   10.1843
   17.625   10.6898
   17.640   11.2059
   17.655   10.4371
   17.670   10.6056
   17.685   10.4581
   17.700   10.3739
   17.715   10.2791
   17.730   10.7214
   17.745   10.2791
   17.760   10.4476
   17.775   10.5845
   17.790   10.5213
   17.805   10.1211
   17.820   10.2686
   17.835    9.9842
   17.850   10.3423
   17.865   10.6056
   17.880   10.6582
   17.895   10.5740
   17.910   11.0058
   17.925   10.3844
   17.940   10.3528
   17.955   10.4265
   17.970   10.3633
   17.985   10.3633
   18.000   10.8373
   18.015   10.9847
   18.030   10.4371
   18.045   10.6898
   18.060   10.7530
   18.075   10.6161
   18.090   10.8268
   18.105   10.9005
   18.120    9.9526
   18.135   10.3739
   18.150   10.4581
   18.165   10.2159
   18.180   10.5951
   18.195   10.4265
   18.210   10.5951
   18.225   10.7530
   18.240   10.8268
   18.255   10.2054
   18.270   10.4581
   18.285   10.4687
   18.300   10.0579
   18.315   10.9426
   18.330   10.6266
   18.345   10.2686
   18.360   10.7425
   18.375   10.5424
   18.390   10.3528
   18.405   10.1316
   18.420   10.7320
   18.435   11.0479
   18.450   11.1216
   18.465   10.7214
   18.480   10.7004
   18.495   10.6898
   18.510   10.8689
   18.525   10.5845
   18.540   10.2475
   18.555   10.7530
   18.570   10.7846
   18.585   10.7109
   18.600   10.8689
   18.615   10.9005
   18.630   10.7320
   18.645   10.6161
   18.660    9.9842
   18.675   10.2370
   18.690   10.2580
   18.705   10.2791
   18.720   10.5635
   18.735   10.9005
   18.750   10.3844
   18.765   10.5424
   18.780   10.1948
   18.795   10.4581
   18.810   10.4897
   18.825   10.3633
   18.840   10.2791
   18.855   10.5108
   18.870   10.4476
   18.885   10.2791
   18.900   10.4581
   18.915   10.8162
   18.930   10.2475
   18.945   10.1211
   18.960   10.4265
   18.975   10.6688
   18.990   10.8162
   19.005   10.7004
   19.020   10.7636
   19.035   10.9426
   19.050   10.6688
   19.065   10.3844
   19.080   10.2475
   19.095   10.4055
   19.110   10.4160
   19.125   10.3528
   19.140   10.8162
   19.155   10.6266
   19.170   10.8583
   19.185   10.3739
   19.200   10.7109
   19.215   10.3212
   19.230   10.2791
   19.245   10.1843
   19.260   10.1843
   19.275   10.5319
   19.290   10.8478
   19.305   10.5951
   19.320   10.3107
   19.335   11.0795
   19.350   10.3528
   19.365   10.3739
   19.380   11.1111
   19.395   10.5319
   19.410   10.8583
   19.425   10.1316
   19.440   10.4581
   19.455   10.5003
   19.470   10.4581
   19.485   10.3107
   19.500   10.2370
   19.515   10.1948
   19.530   10.3107
   19.545   10.3528
   19.560   10.5003
   19.575   10.5529
   19.590    9.9315
   19.605   10.3633
   19.620   10.6161
   19.635   11.0690
   19.650   10.7425
   19.665   11.0163
   19.680   10.9531
   19.695   10.4792
   19.710   10.3318
   19.725   10.5213
   19.740   10.7846
   19.755   10.3107
   19.770   10.7530
   19.785   10.5003
   19.800   10.4055
   19.815   10.7636
   19.830   10.7846
   19.845   11.0900
   19.860   10.6898
   19.875   10.6582
   19.890   10.0263
   19.905   10.7109
   19.920   10.7846
   19.935   10.7004
   19.950   10.8794
   19.965   10.7320
   19.980   10.5845
   19.995   10.8162
   20.010   10.7425
   20.025   10.1527
   20.040   10.2475
   20.055   10.8057
   20.070   10.6898
   20.085   10.8583
   20.100   10.9215
   20.115   10.3528
   20.130   10.7214
   20.145   11.2796
   20.160   11.3744
   20.175   11.9642
   20.190   12.1748
   20.205   11.7641
   20.220   12.1011
   20.235   11.8799
   20.250   12.1854
   20.265   11.7746
   20.280   11.8273
   20.295   11.6377
   20.310   11.2480
   20.325   10.5951
   20.340   10.8162
   20.355   10.9637
   20.370   10.6898
   20.385   10.8583
   20.400   11.0374
   20.415   10.2054
   20.430   10.6372
   20.445   10.7952
   20.460   10.3844
   20.475   10.8162
   20.490   10.8162
   20.505   10.5424
   20.520   10.6056
   20.535   10.7741
   20.550   10.9110
   20.565   10.7109
   20.580   10.8689
   20.595   10.9953
   20.610   10.9321
   20.625   10.8373
   20.640   11.0795
   20.655   10.8689
   20.670   10.4476
   20.685   10.9426
   20.700   11.0585
   20.715   10.9953
   20.730   10.6793
   20.745   10.6161
   20.760   10.8373
   20.775   10.4581
   20.790   10.7530
   20.805   10.9110
   20.820   10.0158
   20.835   10.5635
   20.850   10.1948
   20.865   10.6056
   20.880   10.7004
   20.895   10.5635
   20.910   10.3739
   20.925   10.5529
   20.940   10.5740
   20.955   10.7425
   20.970   10.9742
   20.985   10.9426
   21.000   11.1006
   21.015   10.8057
   21.030   10.7109
   21.045   10.6056
   21.060   10.9531
   21.075   10.7320
   21.090   11.4587
   21.105   10.6372
   21.120   10.9742
   21.135   10.9321
   21.150   11.2270
   21.165   10.9637
   21.180   11.4903
   21.195   10.7004
   21.210   11.3112
   21.225   11.3217
   21.240   10.9321
   21.255   11.0690
   21.270   11.5429
   21.285   11.1216
   21.300   10.9531
   21.315   10.8583
   21.330   10.8794
   21.345   11.1638
   21.360   11.3428
   21.375   11.1532
   21.390   11.3007
   21.405   10.7846
   21.420   11.4903
   21.435   11.3007
   21.450   11.2691
   21.465   11.2691
   21.480   11.3112
   21.495   11.4692
   21.510   11.9326
   21.525   11.3007
   21.540   11.6482
   21.555   11.3323
   21.570   11.7746
   21.585   11.8483
   21.600   11.6482
   21.615   11.4587
   21.630   11.6588
   21.645   11.1322
   21.660   11.4165
   21.675   11.4376
   21.690   10.5424
   21.705   10.9637
   21.720   10.9531
   21.735   10.6477
   21.750   10.7530
   21.765   10.9847
   21.780   10.6688
   21.795   10.5319
   21.810   10.9531
   21.825   11.1111
   21.840   11.5219
   21.855   11.3428
   21.870   11.2059
   21.885   10.9005
   21.900   10.7952
   21.915   11.1427
   21.930   10.9215
   21.945   11.0269
   21.960   11.3744
   21.975   11.1111
   21.990   10.8583
   22.005   11.2270
   22.020   11.8062
   22.035   11.4692
   22.050   10.7109
   22.065   11.4903
   22.080   11.2164
   22.095   11.2796
   22.110   10.8478
   22.125   10.9321
   22.140   11.0795
   22.155   10.9426
   22.170   11.0058
   22.185   10.8268
   22.200   10.8162
   22.215   11.0163
   22.230   10.7109
   22.245   10.9110
   22.260   11.1006
   22.275   10.9215
   22.290   10.6161
   22.305   10.9321
   22.320   11.0690
   22.335   11.0479
   22.350   10.6372
   22.365   10.5213
   22.380   10.9953
   22.395   10.6688
   22.410   10.7109
   22.425   10.8583
   22.440   10.4897
   22.455   11.0795
   22.470   11.1954
   22.485   10.7004
   22.500   11.0690
   22.515   10.8689
   22.530   10.7741
   22.545   10.6688
   22.560   10.8478
   22.575   10.9110
   22.590   11.1743
   22.605   10.6477
   22.620   10.8478
   22.635   10.7741
   22.650   10.8373
   22.665   10.7425
   22.680   10.5951
   22.695   10.8794
   22.710   10.4371
   22.725   11.1532
   22.740   10.9215
   22.755   10.6688
   22.770   10.7320
   22.785   10.8268
   22.800   10.5740
   22.815   11.0690
   22.830   11.3849
   22.845   10.9321
   22.860   11.3533
   22.875   10.7636
   22.890   10.9742
   22.905   10.6372
   22.920   10.7741
   22.935   11.0900
   22.950   11.3112
   22.965   11.3323
   22.980   10.8583
   22.995   10.8689
   23.010   10.7846
   23.025   10.6898
   23.040   10.5319
   23.055   10.7636
   23.070   10.8162
   23.085   11.1111
   23.100   10.9110
   23.115   10.7425
   23.130   11.1322
   23.145   11.4797
   23.160   10.9953
   23.175   11.4903
   23.190   11.0900
   23.205   10.8583
   23.220   10.8899
   23.235   10.5319
   23.250   11.0058
   23.265   10.6582
   23.280   10.9531
   23.295   11.4271
   23.310   10.5529
   23.325   10.3528
   23.340   10.7530
   23.355   10.7636
   23.370   10.8583
   23.385   10.8057
   23.400   10.7004
   23.415   10.8162
   23.430   10.7425
   23.445   10.8794
   23.460   10.7530
   23.475   10.5529
   23.490   10.7425
   23.505   10.7952
   23.520   10.3528
   23.535   10.7109
   23.550   10.8057
   23.565   10.6372
   23.580   10.9953
   23.595   11.1322
   23.610   11.1006
   23.625   11.0690
   23.640   10.7320
   23.655   11.2270
   23.670   10.9426
   23.685   10.7109
   23.700   11.2586
   23.715   11.4060
   23.730   11.4165
   23.745   11.7852
   23.760   11.8589
   23.775   11.6798
   23.790   11.2586
   23.805   11.0374
   23.820   11.2059
   23.835   11.2164
   23.850   11.0585
   23.865   11.3217
   23.880   11.5219
   23.895   10.8057
   23.910   10.8162
   23.925   11.1743
   23.940   11.0479
   23.955   10.8057
   23.970   11.3217
   23.985   10.7846
   24.000   11.3217
   24.015   10.9742
   24.030   10.8057
   24.045   11.0374
   24.060   10.9847
   24.075   11.0795
   24.090   10.4371
   24.105   10.5319
   24.120   11.1111
   24.135   10.9637
   24.150   10.9321
   24.165   11.0690
   24.180   11.1216
   24.195   11.1532
   24.210   11.2270
   24.225   11.3849
   24.240   11.1532
   24.255   11.5850
   24.270   11.6482
   24.285   11.7746
   24.300   12.4803
   24.315   12.5013
   24.330   12.4487
   24.345   12.3749
   24.360   12.2380
   24.375   12.6593
   24.390   12.8278
   24.405   12.3960
   24.420   12.2591
   24.435   12.5750
   24.450   12.3117
   24.465   12.5961
   24.480   13.1754
   24.495   12.7225
   24.510   12.2696
   24.525   11.9115
   24.540   11.7852
   24.555   11.4271
   24.570   10.8268
   24.585   10.7530
   24.600   10.5951
   24.615   10.9215
   24.630   10.3528
   24.645   11.1006
   24.660   11.1427
   24.675   10.6056
   24.690   10.7425
   24.705   10.8794
   24.720   10.7530
   24.735   10.3528
   24.750   10.4055
   24.765   10.8794
   24.780   10.7952
   24.795   11.0795
   24.810   11.0690
   24.825   10.5424
   24.840   10.8162
   24.855   10.6477
   24.870   10.1211
   24.885   10.6161
   24.900   11.0374
   24.915   10.5951
   24.930   10.8794
   24.945   11.0795
   24.960   10.5740
   24.975   10.6056
   24.990   10.9637
   25.005   10.7425
   25.020   10.5424
   25.035   11.0163
   25.050   11.0479
   25.065   10.8373
   25.080   10.4476
   25.095   10.1001
   25.110   10.2686
   25.125   10.5951
   25.140   10.7425
   25.155   10.7425
   25.170   10.7425
   25.185   10.6582
   25.200   10.4371
   25.215   10.6582
   25.230   11.0900
   25.245   10.4476
   25.260   10.6372
   25.275   10.6793
   25.290   10.8794
   25.305   10.4265
   25.320   10.6793
   25.335   10.3633
   25.350   10.4371
   25.365   10.1843
   25.380   10.1738
   25.395   10.9531
   25.410   10.1632
   25.425   10.3318
   25.440   10.4371
   25.455   10.2370
   25.470    9.9737
   25.485   10.8689
   25.500   11.3007
   25.515   10.6372
   25.530   10.6056
   25.545   10.7004
   25.560   10.8057
   25.575   11.1111
   25.590   10.4265
   25.605   10.9215
   25.620   10.4265
   25.635   10.4581
   25.650   10.6477
   25.665   10.8373
   25.680   10.4792
   25.695   10.2054
   25.710   10.5108
   25.725   10.2475
   25.740   10.4687
   25.755   10.9321
   25.770   10.5529
   25.785   10.4476
   25.800   10.2475
   25.815   10.4160
   25.830   10.8162
   25.845   10.7636
   25.860   10.8268
   25.875   11.1532
   25.890   10.4897
   25.905   10.5003
   25.920   10.3107
   25.935   10.8478
   25.950   10.6688
   25.965   10.4687
   25.980   10.0895
   25.995   10.5003
   26.010   10.2791
   26.025   10.6266
   26.040   11.0900
   26.055   10.4371
   26.070   10.5003
   26.085   10.8899
   26.100   10.9005
   26.115   11.1848
   26.130   11.2375
   26.145   10.5319
   26.160   10.4160
   26.175   10.4371
   26.190   10.7952
   26.205   10.9215
   26.220   10.5424
   26.235   10.4160
   26.250   10.6266
   26.265   11.2375
   26.280   10.8689
   26.295   11.2796
   26.310   11.6798
   26.325   11.6166
   26.340   11.6904
   26.355   12.0590
   26.370   12.2170
   26.385   12.0800
   26.400   12.1538
   26.415   11.4587
   26.430   11.5324
   26.445   11.6061
   26.460   11.1006
   26.475   10.9953
   26.490   11.3323
   26.505   10.8057
   26.520   11.5640
   26.535   11.1216
   26.550   11.4692
   26.565   11.0585
   26.580   10.9321
   26.595   11.5008
   26.610   11.3744
   26.625   11.0374
   26.640   11.3428
   26.655   11.4271
   26.670   10.9426
   26.685   11.1111
   26.700   11.1532
   26.715   10.8162
   26.730   10.5424
   26.745   10.7530
   26.760   10.7425
   26.775   10.4160
   26.790   10.7952
   26.805   10.2264
   26.820   10.1632
   26.835    9.9105
   26.850   10.3633
   26.865   10.5845
   26.880   10.5635
   26.895   10.2370
   26.910   10.5951
   26.925   10.6793
   26.940   10.6688
   26.955   10.3528
   26.970   10.9215
   26.985   10.8478
   27.000   10.6688
   27.015   10.5740
   27.030   10.6793
   27.045   10.4265
   27.060   10.1211
   27.075   10.5213
   27.090   10.7004
   27.105   10.5108
   27.120   10.3212
   27.135   10.4581
   27.150   10.3318
   27.165   10.1843
   27.180   10.2686
   27.195   10.4792
   27.210   10.6056
   27.225   10.6688
   27.240   10.3423
   27.255   10.3949
   27.270   10.5740
   27.285   10.2475
   27.300   10.1738
   27.315   10.5003
   27.330   10.8899
   27.345   10.4687
   27.360   10.4160
   27.375   10.5740
   27.390   10.6161
   27.405   10.4265
   27.420   10.4581
   27.435   10.0263
   27.450   10.8162
   27.465   11.0374
   27.480   10.7530
   27.495   10.9321
   27.510   10.6161
   27.525   10.8373
   27.540   10.5529
   27.555   10.5635
   27.570   10.3528
   27.585   10.6898
   27.600   11.3112
   27.615   11.1006
   27.630   10.7214
   27.645   11.1638
   27.660   11.5008
   27.675   11.2270
   27.690   11.5324
   27.705   11.5113
   27.720   10.9742
   27.735   11.7641
   27.750   11.1006
   27.765   10.4476
   27.780   10.9215
   27.795   10.5529
   27.810   10.4265
   27.825   10.6793
   27.840   10.6898
   27.855   10.5213
   27.870   10.3107
   27.885   10.4792
   27.900   10.1316
   27.915    9.9947
   27.930   10.2264
   27.945   10.6266
   27.960   10.9005
   27.975   10.3002
   27.990   10.0895
   28.005    9.9631
   28.020   10.3107
   28.035   10.2054
   28.050   10.4792
   28.065   10.4371
   28.080   10.4055
   28.095   10.3107
   28.110   10.4792
   28.125   10.3528
   28.140   10.1632
   28.155    9.9421
   28.170   10.3633
   28.185   10.1738
   28.200   10.5951
   28.215   10.5740
   28.230   10.2475
   28.245   10.3844
   28.260   10.3002
   28.275   10.9005
   28.290   11.1111
   28.305   10.7109
   28.320   10.5424
   28.335   11.0690
   28.350   10.5951
   28.365   10.5740
   28.380    9.9947
   28.395   10.7530
   28.410   11.0479
   28.425   10.7109
   28.440   10.6898
   28.455   10.0474
   28.470   10.7530
   28.485   10.9321
   28.500   10.7530
   28.515   10.2264
   28.530   10.4581
   28.545   10.7741
   28.560   10.7425
   28.575   10.2791
   28.590   10.1948
   28.605    9.9947
   28.620   10.0369
   28.635   10.3633
   28.650   10.3212
   28.665   10.2264
   28.680   10.5635
   28.695   10.1316
   28.710   10.1422
   28.725    9.9842
   28.740    9.8894
   28.755   10.3739
   28.770   10.2264
   28.785   10.1843
   28.800   10.6688
   28.815   10.1001
   28.830   10.3423
   28.845   10.3002
   28.860   10.3107
   28.875   10.5213
   28.890   10.2686
   28.905   10.3528
   28.920   10.3844
   28.935   10.2791
   28.950    9.6788
   28.965    9.4997
   28.980   10.4371
   28.995   10.3633
   29.010   10.0895
   29.025   10.1843
   29.040   10.2580
   29.055   10.5529
   29.070   10.3949
   29.085   10.0158
   29.100   10.4265
   29.115   10.1527
   29.130   10.1001
   29.145    9.9421
   29.160   10.1843
   29.175   10.1422
   29.190   10.1738
   29.205   10.1316
   29.220   10.1316
   29.235    9.8052
   29.250   10.0790
   29.265   10.4055
   29.280   10.0895
   29.295   10.1632
   29.310   10.1001
   29.325   10.1106
   29.340    9.8999
   29.355   11.0269
   29.370   10.9426
   29.385   10.3844
   29.400   10.4160
   29.415   10.8478
   29.430    9.9421
   29.445   10.3528
   29.460    9.8789
   29.475    9.6788
   29.490   10.3002
   29.505   10.3423
   29.520   10.1001
   29.535    9.9421
   29.550   10.2370
   29.565   10.1527
   29.580   10.3002
   29.595   10.0579
   29.610   10.3318
   29.625   10.8478
   29.640   10.7741
   29.655   10.9215
   29.670   11.0479
   29.685   10.4581
   29.700   10.8162
   29.715   10.6793
   29.730   11.3217
   29.745   11.2059
   29.760   10.3528
   29.775   10.4371
   29.790   10.7741
   29.805   11.0269
   29.820   10.3633
   29.835    9.5524
   29.850   10.1001
   29.865   10.1948
   29.880   10.0790
   29.895   10.2686
   29.910   10.1738
   29.925   10.3212
   29.940   10.2896
   29.955   10.2580
   29.970    9.6577
   29.985    9.8894
   30.000    9.6156
   30.015   10.3739
   30.030   10.4371
   30.045   10.2791
   30.060   10.2896
   30.075   10.0053
   30.090   10.2159
   30.105    9.7841
   30.120    9.7314
   30.135   10.3949
   30.150   10.4476
   30.165    9.8473
   30.180    9.7630
   30.195    9.9526
   30.210   10.2475
   30.225   10.3528
   30.240   10.3107
   30.255   10.2264
   30.270   10.0369
   30.285    9.7104
   30.300    9.9526
   30.315   10.8794
   30.330   10.5319
   30.345    9.9737
   30.360   10.2791
   30.375   10.3318
   30.390   10.3318
   30.405   10.4476
   30.420   10.4265
   30.435   10.9215
   30.450   10.8478
   30.465   10.9847
   30.480   10.3107
   30.495   10.5951
   30.510   10.5213
   30.525   10.1422
   30.540   10.9005
   30.555   10.5108
   30.570   10.3528
   30.585   10.0369
   30.600    9.9737
   30.615   10.4055
   30.630   10.3423
   30.645   10.5635
   30.660   10.3528
   30.675   10.3528
   30.690   10.6266
   30.705   10.9426
   30.720   10.7425
   30.735   10.9005
   30.750   10.7741
   30.765   11.1322
   30.780   11.1848
   30.795   10.4371
   30.810   10.1422
   30.825   10.4265
   30.840   10.3739
   30.855   10.2791
   30.870   10.0474
   30.885   10.3633
   30.900    9.5313
   30.915    9.9947
   30.930    9.7420
   30.945    9.8262
   30.960    9.9421
   30.975    9.6261
   30.990    9.9526
   31.005   10.0790
   31.020   10.3107
   31.035    9.8157
   31.050    9.7104
   31.065   10.2054
   31.080   10.2896
   31.095   10.1422
   31.110   10.1316
   31.125   10.3739
   31.140   10.2054
   31.155   10.2475
   31.170   10.3318
   31.185   10.3212
   31.200   10.3528
   31.215   10.9215
   31.230   11.0374
   31.245   10.0579
   31.260    9.8789
   31.275   10.3949
   31.290   10.4476
   31.305    9.8789
   31.320   10.0053
   31.335   10.6688
   31.350   10.0053
   31.365   10.0685
   31.380   10.6266
   31.395   10.1527
   31.410   10.0474
   31.425    9.9737
   31.440   10.1106
   31.455   10.5529
   31.470   10.1001
   31.485   10.1948
   31.500   10.1948
   31.515    9.8052
   31.530    9.6682
   31.545    9.8157
   31.560    9.8789
   31.575    9.9315
   31.590   10.0053
   31.605   10.0369
   31.620   10.1211
   31.635    9.9842
   31.650   10.1738
   31.665    9.9737
   31.680   10.2686
   31.695    9.8157
   31.710    9.9421
   31.725    9.9947
   31.740   10.1527
   31.755    9.5524
   31.770    9.9842
   31.785   10.0158
   31.800   10.1422
   31.815   10.1211
   31.830   10.1632
   31.845   10.2580
   31.860   10.1422
   31.875    9.8368
   31.890    9.8157
   31.905    9.8052
   31.920   10.0053
   31.935    9.5524
   31.950    9.8052
   31.965   10.3107
   31.980    9.8052
   31.995    9.9421
   32.010   10.3002
   32.025    9.6893
   32.040    9.9105
   32.055   10.0263
   32.070   10.3844
   32.085    9.5735
   32.100   10.2686
   32.115    9.9315
   32.130    9.9210
   32.145   10.0579
   32.160    9.9526
   32.175   10.3844
   32.190   10.3002
   32.205    9.4365
   32.220   10.0474
   32.235    9.9526
   32.250    9.9526
   32.265    9.8052
   32.280    9.9526
   32.295    9.7209
   32.310   10.1738
   32.325   10.1211
   32.340   10.3528
   32.355    9.9105
   32.370    9.3523
   32.385    9.7525
   32.400   10.1632
   32.415    9.7630
   32.430    9.9631
   32.445   10.1632
   32.460   10.0263
   32.475   10.2054
   32.490   10.5635
   32.505   10.3739
   32.520    9.7420
   32.535   10.2686
   32.550   10.0053
   32.565   10.2054
   32.580    9.9105
   32.595   10.0895
   32.610   10.0790
   32.625   10.1106
   32.640    9.9315
   32.655   10.0263
   32.670    9.7841
   32.685    9.9421
   32.700   10.1106
   32.715   10.1316
   32.730   10.0685
   32.745   10.2054
   32.760    9.8578
   32.775    9.8052
   32.790   10.1422
   32.805   10.0053
   32.820    9.7630
   32.835    9.8999
   32.850    9.8262
   32.865    9.8262
   32.880   10.2159
   32.895   10.0895
   32.910    9.9421
   32.925   10.2159
   32.940   10.0158
   32.955   10.2264
   32.970   10.2686
   32.985    9.7630
   33.000    9.6156
   33.015    9.7104
   33.030    9.9842
   33.045    9.7841
   33.060    9.6472
   33.075    9.7209
   33.090    9.8578
   33.105   10.4476
   33.120   10.0053
   33.135    9.3312
   33.150    9.5208
   33.165    9.9210
   33.180   10.0685
   33.195    9.8578
   33.210   10.3528
   33.225   10.2580
   33.240    9.6367
   33.255   10.1422
   33.270   10.5740
   33.285   10.8162
   33.300   10.1422
   33.315    9.9947
   33.330   10.5003
   33.345   10.7425
   33.360   10.5003
   33.375   10.2791
   33.390   10.1001
   33.405   10.4476
   33.420   10.4792
   33.435   10.1632
   33.450   10.2370
   33.465   10.3107
   33.480   10.0579
   33.495   10.3739
   33.510    9.9737
   33.525    9.4997
   33.540    9.8578
   33.555   10.2475
   33.570    9.9631
   33.585    9.7630
   33.600    9.6261
   33.615    9.2259
   33.630    9.8368
   33.645    9.6156
   33.660    9.5629
   33.675    9.8894
   33.690    9.7736
   33.705    9.2680
   33.720    9.3734
   33.735    9.6051
   33.750    9.4787
   33.765    9.8157
   33.780   10.0685
   33.795    9.9526
   33.810   10.1527
   33.825    9.5419
   33.840    9.2575
   33.855    9.9210
   33.870   10.2159
   33.885    9.4892
   33.900    9.6893
   33.915   10.1632
   33.930    9.9210
   33.945   10.5319
   33.960    9.9315
   33.975    9.8368
   33.990   10.1316
   34.005    9.9210
   34.020   10.4160
   34.035    9.9842
   34.050    9.7104
   34.065    9.5840
   34.080    9.9421
   34.095   10.4687
   34.110   10.6477
   34.125    9.8473
   34.140    9.4155
   34.155   10.0474
   34.170   10.4160
   34.185   10.4476
   34.200   10.0895
   34.215   10.2791
   34.230   10.3107
   34.245   10.9110
   34.260   10.3002
   34.275   10.5740
   34.290   10.4055
   34.305   10.1527
   34.320    9.8473
   34.335   10.2370
   34.350   10.2054
   34.365   10.0369
   34.380    9.7104
   34.395    9.4681
   34.410    9.5208
   34.425    9.0995
   34.440    9.8157
   34.455    9.9737
   34.470   10.0158
   34.485    9.4681
   34.500    9.7630
   34.515    9.4365
   34.530    9.5735
   34.545    9.4787
   34.560   10.0579
   34.575    9.5840
   34.590    9.4787
   34.605    9.4681
   34.620    9.3207
   34.635    9.6051
   34.650   10.1001
   34.665    9.5208
   34.680    9.7946
   34.695    9.7841
   34.710    9.7736
   34.725    9.2575
   34.740   10.0790
   34.755   10.4897
   34.770   10.9742
   34.785   10.8057
   34.800   10.7425
   34.815   10.2370
   34.830   10.1632
   34.845   10.4265
   34.860   10.9953
   34.875   10.7530
   34.890   10.4160
   34.905   10.5845
   34.920   10.7846
   34.935   10.3107
   34.950   10.0053
   34.965    9.6682
   34.980   10.1001
   34.995   10.1632
   35.010    9.6156
   35.025    9.7841
   35.040    9.8578
   35.055    9.2575
   35.070    9.5419
   35.085   10.2475
   35.100   10.0053
   35.115    9.7209
   35.130    9.7630
   35.145   10.2686
   35.160   10.3949
   35.175    9.7946
   35.190    9.9315
   35.205   10.1948
   35.220    9.7525
   35.235    9.6261
   35.250    9.3312
   35.265   10.0895
   35.280    9.8052
   35.295    9.3102
   35.310    9.6472
   35.325    9.5313
   35.340    9.6998
   35.355    9.4787
   35.370    9.2996
   35.385    9.3207
   35.400    9.3944
   35.415    9.8052
   35.430    9.8368
   35.445    9.3102
   35.460    9.4155
   35.475    9.8894
   35.490    9.4787
   35.505    9.4681
   35.520    9.7525
   35.535    9.7104
   35.550    9.5629
   35.565    9.6156
   35.580    9.5419
   35.595    9.6577
   35.610    9.7314
   35.625    9.9210
   35.640    9.9315
   35.655    9.6367
   35.670   10.3107
   35.685   10.3633
   35.700   10.3633
   35.715   10.1422
   35.730    9.8999
   35.745    9.4997
   35.760    9.3102
   35.775    9.8684
   35.790   10.0579
   35.805   10.1316
   35.820   10.1106
   35.835    9.8999
   35.850    9.4365
   35.865    9.7736
   35.880    9.8473
   35.895    9.6893
   35.910    9.3944
   35.925    9.3944
   35.940    9.5840
   35.955    9.7630
   35.970    9.6472
   35.985    9.5524
   36.000    9.4787
   36.015    9.1838
   36.030    9.5735
   36.045    9.5524
   36.060    9.4050
   36.075    9.4365
   36.090    9.7841
   36.105    9.8262
   36.120    9.0469
   36.135    9.1838
   36.150    9.5840
   36.165    9.3628
   36.180    9.6051
   36.195    9.3312
   36.210    8.8784
   36.225    9.2680
   36.240    9.9526
   36.255    9.4155
   36.270    9.3628
   36.285    9.5629
   36.300    8.8784
   36.315    9.7104
   36.330    9.6577
   36.345    9.4997
   36.360    9.2259
   36.375    9.5840
   36.390    9.4681
   36.405    9.4365
   36.420    9.8052
   36.435    9.4681
   36.450    9.0047
   36.465    9.5735
   36.480    9.5419
   36.495    9.8684
   36.510    9.3734
   36.525    9.8052
   36.540    9.8789
   36.555    9.7946
   36.570    9.3628
   36.585    9.5419
   36.600    9.1627
   36.615    9.4681
   36.630    9.4576
   36.645    9.6367
   36.660    9.4787
   36.675    9.5208
   36.690    9.6051
   36.705    9.5735
   36.720    9.6261
   36.735    9.2154
   36.750    9.5735
   36.765    9.6788
   36.780    9.4681
   36.795    9.6577
   36.810    8.9731
   36.825    9.0785
   36.840    9.0890
   36.855    9.2680
   36.870    9.4260
   36.885    9.4892
   36.900    9.1838
   36.915    9.2680
   36.930    9.3839
   36.945    9.7209
   36.960    9.5735
   36.975    9.5735
   36.990    9.4681
   37.005    9.4787
   37.020    9.2680
   37.035    9.2786
   37.050    9.3734
   37.065    9.2786
   37.080    9.5103
   37.095    9.5103
   37.110    9.3734
   37.125    9.2259
   37.140    9.3523
   37.155    9.4155
   37.170    9.2470
   37.185    9.2996
   37.200   10.1001
   37.215    9.7209
   37.230   10.0895
   37.245    9.7420
   37.260    9.3944
   37.275    9.3312
   37.290    9.3523
   37.305    9.2680
   37.320    9.2364
   37.335    9.8473
   37.350    9.3312
   37.365    8.9415
   37.380    9.8578
   37.395    9.5840
   37.410    9.5945
   37.425    9.4892
   37.440    9.5103
   37.455    9.4050
   37.470    9.3418
   37.485    9.6261
   37.500    9.5945
   37.515    9.4576
   37.530    9.6788
   37.545    9.4471
   37.560    9.8789
   37.575    9.2259
   37.590    9.6682
   37.605   10.1632
   37.620   10.1843
   37.635   10.1948
   37.650    9.9210
   37.665    9.6367
   37.680    9.2891
   37.695    9.6788
   37.710    9.7736
   37.725    9.5629
   37.740    9.7630
   37.755    9.6156
   37.770    9.6577
   37.785    9.4892
   37.800    9.6367
   37.815    9.3944
   37.830    9.4155
   37.845    9.1732
   37.860    9.4155
   37.875    9.3312
   37.890    9.6577
   37.905    9.4787
   37.920    9.8473
   37.935    9.2575
   37.950    9.5524
   37.965    9.9421
   37.980    9.9105
   37.995   10.4265
   38.010    9.7946
   38.025    9.7946
   38.040    9.6577
   38.055    9.6893
   38.070    9.6051
   38.085    9.5419
   38.100    9.5840
   38.115    9.2575
   38.130    9.4471
   38.145    9.1627
   38.160    9.4260
   38.175    9.4576
   38.190    9.2786
   38.205    9.2259
   38.220    9.4576
   38.235    9.2680
   38.250    9.5103
   38.265   10.6582
   38.280   10.0474
   38.295   10.1106
   38.310    9.7630
   38.325   10.0158
   38.340    9.7841
   38.355    9.8789
   38.370   10.2370
   38.385    9.8894
   38.400    9.7841
   38.415    9.7209
   38.430    9.8684
   38.445    9.6367
   38.460    9.6788
   38.475    9.6261
   38.490    9.5313
   38.505    9.3207
   38.520    9.2680
   38.535    9.2575
   38.550    9.3839
   38.565    9.7314
   38.580    9.4365
   38.595    9.4365
   38.610    9.7630
   38.625    9.5735
   38.640    9.2154
   38.655    9.8999
   38.670    9.4997
   38.685    9.2891
   38.700    9.8262
   38.715    9.5103
   38.730    9.5945
   38.745    9.6998
   38.760   10.5635
   38.775    9.6788
   38.790    9.6051
   38.805    9.7525
   38.820    9.9105
   38.835    9.7420
   38.850    9.6156
   38.865    9.5945
   38.880    9.4576
   38.895    9.2048
   38.910    9.2575
   38.925    9.1732
   38.940    9.4155
   38.955    9.7209
   38.970    9.6788
   38.985    9.4260
   39.000    9.3523
   39.015    9.9737
   39.030    9.9315
   39.045   10.1316
   39.060    9.9737
   39.075    9.8578
   39.090    9.9947
   39.105   10.2159
   39.120    9.6367
   39.135   10.1948
   39.150   10.1106
   39.165   10.1316
   39.180    9.9526
   39.195    9.6682
   39.210   10.2896
   39.225   10.0369
   39.240    9.6998
   39.255   10.2580
   39.270    9.8368
   39.285    9.7104
   39.300    9.6472
   39.315    9.8473
   39.330    9.6472
   39.345    9.4997
   39.360    8.8994
   39.375    9.1417
   39.390    9.9210
   39.405    9.4155
   39.420    9.7736
   39.435    9.5208
   39.450    9.4155
   39.465    9.1311
   39.480    9.5313
   39.495    9.3523
   39.510    9.5208
   39.525    9.5103
   39.540    9.0363
   39.555    8.8257
   39.570    9.0469
   39.585    9.1627
   39.600    9.4787
   39.615    9.5524
   39.630    8.8362
   39.645    8.9205
   39.660    9.6051
   39.675    9.4471
   39.690    9.5945
   39.705    9.2575
   39.720    9.2786
   39.735    9.8684
   39.750    9.7630
   39.765    9.5629
   39.780    9.4892
   39.795    9.7736
   39.810    9.5208
   39.825    9.8052
   39.840    9.5419
   39.855    9.5629
   39.870    9.2470
   39.885    9.8157
   39.900   10.0053
   39.915    9.6261
   39.930    9.7841
   39.945    9.8052
   39.960    9.6367
   39.975    9.5629
   39.990    9.5840
