    1.500   21.1164
    1.515   21.1690
    1.530   21.0637
    1.545   21.0462
    1.560   21.3270
    1.575   19.8877
    1.590   19.3084
    1.605   20.1685
    1.620   19.3260
    1.635   19.3611
    1.650   18.9398
    1.665   19.3611
    1.680   17.7111
    1.695   17.6058
    1.710   17.0265
    1.725   18.2377
    1.740   16.9387
    1.755   16.4473
    1.770   17.5531
    1.785   17.3776
    1.800   16.2191
    1.815   16.5701
    1.830   16.2015
    1.845   15.1483
    1.860   15.7802
    1.875   15.5872
    1.890   15.7978
    1.905   15.1308
    1.920   14.7446
    1.935   14.7973
    1.950   14.3935
    1.965   15.1132
    1.980   14.5866
    1.995   14.0074
    2.010   14.0425
    2.025   14.6568
    2.040   14.1829
    2.055   13.9021
    2.070   13.6212
    2.085   14.1127
    2.100   13.3228
    2.115   13.5861
    2.130   14.3233
    2.145   13.0420
    2.160   13.6212
    2.175   13.5861
    2.190   13.5334
    2.205   13.4983
    2.220   13.2526
    2.235   13.4632
    2.250   13.8494
    2.265   13.7616
    2.280   13.9196
    2.295   13.7265
    2.310   12.7611
    2.325   12.4627
    2.340   13.1648
    2.355   13.0244
    2.370   12.9191
    2.385   12.7611
    2.400   13.0244
    2.415   13.1648
    2.430   13.7441
    2.445   13.0420
    2.460   13.2526
    2.475   12.9366
    2.490   13.7967
    2.505   13.7265
    2.520   13.4808
    2.535   12.8313
    2.550   12.9015
    2.565   13.1297
    2.580   12.7962
    2.595   12.9191
    2.610   13.1297
    2.625   13.4808
    2.640   13.8845
    2.655   13.7441
    2.670   13.1648
    2.685   12.9893
    2.700   13.1297
    2.715   13.8669
    2.730   13.7616
    2.745   13.4281
    2.760   13.1648
    2.775   14.3058
    2.790   13.9723
    2.805   14.6042
    2.820   14.3584
    2.835   15.0606
    2.850   14.9728
    2.865   15.3063
    2.880   14.6042
    2.895   14.9377
    2.910   14.7797
    2.925   15.2185
    2.940   15.0781
    2.955   15.4994
    2.970   15.5520
    2.985   16.7106
    3.000   16.8334
    3.015   16.1840
    3.030   16.3419
    3.045   16.6754
    3.060   16.8685
    3.075   17.2722
    3.090   17.4478
    3.105   17.7988
    3.120   18.3956
    3.135   17.9919
    3.150   18.6765
    3.165   18.3781
    3.180   19.2206
    3.195   19.9052
    3.210   20.5020
    3.225   19.7999
    3.240   20.2212
    3.255   21.2744
    3.270   21.8361
    3.285   22.1520
    3.300   22.5031
    3.315   24.1004
    3.330   22.5382
    3.345   23.8371
    3.360   24.5392
    3.375   25.3467
    3.390   26.3999
    3.405   26.7509
    3.420   27.7339
    3.435   28.3658
    3.450   30.1211
    3.465   30.9461
    3.480   32.0169
    3.495   33.2105
    3.510   34.8780
    3.525   34.8429
    3.540   35.3870
    3.555   37.5110
    3.570   39.0732
    3.585   41.8641
    3.600   42.8822
    3.615   46.0593
    3.630   46.7966
    3.645   50.5880
    3.660   53.3439
    3.675   54.7481
    3.690   59.1364
    3.705   62.4188
    3.720   66.0699
    3.735   72.0379
    3.750   79.7086
    3.765   87.9059
    3.780   97.1564
    3.795  112.6909
    3.810  133.4211
    3.825  148.2710
    3.840  154.1864
    3.855  144.6200
    3.870  124.9605
    3.885   95.5591
    3.900   62.1555
    3.915   36.4402
    3.930   21.2217
    3.945   15.0079
    3.960   12.1292
    3.975   11.0058
    3.990   10.3212
    4.005    9.4962
    4.020    9.6367
    4.035    9.0925
    4.050    9.0398
    4.065    9.0047
    4.080    9.0398
    4.095    8.8819
    4.110    8.2324
    4.125    8.0920
    4.140    8.5659
    4.155    8.6010
    4.170    8.3904
    4.185    8.4957
    4.200    8.5484
    4.215    8.3904
    4.230    7.6707
    4.245    7.7585
    4.260    8.1095
    4.275    8.1973
    4.290    8.3553
    4.305    7.6883
    4.320    7.7936
    4.335    7.7234
    4.350    7.7585
    4.365    8.1271
    4.380    8.1095
    4.395    7.8638
    4.410    7.5478
    4.425    7.8462
    4.440    7.8813
    4.455    7.8287
    4.470    7.4074
    4.485    7.7409
    4.500    7.7760
    4.515    7.5654
    4.530    7.4601
    4.545    7.9340
    4.560    8.3904
    4.575    7.4601
    4.590    7.7936
    4.605    6.8808
    4.620    7.4250
    4.635    7.1266
    4.650    7.4601
    4.665    7.2845
    4.680    7.3196
    4.695    7.6180
    4.710    7.6883
    4.725    7.7058
    4.740    7.9516
    4.755    7.4601
    4.770    7.2319
    4.785    7.6356
    4.800    7.5303
    4.815    7.7585
    4.830    7.5478
    4.845    8.0042
    4.860    8.0569
    4.875    7.5654
    4.890    7.5654
    4.905    7.7936
    4.920    7.9691
    4.935    8.4255
    4.950    8.0042
    4.965    8.4079
    4.980    8.5133
    4.995    8.4255
    5.010    8.0569
    5.025    8.5835
    5.040    8.2500
    5.055    7.9164
    5.070    8.8117
    5.085    8.5484
    5.100    8.9170
    5.115    9.3031
    5.130    9.4787
    5.145    9.6542
    5.160    9.5138
    5.175   10.3914
    5.190   10.7776
    5.205    9.9351
    5.220   10.5143
    5.235   10.6723
    5.250    9.9526
    5.265   11.3569
    5.280   11.5675
    5.295   11.6377
    5.310   12.7787
    5.325   13.3228
    5.340   13.6388
    5.355   14.7973
    5.370   15.0430
    5.385   16.1489
    5.400   17.8866
    5.415   19.0451
    5.430   21.5903
    5.445   24.6270
    5.460   26.2243
    5.475   25.4169
    5.490   23.3456
    5.505   19.3435
    5.520   14.5691
    5.535   11.3217
    5.550    8.7590
    5.565    7.8638
    5.580    7.7234
    5.595    6.6351
    5.610    7.0037
    5.625    6.4069
    5.640    6.4946
    5.655    6.6000
    5.670    6.9686
    5.685    6.9861
    5.700    6.7930
    5.715    6.5824
    5.730    6.5298
    5.745    6.5649
    5.760    6.4595
    5.775    6.2489
    5.790    6.3542
    5.805    6.8633
    5.820    6.5122
    5.835    6.1436
    5.850    6.8106
    5.865    6.6702
    5.880    6.5298
    5.895    6.4946
    5.910    6.7228
    5.925    6.3893
    5.940    6.5649
    5.955    6.9686
    5.970    6.8808
    5.985    6.7930
    6.000    6.3542
    6.015    6.5298
    6.030    7.0037
    6.045    7.0037
    6.060    6.7404
    6.075    6.6000
    6.090    6.6877
    6.105    6.6526
    6.120    6.8282
    6.135    6.9159
    6.150    6.8984
    6.165    6.9861
    6.180    7.2670
    6.195    6.7053
    6.210    7.1792
    6.225    6.8808
    6.240    6.7930
    6.255    6.6526
    6.270    6.6526
    6.285    6.8984
    6.300    7.1266
    6.315    7.6356
    6.330    7.0388
    6.345    7.0563
    6.360    7.1441
    6.375    7.0563
    6.390    7.3723
    6.405    7.8111
    6.420    7.5829
    6.435    7.6532
    6.450    8.2324
    6.465    7.8638
    6.480    7.5478
    6.495    7.3547
    6.510    7.5303
    6.525    8.1622
    6.540    8.7590
    6.555    8.4781
    6.570    9.5489
    6.585    9.6015
    6.600    9.3207
    6.615   10.1983
    6.630   10.6196
    6.645   11.2340
    6.660   11.6202
    6.675   12.7260
    6.690   13.2526
    6.705   14.4111
    6.720   15.0255
    6.735   13.9547
    6.750   12.1819
    6.765   10.0755
    6.780    8.3728
    6.795    7.4074
    6.810    7.0739
    6.825    6.8106
    6.840    6.8808
    6.855    6.9861
    6.870    6.1611
    6.885    6.7755
    6.900    6.5473
    6.915    6.5122
    6.930    6.0909
    6.945    6.2665
    6.960    6.3016
    6.975    6.8282
    6.990    6.5122
    7.005    6.4069
    7.020    6.4420
    7.035    6.1436
    7.050    6.1611
    7.065    6.5122
    7.080    6.1962
    7.095    6.2313
    7.110    6.4069
    7.125    6.5824
    7.140    5.9154
    7.155    6.6175
    7.170    5.9329
    7.185    5.8452
    7.200    6.3893
    7.215    5.8803
    7.230    5.9681
    7.245    6.0558
    7.260    6.6526
    7.275    6.7930
    7.290    6.6877
    7.305    6.5298
    7.320    6.3191
    7.335    6.1260
    7.350    6.3016
    7.365    5.9856
    7.380    6.5824
    7.395    7.0037
    7.410    6.9686
    7.425    6.1962
    7.440    6.6526
    7.455    6.9686
    7.470    6.7930
    7.485    7.0739
    7.500    7.2845
    7.515    7.2143
    7.530    6.5122
    7.545    7.0563
    7.560    7.5654
    7.575    7.5478
    7.590    7.1441
    7.605    7.3196
    7.620    7.6883
    7.635    7.7058
    7.650    8.4957
    7.665    8.7941
    7.680    8.6537
    7.695    9.0047
    7.710    9.5138
    7.725   10.8478
    7.740   11.2691
    7.755   11.3744
    7.770   11.5499
    7.785   10.7952
    7.800   10.1281
    7.815    9.4436
    7.830    7.4776
    7.845    6.7228
    7.860    6.4595
    7.875    6.2840
    7.890    6.2665
    7.905    5.9505
    7.920    6.1260
    7.935    5.9505
    7.950    5.7048
    7.965    6.1260
    7.980    5.9329
    7.995    6.4420
    8.010    6.3718
    8.025    5.8276
    8.040    5.7574
    8.055    6.2665
    8.070    6.1085
    8.085    6.2489
    8.100    5.9856
    8.115    5.7048
    8.130    5.8978
    8.145    5.6170
    8.160    5.9329
    8.175    5.8101
    8.190    6.0207
    8.205    5.9681
    8.220    5.9681
    8.235    6.3718
    8.250    6.2313
    8.265    5.9154
    8.280    6.0207
    8.295    6.0909
    8.310    5.8803
    8.325    6.1260
    8.340    6.4946
    8.355    5.8627
    8.370    5.9154
    8.385    5.8978
    8.400    6.1085
    8.415    5.9154
    8.430    6.0207
    8.445    6.4244
    8.460    6.2840
    8.475    6.3191
    8.490    6.4946
    8.505    6.6175
    8.520    6.8633
    8.535    6.2489
    8.550    6.1085
    8.565    6.0558
    8.580    5.8803
    8.595    6.1611
    8.610    6.4244
    8.625    6.6351
    8.640    6.3718
    8.655    6.8633
    8.670    7.2143
    8.685    7.1792
    8.700    7.1968
    8.715    7.3196
    8.730    6.8106
    8.745    6.1787
    8.760    5.8452
    8.775    5.9856
    8.790    5.9329
    8.805    5.6345
    8.820    5.6872
    8.835    5.8101
    8.850    5.4941
    8.865    6.4595
    8.880    6.1085
    8.895    5.7750
    8.910    5.8452
    8.925    5.9329
    8.940    5.3537
    8.955    5.3888
    8.970    6.0558
    8.985    6.0032
    9.000    6.3016
    9.015    6.2313
    9.030    6.2489
    9.045    6.4244
    9.060    6.2489
    9.075    6.5824
    9.090    6.4946
    9.105    6.1436
    9.120    6.6351
    9.135    6.7930
    9.150    6.9159
    9.165    6.6877
    9.180    6.6877
    9.195    7.0037
    9.210    7.0212
    9.225    6.7755
    9.240    7.6005
    9.255    7.7058
    9.270    7.9164
    9.285    8.3904
    9.300    8.0042
    9.315    8.6712
    9.330    9.0925
    9.345    9.6367
    9.360    9.3734
    9.375   10.3739
    9.390   10.7776
    9.405   12.0765
    9.420   12.5329
    9.435   13.7090
    9.450   15.5345
    9.465   17.0967
    9.480   19.6068
    9.495   22.0116
    9.510   24.1531
    9.525   25.6275
    9.540   23.2579
    9.555   21.5025
    9.570   18.9925
    9.585   14.1127
    9.600   11.5675
    9.615    8.6010
    9.630    7.4074
    9.645    6.5298
    9.660    5.9681
    9.675    6.2840
    9.690    6.5122
    9.705    6.3542
    9.720    6.4946
    9.735    6.5649
    9.750    6.1085
    9.765    6.3016
    9.780    6.3718
    9.795    6.3367
    9.810    6.4069
    9.825    6.0734
    9.840    5.8452
    9.855    6.3191
    9.870    6.4244
    9.885    6.1436
    9.900    6.6351
    9.915    6.5122
    9.930    6.2665
    9.945    6.3367
    9.960    6.1787
    9.975    6.0032
    9.990    6.2665
   10.005    6.9686
   10.020    6.4069
   10.035    6.4771
   10.050    6.7228
   10.065    6.7755
   10.080    6.9861
   10.095    7.3021
   10.110    7.3899
   10.125    7.5654
   10.140    7.8989
   10.155    8.0042
   10.170    8.2500
   10.185    9.0925
   10.200    8.8292
   10.215    9.7595
   10.230   10.4090
   10.245   11.2164
   10.260   13.3228
   10.275   14.6393
   10.290   15.0255
   10.305   15.2536
   10.320   14.1829
   10.335   13.0946
   10.350   11.5675
   10.365    9.4787
   10.380    7.6883
   10.395    6.9159
   10.410    6.4595
   10.425    5.9681
   10.440    5.9154
   10.455    5.4590
   10.470    6.2665
   10.485    6.1260
   10.500    6.0032
   10.515    5.7574
   10.530    5.8978
   10.545    5.8803
   10.560    6.0032
   10.575    5.7223
   10.590    5.8101
   10.605    5.8452
   10.620    5.8101
   10.635    5.5994
   10.650    5.7223
   10.665    5.8803
   10.680    6.0734
   10.695    6.1085
   10.710    6.6526
   10.725    6.1611
   10.740    5.8627
   10.755    6.6702
   10.770    6.3016
   10.785    6.3718
   10.800    6.1085
   10.815    6.8984
   10.830    6.8106
   10.845    7.0739
   10.860    6.4069
   10.875    7.2143
   10.890    7.7409
   10.905    7.6356
   10.920    8.0218
   10.935    8.5835
   10.950    8.7239
   10.965    9.3382
   10.980   10.8829
   10.995   11.3569
   11.010   12.0765
   11.025   12.1643
   11.040   11.4973
   11.055   10.4441
   11.070    8.6712
   11.085    7.6707
   11.100    6.8106
   11.115    6.3367
   11.130    5.8803
   11.145    5.5468
   11.160    6.0734
   11.175    5.7574
   11.190    5.7048
   11.205    5.7750
   11.220    5.7574
   11.235    6.5122
   11.250    5.8803
   11.265    6.1436
   11.280    5.3888
   11.295    5.5468
   11.310    6.2313
   11.325    6.0909
   11.340    5.7399
   11.355    5.8803
   11.370    6.2313
   11.385    5.7048
   11.400    5.9856
   11.415    6.4595
   11.430    6.6175
   11.445    6.9159
   11.460    6.7755
   11.475    6.2138
   11.490    6.4595
   11.505    6.7755
   11.520    6.9510
   11.535    7.1617
   11.550    7.4601
   11.565    8.0744
   11.580    7.9516
   11.595    8.0042
   11.610    9.0223
   11.625    9.6542
   11.640   10.1808
   11.655   11.2164
   11.670   11.8659
   11.685   13.0420
   11.700   12.7962
   11.715   12.6382
   11.730   11.1462
   11.745    9.2329
   11.760    7.8287
   11.775    6.8106
   11.790    6.1260
   11.805    6.5122
   11.820    5.8803
   11.835    5.6697
   11.850    5.6521
   11.865    6.0734
   11.880    5.7750
   11.895    6.2138
   11.910    5.6521
   11.925    6.0207
   11.940    6.0558
   11.955    6.0734
   11.970    6.1611
   11.985    5.4941
   12.000    5.3712
   12.015    5.0904
   12.030    5.1782
   12.045    5.4415
   12.060    5.2484
   12.075    5.9329
   12.090    6.1962
   12.105    6.1611
   12.120    5.5819
   12.135    5.5468
   12.150    5.8803
   12.165    5.4590
   12.180    5.8452
   12.195    5.7223
   12.210    5.8452
   12.225    5.7399
   12.240    6.2138
   12.255    6.1962
   12.270    6.5649
   12.285    6.6351
   12.300    6.6702
   12.315    6.8282
   12.330    6.3718
   12.345    6.4420
   12.360    6.4946
   12.375    5.9329
   12.390    6.0207
   12.405    5.4766
   12.420    6.1436
   12.435    6.2313
   12.450    5.7399
   12.465    5.7925
   12.480    5.8452
   12.495    5.8803
   12.510    5.1957
   12.525    5.5117
   12.540    6.1085
   12.555    5.8627
   12.570    5.6872
   12.585    6.1260
   12.600    6.0558
   12.615    5.9154
   12.630    6.0558
   12.645    5.8276
   12.660    5.9329
   12.675    5.8452
   12.690    6.2489
   12.705    5.6170
   12.720    5.5292
   12.735    6.4771
   12.750    6.6000
   12.765    6.5122
   12.780    6.3367
   12.795    6.6000
   12.810    6.5298
   12.825    6.8984
   12.840    7.7936
   12.855    8.6361
   12.870    8.5835
   12.885    9.1276
   12.900    9.9351
   12.915   11.8483
   12.930   12.1116
   12.945   11.6728
   12.960   11.0409
   12.975   10.3388
   12.990    8.6010
   13.005    7.7760
   13.020    7.3196
   13.035    6.8106
   13.050    6.3191
   13.065    5.8627
   13.080    5.4064
   13.095    5.7750
   13.110    6.1787
   13.125    5.8627
   13.140    5.7399
   13.155    5.9505
   13.170    5.5117
   13.185    5.8803
   13.200    5.6521
   13.215    5.5643
   13.230    5.4415
   13.245    5.2835
   13.260    5.5994
   13.275    5.8452
   13.290    6.1085
   13.305    5.8627
   13.320    5.5819
   13.335    5.9681
   13.350    5.5994
   13.365    5.3712
   13.380    6.1436
   13.395    5.9856
   13.410    6.1436
   13.425    6.2665
   13.440    7.0915
   13.455    7.0739
   13.470    7.0915
   13.485    7.4601
   13.500    7.8813
   13.515    8.1446
   13.530    7.7936
   13.545    7.7234
   13.560    6.6702
   13.575    6.6702
   13.590    6.6702
   13.605    6.1962
   13.620    5.6345
   13.635    6.0207
   13.650    5.4064
   13.665    5.2484
   13.680    5.3888
   13.695    5.8101
   13.710    5.7048
   13.725    5.7574
   13.740    5.4239
   13.755    5.1606
   13.770    5.0904
   13.785    5.5643
   13.800    5.7399
   13.815    6.1436
   13.830    5.8101
   13.845    5.8978
   13.860    5.8452
   13.875    5.7925
   13.890    6.0207
   13.905    5.9505
   13.920    6.0207
   13.935    5.7399
   13.950    6.1962
   13.965    6.1085
   13.980    6.4946
   13.995    5.7574
   14.010    6.5298
   14.025    7.4250
   14.040    7.4250
   14.055    7.7760
   14.070    8.6186
   14.085    8.7063
   14.100    7.8813
   14.115    7.9516
   14.130    6.5122
   14.145    6.3367
   14.160    5.9856
   14.175    6.0207
   14.190    5.5292
   14.205    5.6697
   14.220    5.3888
   14.235    5.7925
   14.250    5.8978
   14.265    5.4766
   14.280    5.4590
   14.295    5.2133
   14.310    5.2835
   14.325    5.3888
   14.340    5.9505
   14.355    5.8276
   14.370    5.5292
   14.385    5.5292
   14.400    4.9500
   14.415    5.7750
   14.430    5.6521
   14.445    5.1080
   14.460    5.5994
   14.475    5.3888
   14.490    6.2489
   14.505    5.2484
   14.520    5.3010
   14.535    5.3361
   14.550    5.6697
   14.565    5.1431
   14.580    5.4239
   14.595    5.2133
   14.610    5.6697
   14.625    5.6521
   14.640    5.5994
   14.655    5.7048
   14.670    5.6345
   14.685    5.4239
   14.700    5.4239
   14.715    5.6872
   14.730    5.4766
   14.745    5.2659
   14.760    5.1431
   14.775    5.7750
   14.790    5.4766
   14.805    5.2484
   14.820    5.4415
   14.835    5.4239
   14.850    5.7399
   14.865    5.4064
   14.880    5.4239
   14.895    5.5643
   14.910    5.5994
   14.925    5.9154
   14.940    5.6521
   14.955    5.7223
   14.970    5.5819
   14.985    5.4239
   15.000    6.1436
   15.015    6.1260
   15.030    5.8627
   15.045    6.1085
   15.060    6.0383
   15.075    5.8276
   15.090    6.2840
   15.105    6.0383
   15.120    6.4595
   15.135    6.7053
   15.150    6.9686
   15.165    6.6877
   15.180    6.3542
   15.195    6.0383
   15.210    5.8276
   15.225    5.7399
   15.240    5.0553
   15.255    5.4590
   15.270    5.4064
   15.285    5.6170
   15.300    5.2659
   15.315    4.9324
   15.330    5.5468
   15.345    6.0032
   15.360    5.8276
   15.375    5.7925
   15.390    5.5468
   15.405    5.5643
   15.420    5.5117
   15.435    5.3361
   15.450    5.5643
   15.465    5.5819
   15.480    5.6345
   15.495    5.2835
   15.510    5.3186
   15.525    5.6170
   15.540    5.3361
   15.555    5.3361
   15.570    5.1957
   15.585    5.3010
   15.600    5.3361
   15.615    5.5292
   15.630    5.3888
   15.645    5.1957
   15.660    5.2835
   15.675    5.4766
   15.690    5.0728
   15.705    5.6521
   15.720    5.1782
   15.735    5.6872
   15.750    5.4064
   15.765    6.1962
   15.780    5.8276
   15.795    5.7574
   15.810    5.7925
   15.825    6.0383
   15.840    5.9329
   15.855    5.8978
   15.870    5.3010
   15.885    5.5994
   15.900    5.6170
   15.915    5.7223
   15.930    5.6170
   15.945    5.2484
   15.960    5.4941
   15.975    5.6521
   15.990    5.8978
   16.005    5.3537
   16.020    5.8101
   16.035    6.4595
   16.050    6.5649
   16.065    6.2665
   16.080    6.1611
   16.095    7.2319
   16.110    6.7579
   16.125    7.4601
   16.140    7.4601
   16.155    7.3021
   16.170    6.9335
   16.185    5.9856
   16.200    6.1611
   16.215    6.1260
   16.230    5.5819
   16.245    5.5468
   16.260    5.8978
   16.275    5.5994
   16.290    5.4239
   16.305    5.5643
   16.320    5.7048
   16.335    6.0383
   16.350    5.7223
   16.365    5.9154
   16.380    5.9505
   16.395    5.8101
   16.410    6.0909
   16.425    6.0032
   16.440    5.9329
   16.455    5.7925
   16.470    5.6697
   16.485    5.6345
   16.500    6.4420
   16.515    6.7404
   16.530    6.6175
   16.545    6.6702
   16.560    7.4425
   16.575    7.6883
   16.590    7.8287
   16.605    7.7234
   16.620    8.0569
   16.635    7.3372
   16.650    6.2489
   16.665    5.9329
   16.680    5.6345
   16.695    5.7750
   16.710    5.6697
   16.725    5.8452
   16.740    5.9505
   16.755    5.9505
   16.770    5.5292
   16.785    6.1611
   16.800    5.6170
   16.815    5.3712
   16.830    5.7399
   16.845    5.8627
   16.860    5.9856
   16.875    5.6872
   16.890    6.5473
   16.905    6.1260
   16.920    6.6526
   16.935    6.4420
   16.950    6.5824
   16.965    7.2845
   16.980    7.2494
   16.995    7.8287
   17.010    8.7941
   17.025    9.0925
   17.040    9.7771
   17.055    9.6191
   17.070    9.0750
   17.085    8.6537
   17.100    8.4079
   17.115    7.6707
   17.130    7.0915
   17.145    6.1085
   17.160    6.0909
   17.175    6.1611
   17.190    5.3010
   17.205    5.7223
   17.220    5.7048
   17.235    5.5819
   17.250    5.9329
   17.265    6.0383
   17.280    5.9329
   17.295    5.9505
   17.310    5.7399
   17.325    6.2665
   17.340    6.2313
   17.355    5.7399
   17.370    5.6521
   17.385    5.6697
   17.400    5.5292
   17.415    5.9329
   17.430    5.8978
   17.445    6.4595
   17.460    6.1085
   17.475    6.6351
   17.490    5.7223
   17.505    6.3718
   17.520    6.1260
   17.535    5.9856
   17.550    5.5643
   17.565    5.5994
   17.580    5.7574
   17.595    5.9329
   17.610    5.1431
   17.625    5.1255
   17.640    5.5819
   17.655    5.5994
   17.670    5.6697
   17.685    5.5468
   17.700    5.7750
   17.715    5.8803
   17.730    5.7223
   17.745    5.8452
   17.760    6.1085
   17.775    5.7048
   17.790    5.8978
   17.805    6.2313
   17.820    5.8276
   17.835    5.7925
   17.850    6.0558
   17.865    5.8101
   17.880    6.2489
   17.895    5.9505
   17.910    6.2840
   17.925    6.5298
   17.940    6.6351
   17.955    6.0558
   17.970    6.7053
   17.985    6.3718
   18.000    5.7048
   18.015    6.0558
   18.030    6.1085
   18.045    5.5819
   18.060    5.2659
   18.075    6.0734
   18.090    5.4766
   18.105    5.7223
   18.120    5.9681
   18.135    5.7925
   18.150    5.5468
   18.165    6.2665
   18.180    6.2489
   18.195    5.7048
   18.210    5.4941
   18.225    5.5994
   18.240    5.7574
   18.255    6.0383
   18.270    6.3191
   18.285    6.2313
   18.300    6.4595
   18.315    6.2313
   18.330    7.0037
   18.345    7.3021
   18.360    7.2670
   18.375    6.9335
   18.390    6.7755
   18.405    6.7053
   18.420    6.2665
   18.435    6.3191
   18.450    5.6872
   18.465    6.0558
   18.480    5.7574
   18.495    5.7223
   18.510    5.7750
   18.525    5.9681
   18.540    5.8978
   18.555    5.8101
   18.570    6.0207
   18.585    6.0207
   18.600    5.7399
   18.615    5.8276
   18.630    5.5468
   18.645    5.7399
   18.660    5.6697
   18.675    5.4590
   18.690    5.4941
   18.705    5.3712
   18.720    5.7048
   18.735    6.2138
   18.750    6.0032
   18.765    5.9154
   18.780    5.3537
   18.795    6.5122
   18.810    5.9681
   18.825    5.8101
   18.840    6.2138
   18.855    5.9856
   18.870    5.0553
   18.885    5.4064
   18.900    5.9681
   18.915    5.8452
   18.930    5.7223
   18.945    5.4766
   18.960    5.2133
   18.975    5.3186
   18.990    5.8276
   19.005    5.5819
   19.020    5.4590
   19.035    5.1255
   19.050    5.5468
   19.065    6.0558
   19.080    5.6170
   19.095    5.7223
   19.110    5.6170
   19.125    5.7574
   19.140    6.0032
   19.155    5.7048
   19.170    6.0032
   19.185    5.9856
   19.200    6.1962
   19.215    6.3016
   19.230    5.9856
   19.245    5.7925
   19.260    5.5994
   19.275    6.0383
   19.290    5.8452
   19.305    5.8627
   19.320    5.8276
   19.335    5.8803
   19.350    5.6521
   19.365    5.5643
   19.380    5.4590
   19.395    5.8276
   19.410    5.7925
   19.425    5.9329
   19.440    6.4771
   19.455    5.8101
   19.470    5.8978
   19.485    5.7925
   19.500    5.7574
   19.515    6.6000
   19.530    6.6702
   19.545    6.8633
   19.560    7.1266
   19.575    7.6180
   19.590    6.8808
   19.605    7.3547
   19.620    7.4952
   19.635    7.2845
   19.650    6.7404
   19.665    6.7579
   19.680    6.4946
   19.695    5.9154
   19.710    5.8627
   19.725    5.7048
   19.740    5.8803
   19.755    5.7399
   19.770    5.8101
   19.785    5.4064
   19.800    5.8627
   19.815    5.7048
   19.830    6.3367
   19.845    6.0207
   19.860    5.9681
   19.875    6.2313
   19.890    5.8803
   19.905    5.8978
   19.920    5.7399
   19.935    6.0734
   19.950    5.8627
   19.965    5.6170
   19.980    5.7750
   19.995    6.0207
   20.010    6.2665
   20.025    6.1611
   20.040    5.7399
   20.055    6.0558
   20.070    6.6702
   20.085    6.0558
   20.100    6.2313
   20.115    6.0909
   20.130    5.5994
   20.145    5.5468
   20.160    5.6872
   20.175    5.7925
   20.190    6.1436
   20.205    6.3893
   20.220    5.9856
   20.235    5.7925
   20.250    6.2489
   20.265    6.7579
   20.280    7.2143
   20.295    6.9335
   20.310    7.1266
   20.325    8.1095
   20.340    8.6186
   20.355    9.3031
   20.370    9.4962
   20.385    9.3734
   20.400    8.2149
   20.415    8.2500
   20.430    7.8287
   20.445    7.3899
   20.460    6.8808
   20.475    6.5649
   20.490    5.9154
   20.505    5.5994
   20.520    5.9329
   20.535    6.0909
   20.550    5.5819
   20.565    6.0734
   20.580    5.6872
   20.595    5.4415
   20.610    5.3888
   20.625    5.7399
   20.640    6.3016
   20.655    6.0207
   20.670    6.1260
   20.685    5.9505
   20.700    6.4946
   20.715    6.4069
   20.730    6.6000
   20.745    6.4420
   20.760    6.2313
   20.775    5.9154
   20.790    6.4595
   20.805    6.3718
   20.820    6.1611
   20.835    6.1085
   20.850    6.2665
   20.865    6.1787
   20.880    5.9329
   20.895    6.1611
   20.910    6.0558
   20.925    5.7048
   20.940    5.7574
   20.955    6.2313
   20.970    6.3542
   20.985    5.7223
   21.000    5.6170
   21.015    5.8276
   21.030    5.8803
   21.045    5.9329
   21.060    6.2313
   21.075    6.1085
   21.090    5.5994
   21.105    5.7750
   21.120    5.8452
   21.135    5.9505
   21.150    5.8276
   21.165    6.0558
   21.180    6.0734
   21.195    5.9505
   21.210    5.5819
   21.225    5.9329
   21.240    5.7048
   21.255    5.7223
   21.270    6.2138
   21.285    5.9681
   21.300    6.1962
   21.315    6.0207
   21.330    5.9856
   21.345    5.4766
   21.360    5.4239
   21.375    5.7399
   21.390    5.9681
   21.405    5.6345
   21.420    5.7399
   21.435    5.7925
   21.450    5.7223
   21.465    5.6521
   21.480    6.1611
   21.495    6.0734
   21.510    5.7925
   21.525    5.7574
   21.540    5.5819
   21.555    5.9856
   21.570    5.9856
   21.585    6.3542
   21.600    6.0909
   21.615    6.0909
   21.630    6.1611
   21.645    6.4771
   21.660    6.2840
   21.675    6.2138
   21.690    6.3367
   21.705    6.2313
   21.720    6.6000
   21.735    6.2138
   21.750    5.9856
   21.765    6.1260
   21.780    6.8106
   21.795    6.7053
   21.810    7.0388
   21.825    7.3899
   21.840    8.2324
   21.855    7.6356
   21.870    7.9340
   21.885    7.3372
   21.900    7.0212
   21.915    7.4601
   21.930    6.8633
   21.945    6.5122
   21.960    6.3718
   21.975    6.8457
   21.990    5.8101
   22.005    6.2138
   22.020    6.4771
   22.035    6.3016
   22.050    5.8276
   22.065    5.9329
   22.080    6.1436
   22.095    5.9154
   22.110    6.0909
   22.125    6.5473
   22.140    6.5122
   22.155    7.1792
   22.170    7.1441
   22.185    6.9335
   22.200    7.0037
   22.215    7.1266
   22.230    6.6351
   22.245    6.9510
   22.260    7.2143
   22.275    6.4771
   22.290    6.3893
   22.305    6.1085
   22.320    6.6877
   22.335    7.0563
   22.350    6.8282
   22.365    5.8803
   22.380    6.3718
   22.395    6.4946
   22.410    6.8457
   22.425    6.8633
   22.440    6.6351
   22.455    6.7404
   22.470    7.4601
   22.485    7.8638
   22.500    8.9170
   22.515   10.0755
   22.530   10.0579
   22.545   10.8478
   22.560   11.0409
   22.575   10.9707
   22.590   10.4616
   22.605   10.5143
   22.620    9.2505
   22.635    8.6888
   22.650    8.0042
   22.665    7.3899
   22.680    6.8457
   22.695    6.3718
   22.710    6.3542
   22.725    6.9510
   22.740    6.6000
   22.755    6.5649
   22.770    7.1266
   22.785    6.6702
   22.800    7.1441
   22.815    8.0393
   22.830    7.7585
   22.845    8.8643
   22.860    9.3734
   22.875    9.8297
   22.890   10.0228
   22.905   11.1111
   22.920   11.0233
   22.935   10.0053
   22.950    9.6367
   22.965    9.1452
   22.980    8.4606
   22.995    8.1095
   23.010    6.7404
   23.025    6.6351
   23.040    6.0207
   23.055    6.8633
   23.070    6.1962
   23.085    6.4595
   23.100    6.5824
   23.115    6.3893
   23.130    6.5824
   23.145    6.4069
   23.160    6.8808
   23.175    7.0915
   23.190    6.8633
   23.205    7.1441
   23.220    7.1090
   23.235    7.2845
   23.250    7.3547
   23.265    7.8462
   23.280    7.5829
   23.295    7.4425
   23.310    6.6351
   23.325    6.3893
   23.340    6.9335
   23.355    5.9856
   23.370    6.2665
   23.385    6.3016
   23.400    6.6526
   23.415    6.6000
   23.430    6.0558
   23.445    6.4069
   23.460    6.1611
   23.475    6.1611
   23.490    6.3542
   23.505    6.7404
   23.520    5.9154
   23.535    6.4771
   23.550    6.4244
   23.565    6.4244
   23.580    6.8984
   23.595    6.5649
   23.610    6.5649
   23.625    6.4420
   23.640    6.5824
   23.655    5.5643
   23.670    5.5117
   23.685    5.8276
   23.700    6.0207
   23.715    6.4069
   23.730    6.3893
   23.745    6.3191
   23.760    6.0734
   23.775    6.4771
   23.790    6.4244
   23.805    6.5473
   23.820    6.5298
   23.835    6.7228
   23.850    7.3021
   23.865    7.6707
   23.880    7.0388
   23.895    7.5654
   23.910    7.6005
   23.925    8.0393
   23.940    7.8989
   23.955    7.4074
   23.970    7.4425
   23.985    7.2845
   24.000    6.5298
   24.015    6.1436
   24.030    5.9154
   24.045    6.0909
   24.060    6.3542
   24.075    6.2665
   24.090    6.4595
   24.105    6.3893
   24.120    6.0909
   24.135    5.8276
   24.150    5.1080
   24.165    6.0207
   24.180    5.6697
   24.195    5.9505
   24.210    6.1962
   24.225    6.6526
   24.240    6.3718
   24.255    6.7228
   24.270    6.3542
   24.285    5.6521
   24.300    5.7925
   24.315    6.4771
   24.330    6.2489
   24.345    5.7223
   24.360    5.8803
   24.375    5.8803
   24.390    5.9681
   24.405    6.0558
   24.420    6.4420
   24.435    6.4244
   24.450    6.0207
   24.465    5.5819
   24.480    5.9681
   24.495    6.0207
   24.510    6.3191
   24.525    5.8627
   24.540    6.0032
   24.555    6.4946
   24.570    6.8808
   24.585    6.1962
   24.600    6.1085
   24.615    6.2840
   24.630    6.3893
   24.645    6.1085
   24.660    5.6170
   24.675    6.2313
   24.690    5.6697
   24.705    6.1085
   24.720    6.2840
   24.735    6.2840
   24.750    5.9154
   24.765    6.1085
   24.780    6.2665
   24.795    5.6170
   24.810    5.5468
   24.825    6.1611
   24.840    6.2840
   24.855    5.9681
   24.870    6.1260
   24.885    6.3893
   24.900    6.1611
   24.915    5.8978
   24.930    6.2138
   24.945    6.1611
   24.960    5.7574
   24.975    5.6521
   24.990    6.0734
   25.005    6.1436
   25.020    6.2840
   25.035    5.5468
   25.050    5.9329
   25.065    6.5473
   25.080    6.2840
   25.095    6.0909
   25.110    6.2313
   25.125    6.4069
   25.140    6.5473
   25.155    6.5824
   25.170    7.0212
   25.185    6.9861
   25.200    7.5127
   25.215    6.8457
   25.230    6.5122
   25.245    6.2665
   25.260    6.6000
   25.275    6.6000
   25.290    6.7404
   25.305    5.8803
   25.320    5.9681
   25.335    5.9329
   25.350    6.0734
   25.365    6.2313
   25.380    6.2138
   25.395    5.9856
   25.410    6.2138
   25.425    6.4595
   25.440    6.0383
   25.455    6.6351
   25.470    6.4946
   25.485    6.2489
   25.500    6.2665
   25.515    6.7755
   25.530    6.7228
   25.545    6.5473
   25.560    6.2489
   25.575    6.4244
   25.590    6.7053
   25.605    6.6351
   25.620    6.3191
   25.635    5.9329
   25.650    6.2313
   25.665    6.2840
   25.680    6.3542
   25.695    6.5824
   25.710    6.7755
   25.725    7.3021
   25.740    7.8287
   25.755    8.6712
   25.770    8.5659
   25.785    8.5835
   25.800    8.7239
   25.815    9.0750
   25.830    9.2329
   25.845    9.2856
   25.860    8.9521
   25.875    8.2149
   25.890    8.1797
   25.905    7.2670
   25.920    6.7228
   25.935    6.2489
   25.950    6.0207
   25.965    6.0909
   25.980    6.0558
   25.995    6.1436
   26.010    5.8452
   26.025    5.7750
   26.040    6.0383
   26.055    6.6877
   26.070    6.1260
   26.085    5.7750
   26.100    5.5468
   26.115    6.4595
   26.130    6.1260
   26.145    5.7925
   26.160    5.9505
   26.175    5.8978
   26.190    6.0558
   26.205    6.1611
   26.220    5.7574
   26.235    6.1611
   26.250    5.6697
   26.265    6.0558
   26.280    6.1787
   26.295    5.5994
   26.310    5.9856
   26.325    6.6877
   26.340    6.3718
   26.355    6.5122
   26.370    6.1085
   26.385    6.5473
   26.400    7.0563
   26.415    7.3723
   26.430    7.0388
   26.445    6.6877
   26.460    6.4244
   26.475    6.4420
   26.490    6.2313
   26.505    5.7399
   26.520    6.0383
   26.535    5.7574
   26.550    5.6697
   26.565    5.8627
   26.580    5.7048
   26.595    5.9154
   26.610    6.1787
   26.625    5.8452
   26.640    5.8276
   26.655    5.7048
   26.670    5.4766
   26.685    5.6872
   26.700    6.0032
   26.715    5.7925
   26.730    5.9154
   26.745    5.4590
   26.760    5.6345
   26.775    5.9154
   26.790    5.6521
   26.805    5.7048
   26.820    5.4064
   26.835    5.8627
   26.850    6.1962
   26.865    6.2313
   26.880    6.1085
   26.895    6.3542
   26.910    5.7750
   26.925    5.9154
   26.940    6.7579
   26.955    6.8633
   26.970    7.2670
   26.985    7.3196
   27.000    7.3021
   27.015    6.8808
   27.030    7.2319
   27.045    7.5303
   27.060    7.3372
   27.075    6.8282
   27.090    6.4595
   27.105    6.1260
   27.120    5.9856
   27.135    6.1436
   27.150    6.0383
   27.165    5.2308
   27.180    5.3712
   27.195    5.7750
   27.210    5.5292
   27.225    5.2484
   27.240    6.0032
   27.255    6.0032
   27.270    5.5292
   27.285    5.6345
   27.300    5.1957
   27.315    5.8276
   27.330    5.7925
   27.345    5.7223
   27.360    5.6521
   27.375    5.3537
   27.390    5.6872
   27.405    5.4415
   27.420    5.7399
   27.435    6.0383
   27.450    6.2138
   27.465    5.4415
   27.480    5.6521
   27.495    5.7925
   27.510    5.8803
   27.525    5.9505
   27.540    6.5122
   27.555    7.0739
   27.570    6.7228
   27.585    6.7930
   27.600    6.7228
   27.615    6.6702
   27.630    6.6702
   27.645    6.4595
   27.660    6.7755
   27.675    6.1787
   27.690    5.9856
   27.705    6.0207
   27.720    6.1611
   27.735    6.2138
   27.750    5.5994
   27.765    5.7223
   27.780    5.8452
   27.795    5.7399
   27.810    5.7574
   27.825    5.6345
   27.840    6.2665
   27.855    6.3893
   27.870    5.8101
   27.885    5.9505
   27.900    6.5298
   27.915    6.2138
   27.930    5.9329
   27.945    6.1085
   27.960    5.8627
   27.975    5.9329
   27.990    6.0032
   28.005    5.8101
   28.020    5.8276
   28.035    5.6697
   28.050    5.3361
   28.065    5.4766
   28.080    5.9681
   28.095    6.2138
   28.110    6.1436
   28.125    7.0037
   28.140    6.9686
   28.155    7.0739
   28.170    6.8808
   28.185    6.8457
   28.200    6.6702
   28.215    6.1611
   28.230    6.6175
   28.245    6.3542
   28.260    6.0734
   28.275    5.9856
   28.290    6.0032
   28.305    5.6521
   28.320    5.5468
   28.335    6.0383
   28.350    6.3191
   28.365    6.5473
   28.380    6.4069
   28.395    6.2665
   28.410    6.1962
   28.425    6.9159
   28.440    7.3547
   28.455    6.4420
   28.470    6.8457
   28.485    7.1968
   28.500    6.6526
   28.515    6.0909
   28.530    5.7750
   28.545    6.0558
   28.560    5.7925
   28.575    5.5643
   28.590    5.5292
   28.605    5.6521
   28.620    5.4239
   28.635    5.5994
   28.650    5.5117
   28.665    5.0553
   28.680    5.5292
   28.695    5.6345
   28.710    5.3186
   28.725    5.3712
   28.740    5.5643
   28.755    5.4239
   28.770    5.4415
   28.785    5.4064
   28.800    5.4415
   28.815    5.3537
   28.830    5.4766
   28.845    5.3361
   28.860    5.4415
   28.875    5.2835
   28.890    5.5819
   28.905    5.0377
   28.920    5.3010
   28.935    5.6345
   28.950    5.4064
   28.965    5.7048
   28.980    5.5994
   28.995    5.4941
   29.010    6.0207
   29.025    5.7223
   29.040    5.8803
   29.055    5.1782
   29.070    5.4941
   29.085    6.0734
   29.100    5.8627
   29.115    5.1957
   29.130    5.0904
   29.145    5.5117
   29.160    5.1957
   29.175    5.3712
   29.190    5.2659
   29.205    5.6872
   29.220    5.9154
   29.235    6.0032
   29.250    5.6872
   29.265    6.2138
   29.280    6.3016
   29.295    6.4595
   29.310    5.9329
   29.325    6.2665
   29.340    6.2313
   29.355    6.4771
   29.370    6.0558
   29.385    5.4415
   29.400    5.8452
   29.415    5.5819
   29.430    5.5819
   29.445    5.4766
   29.460    5.4941
   29.475    5.5643
   29.490    5.5994
   29.505    5.1431
   29.520    5.2133
   29.535    4.7218
   29.550    5.5643
   29.565    5.4239
   29.580    5.4941
   29.595    5.3361
   29.610    5.5117
   29.625    5.1782
   29.640    5.0377
   29.655    4.6340
   29.670    4.9675
   29.685    5.3186
   29.700    5.6697
   29.715    5.3186
   29.730    5.4415
   29.745    5.4941
   29.760    5.4766
   29.775    5.5994
   29.790    6.0383
   29.805    5.5117
   29.820    5.3010
   29.835    5.7925
   29.850    5.9856
   29.865    5.9681
   29.880    5.5643
   29.895    5.7574
   29.910    5.6521
   29.925    5.0026
   29.940    5.6345
   29.955    5.2133
   29.970    5.3888
   29.985    5.3361
   30.000    5.3888
   30.015    5.4766
   30.030    5.5643
   30.045    5.4941
   30.060    5.3888
   30.075    5.7048
   30.090    5.4590
   30.105    5.6521
   30.120    5.5292
   30.135    5.2659
   30.150    5.2659
   30.165    5.3888
   30.180    5.5819
   30.195    5.2308
   30.210    5.3361
   30.225    5.3361
   30.240    5.3361
   30.255    4.8622
   30.270    5.5819
   30.285    5.2835
   30.300    5.3361
   30.315    5.2835
   30.330    5.7925
   30.345    4.9324
   30.360    4.8095
   30.375    5.5292
   30.390    5.7048
   30.405    5.1080
   30.420    4.7042
   30.435    4.9851
   30.450    5.1080
   30.465    5.4590
   30.480    5.2133
   30.495    5.4239
   30.510    4.7393
   30.525    5.4064
   30.540    5.4590
   30.555    5.6345
   30.570    5.4941
   30.585    5.3361
   30.600    5.4590
   30.615    5.2835
   30.630    5.7223
   30.645    5.8978
   30.660    5.6345
   30.675    5.8627
   30.690    5.3010
   30.705    5.0553
   30.720    5.4064
   30.735    4.5287
   30.750    5.0377
   30.765    5.0026
   30.780    5.3010
   30.795    5.4766
   30.810    5.4239
   30.825    5.3010
   30.840    5.2133
   30.855    5.0553
   30.870    4.8973
   30.885    5.1957
   30.900    5.1431
   30.915    5.5994
   30.930    5.0553
   30.945    5.1080
   30.960    5.3888
   30.975    5.2133
   30.990    4.7042
   31.005    4.8798
   31.020    4.8447
   31.035    4.7744
   31.050    5.1431
   31.065    4.8095
   31.080    5.0377
   31.095    5.0904
   31.110    5.6697
   31.125    4.9500
   31.140    4.8622
   31.155    5.1080
   31.170    5.1606
   31.185    5.0553
   31.200    4.8095
   31.215    4.8622
   31.230    5.0728
   31.245    4.9500
   31.260    5.2133
   31.275    5.0026
   31.290    5.1080
   31.305    5.0553
   31.320    5.5117
   31.335    5.4941
   31.350    5.5643
   31.365    5.3537
   31.380    5.3537
   31.395    5.5292
   31.410    5.1255
   31.425    5.0377
   31.440    5.3010
   31.455    6.0032
   31.470    5.3361
   31.485    4.6867
   31.500    5.2835
   31.515    5.0553
   31.530    5.1255
   31.545    4.7920
   31.560    5.0728
   31.575    5.0202
   31.590    5.2308
   31.605    5.0202
   31.620    4.6165
   31.635    5.1957
   31.650    5.5117
   31.665    5.2484
   31.680    5.1080
   31.695    4.9324
   31.710    5.1782
   31.725    5.1431
   31.740    5.3010
   31.755    4.9851
   31.770    5.0202
   31.785    4.6867
   31.800    4.6340
   31.815    4.6165
   31.830    4.8447
   31.845    5.0202
   31.860    5.5292
   31.875    5.6345
   31.890    5.7750
   31.905    5.4415
   31.920    4.9675
   31.935    4.8622
   31.950    5.0202
   31.965    5.1080
   31.980    4.9675
   31.995    4.8622
   32.010    4.9500
   32.025    4.7218
   32.040    4.8271
   32.055    4.9851
   32.070    5.0553
   32.085    4.5989
   32.100    4.8973
   32.115    4.6340
   32.130    4.9324
   32.145    5.1606
   32.160    5.1606
   32.175    5.0202
   32.190    4.9500
   32.205    4.8447
   32.220    4.1776
   32.235    4.4058
   32.250    4.9851
   32.265    4.9500
   32.280    5.2308
   32.295    4.7042
   32.310    5.0202
   32.325    5.1080
   32.340    4.9500
   32.355    4.4585
   32.370    4.5463
   32.385    5.1782
   32.400    4.7920
   32.415    4.8095
   32.430    4.4409
   32.445    4.5638
   32.460    5.0553
   32.475    5.0553
   32.490    4.8622
   32.505    4.5463
   32.520    4.9851
   32.535    4.9324
   32.550    5.1431
   32.565    4.8095
   32.580    4.9149
   32.595    5.2484
   32.610    4.8973
   32.625    4.4234
   32.640    4.4234
   32.655    4.7042
   32.670    4.6516
   32.685    4.4409
   32.700    4.8973
   32.715    4.8973
   32.730    4.5814
   32.745    4.6691
   32.760    4.5287
   32.775    4.7042
   32.790    4.9149
   32.805    4.8271
   32.820    5.0377
   32.835    4.8622
   32.850    4.6516
   32.865    5.0026
   32.880    5.5643
   32.895    5.5643
   32.910    5.2308
   32.925    5.2659
   32.940    4.9324
   32.955    4.6340
   32.970    5.0377
   32.985    4.5989
   33.000    5.0553
   33.015    4.8271
   33.030    4.5989
   33.045    4.8973
   33.060    4.9324
   33.075    4.8622
   33.090    5.1957
   33.105    4.5989
   33.120    4.7393
   33.135    4.9500
   33.150    4.6340
   33.165    4.8798
   33.180    4.6691
   33.195    4.8095
   33.210    5.0904
   33.225    4.7218
   33.240    4.8622
   33.255    5.0904
   33.270    4.7393
   33.285    4.5814
   33.300    4.4936
   33.315    4.2654
   33.330    4.5463
   33.345    4.7042
   33.360    4.8798
   33.375    4.9324
   33.390    4.4234
   33.405    5.3186
   33.420    4.8622
   33.435    4.3883
   33.450    4.8271
   33.465    4.5638
   33.480    5.0377
   33.495    5.4766
   33.510    4.8622
   33.525    4.5463
   33.540    4.5989
   33.555    5.0026
   33.570    5.0728
   33.585    4.8798
   33.600    4.8622
   33.615    4.9675
   33.630    4.7218
   33.645    3.9670
   33.660    4.3005
   33.675    4.4936
   33.690    4.5463
   33.705    3.9670
   33.720    4.5989
   33.735    4.9324
   33.750    4.9675
   33.765    4.4936
   33.780    4.7920
   33.795    4.6340
   33.810    4.9675
   33.825    5.2835
   33.840    4.6340
   33.855    5.1255
   33.870    4.5989
   33.885    5.2133
   33.900    5.3010
   33.915    4.7569
   33.930    5.0202
   33.945    4.6867
   33.960    5.0728
   33.975    4.6867
   33.990    4.7569
   34.005    5.1080
   34.020    4.5989
   34.035    4.3181
   34.050    4.3707
   34.065    4.2303
   34.080    4.7042
   34.095    4.4936
   34.110    5.0377
   34.125    4.3181
   34.140    4.5814
   34.155    4.5814
   34.170    4.5814
   34.185    4.4409
   34.200    4.1074
   34.215    4.5638
   34.230    4.7042
   34.245    4.5111
   34.260    4.4409
   34.275    4.4936
   34.290    4.4234
   34.305    4.2654
   34.320    4.5814
   34.335    4.4234
   34.350    4.5638
   34.365    4.6691
   34.380    5.0202
   34.395    4.7744
   34.410    4.8447
   34.425    4.4760
   34.440    4.6340
   34.455    4.6340
   34.470    4.5463
   34.485    4.7920
   34.500    4.7042
   34.515    4.6867
   34.530    4.4585
   34.545    4.4058
   34.560    4.8973
   34.575    4.5463
   34.590    4.6340
   34.605    4.2478
   34.620    4.2127
   34.635    4.7218
   34.650    4.7218
   34.665    4.6867
   34.680    4.3707
   34.695    4.4234
   34.710    4.5111
   34.725    4.5638
   34.740    4.5638
   34.755    4.3707
   34.770    4.3707
   34.785    4.4760
   34.800    4.6691
   34.815    4.5287
   34.830    5.0202
   34.845    4.7569
   34.860    4.8271
   34.875    4.4936
   34.890    4.7744
   34.905    4.4760
   34.920    4.3883
   34.935    4.2654
   34.950    4.2654
   34.965    4.4760
   34.980    4.3005
   34.995    4.3005
   35.010    4.1074
   35.025    4.3356
   35.040    4.1601
   35.055    4.1952
   35.070    4.3356
   35.085    4.1776
   35.100    4.7218
   35.115    4.7042
   35.130    4.2303
   35.145    4.5287
   35.160    4.1425
   35.175    4.4409
   35.190    4.6165
   35.205    4.4760
   35.220    4.3707
   35.235    4.4585
   35.250    5.0026
   35.265    4.7042
   35.280    4.5814
   35.295    4.3356
   35.310    4.2830
   35.325    4.5287
   35.340    4.3532
   35.355    4.4760
   35.370    4.4409
   35.385    4.5287
   35.400    4.3532
   35.415    4.4585
   35.430    4.3532
   35.445    4.0197
   35.460    4.4234
   35.475    4.2303
   35.490    4.0021
   35.505    4.0197
   35.520    4.2478
   35.535    3.9846
   35.550    4.0197
   35.565    4.4936
   35.580    4.6691
   35.595    4.5287
   35.610    4.4585
   35.625    4.4760
   35.640    4.0548
   35.655    4.6340
   35.670    4.5463
   35.685    4.2654
   35.700    4.5111
   35.715    4.2303
   35.730    4.2830
   35.745    3.9846
   35.760    3.9494
   35.775    4.0899
   35.790    3.9670
   35.805    4.5463
   35.820    4.1776
   35.835    4.2830
   35.850    4.3883
   35.865    3.9494
   35.880    4.4585
   35.895    4.3005
   35.910    4.3356
   35.925    4.6165
   35.940    4.6165
   35.955    4.4234
   35.970    4.4234
   35.985    4.5638
   36.000    4.4058
   36.015    4.0372
   36.030    4.2654
   36.045    3.8968
   36.060    3.9319
   36.075    4.3356
   36.090    4.4585
   36.105    4.7042
   36.120    4.7042
   36.135    4.6867
   36.150    4.4936
   36.165    4.2478
   36.180    4.2478
   36.195    4.5287
   36.210    4.4936
   36.225    4.3883
   36.240    4.2654
   36.255    4.7042
   36.270    4.5989
   36.285    4.4058
   36.300    4.1250
   36.315    4.5989
   36.330    4.1776
   36.345    3.9494
   36.360    3.8617
   36.375    4.3883
   36.390    4.2127
   36.405    4.2654
   36.420    4.2830
   36.435    3.8617
   36.450    3.9494
   36.465    4.4936
   36.480    4.5638
   36.495    4.3707
   36.510    4.4409
   36.525    4.3883
   36.540    4.4234
   36.555    4.4936
   36.570    4.4585
   36.585    4.6165
   36.600    4.5814
   36.615    4.3005
   36.630    4.1250
   36.645    4.2478
   36.660    4.4058
   36.675    3.9494
   36.690    4.2654
   36.705    4.3707
   36.720    4.5638
   36.735    4.4760
   36.750    4.0372
   36.765    3.8441
   36.780    3.8090
   36.795    3.9494
   36.810    4.3005
   36.825    4.0723
   36.840    4.2127
   36.855    3.9143
   36.870    4.2303
   36.885    4.1250
   36.900    3.9670
   36.915    4.1601
   36.930    4.3883
   36.945    4.0723
   36.960    3.7915
   36.975    4.2478
   36.990    4.0548
   37.005    4.2830
   37.020    4.5111
   37.035    4.8447
   37.050    4.3707
   37.065    4.7920
   37.080    4.5814
   37.095    4.7569
   37.110    4.4936
   37.125    4.3532
   37.140    3.6686
   37.155    4.7218
   37.170    4.4936
   37.185    4.0021
   37.200    4.2127
   37.215    3.9319
   37.230    3.9846
   37.245    4.2830
   37.260    4.2654
   37.275    4.0548
   37.290    3.9319
   37.305    4.0021
   37.320    4.1601
   37.335    4.3005
   37.350    4.2303
   37.365    4.3356
   37.380    4.1952
   37.395    3.9494
   37.410    4.3883
   37.425    4.4058
   37.440    4.2830
   37.455    4.1250
   37.470    4.2127
   37.485    4.0372
   37.500    3.7037
   37.515    4.2127
   37.530    3.7915
   37.545    3.6686
   37.560    4.3181
   37.575    3.8792
   37.590    4.3707
   37.605    4.3005
   37.620    4.1952
   37.635    4.3883
   37.650    4.3532
   37.665    4.1425
   37.680    4.1250
   37.695    4.3883
   37.710    4.2654
   37.725    4.3883
   37.740    3.9670
   37.755    4.2830
   37.770    4.4585
   37.785    4.2830
   37.800    4.2654
   37.815    4.0723
   37.830    4.3005
   37.845    4.4936
   37.860    4.2830
   37.875    4.1425
   37.890    4.0548
   37.905    4.3532
   37.920    4.0899
   37.935    3.9494
   37.950    3.8617
   37.965    4.5989
   37.980    4.3005
   37.995    4.3883
   38.010    4.2830
   38.025    4.2478
   38.040    4.1776
   38.055    4.0899
   38.070    4.1952
   38.085    4.2303
   38.100    4.1601
   38.115    3.8617
   38.130    4.2127
   38.145    4.2127
   38.160    4.1776
   38.175    4.0899
   38.190    4.1250
   38.205    4.1074
   38.220    4.1601
   38.235    4.0899
   38.250    4.1074
   38.265    4.3532
   38.280    4.3005
   38.295    4.0899
   38.310    3.7739
   38.325    3.8090
   38.340    4.1074
   38.355    4.3707
   38.370    4.1425
   38.385    4.3181
   38.400    4.0548
   38.415    3.8792
   38.430    3.7564
   38.445    4.2654
   38.460    3.8792
   38.475    3.9670
   38.490    4.5463
   38.505    4.3005
   38.520    3.8617
   38.535    4.1952
   38.550    3.8792
   38.565    3.7037
   38.580    4.0372
   38.595    3.8792
   38.610    3.5633
   38.625    4.0021
   38.640    4.0899
   38.655    4.3883
   38.670    4.0899
   38.685    3.6862
   38.700    3.9143
   38.715    3.9494
   38.730    3.9143
   38.745    4.0021
   38.760    3.9143
   38.775    4.1250
   38.790    3.8090
   38.805    3.7037
   38.820    4.1425
   38.835    3.7564
   38.850    4.0723
   38.865    4.5463
   38.880    4.0548
   38.895    3.8266
   38.910    4.1250
   38.925    4.1952
   38.940    4.1074
   38.955    3.7915
   38.970    3.9494
   38.985    3.7739
   39.000    3.8617
   39.015    3.8792
   39.030    3.9670
   39.045    3.9143
   39.060    3.8441
   39.075    4.1250
   39.090    4.3181
   39.105    4.4234
   39.120    3.9319
   39.135    3.8441
   39.150    4.1425
   39.165    4.0021
   39.180    4.3005
   39.195    3.7388
   39.210    4.0899
   39.225    4.4760
   39.240    4.4760
   39.255    4.0197
   39.270    4.0723
   39.285    3.8792
   39.300    4.2830
   39.315    4.2478
   39.330    4.0723
   39.345    3.7915
   39.360    4.2830
   39.375    4.4760
   39.390    4.1425
   39.405    3.6686
   39.420    3.8266
   39.435    3.9494
   39.450    4.4058
   39.465    4.3181
   39.480    3.6159
   39.495    3.9494
   39.510    3.9143
   39.525    4.1776
   39.540    3.8792
   39.555    4.3883
   39.570    3.8266
   39.585    3.9494
   39.600    3.7388
   39.615    3.7915
   39.630    3.7739
   39.645    4.2654
   39.660    4.0723
   39.675    3.8968
   39.690    3.7388
   39.705    4.0372
   39.720    4.0723
   39.735    4.3181
   39.750    3.9846
   39.765    3.9319
   39.780    4.2830
   39.795    3.8266
   39.810    4.1776
   39.825    4.2654
   39.840    4.1952
   39.855    3.9494
   39.870    4.2654
   39.885    3.8617
   39.900    4.0197
   39.915    4.1776
   39.930    4.1776
   39.945    4.1250
   39.960    4.0197
   39.975    4.1250
   39.990    3.8792
