    1.500   12.6909
    1.515   12.5154
    1.530   12.8840
    1.545   13.0068
    1.560   12.4627
    1.575   11.9361
    1.590   12.9893
    1.605   11.9888
    1.620   11.9537
    1.635   11.4446
    1.650   11.6904
    1.665   12.1994
    1.680   11.9010
    1.695   11.2691
    1.710   11.2691
    1.725   11.4797
    1.740   10.8829
    1.755   11.3744
    1.770   10.7249
    1.785   10.9005
    1.800   10.3739
    1.815   10.5670
    1.830   11.0585
    1.845   10.6723
    1.860   10.4265
    1.875   10.2159
    1.890   10.3739
    1.905   10.6547
    1.920   10.9531
    1.935   10.7776
    1.950    9.8999
    1.965    9.4962
    1.980   10.3739
    1.995   10.6196
    2.010   10.1106
    2.025    9.3734
    2.040    9.8473
    2.055   10.0579
    2.070    9.8122
    2.085    9.4436
    2.100    9.3382
    2.115    9.2154
    2.130    9.4085
    2.145    9.9526
    2.160    9.2154
    2.175    9.2329
    2.190    9.2154
    2.205    8.9345
    2.220    9.1101
    2.235    8.9872
    2.250    9.3558
    2.265    8.8468
    2.280    8.6537
    2.295    9.0223
    2.310    8.9872
    2.325    8.3553
    2.340    8.5484
    2.355    8.7414
    2.370    8.5308
    2.385    8.8819
    2.400    8.6186
    2.415    8.5308
    2.430    8.9170
    2.445    8.5484
    2.460    8.9696
    2.475    8.9521
    2.490    8.2500
    2.505    8.5835
    2.520    8.6361
    2.535    8.5659
    2.550    8.5133
    2.565    8.8994
    2.580    8.1797
    2.595    8.9170
    2.610    8.7414
    2.625    8.5133
    2.640    8.4430
    2.655    7.9340
    2.670    8.2851
    2.685    8.4079
    2.700    8.5835
    2.715    8.1271
    2.730    8.1797
    2.745    8.7590
    2.760    8.5484
    2.775    7.9691
    2.790    7.6356
    2.805    7.7234
    2.820    8.0218
    2.835    7.8813
    2.850    7.7409
    2.865    7.6005
    2.880    7.5303
    2.895    8.0218
    2.910    7.4952
    2.925    7.6356
    2.940    7.6883
    2.955    8.0744
    2.970    8.0393
    2.985    7.6005
    3.000    7.8638
    3.015    7.4952
    3.030    7.9340
    3.045    7.8287
    3.060    7.7058
    3.075    7.1968
    3.090    7.2670
    3.105    7.6532
    3.120    7.9691
    3.135    7.3723
    3.150    7.7409
    3.165    7.4425
    3.180    7.4074
    3.195    7.3899
    3.210    7.2494
    3.225    8.0920
    3.240    7.7760
    3.255    8.1973
    3.270    7.9340
    3.285    7.3899
    3.300    7.3547
    3.315    7.7058
    3.330    7.5303
    3.345    7.6532
    3.360    7.3021
    3.375    7.9867
    3.390    8.0393
    3.405    7.6180
    3.420    7.6356
    3.435    8.0042
    3.450    7.9867
    3.465    8.1973
    3.480    8.3202
    3.495    7.3196
    3.510    8.0042
    3.525    8.1271
    3.540    7.0563
    3.555    7.2494
    3.570    7.5478
    3.585    7.9867
    3.600    8.2675
    3.615    7.7936
    3.630    7.6180
    3.645    8.1095
    3.660    7.7760
    3.675    8.0393
    3.690    7.9691
    3.705    8.4606
    3.720    8.4079
    3.735    9.0047
    3.750    8.9521
    3.765    8.8643
    3.780    8.4430
    3.795    8.6888
    3.810    8.9345
    3.825    8.6010
    3.840    8.6010
    3.855    9.0398
    3.870    8.9170
    3.885    8.4957
    3.900    8.5133
    3.915    8.2851
    3.930    8.1973
    3.945    8.2675
    3.960    7.7058
    3.975    7.6180
    3.990    8.3377
    4.005    8.0744
    4.020    7.9691
    4.035    7.9164
    4.050    7.9340
    4.065    8.1973
    4.080    8.3026
    4.095    7.7234
    4.110    8.0218
    4.125    7.7058
    4.140    7.9516
    4.155    7.7234
    4.170    7.5303
    4.185    7.6532
    4.200    8.0744
    4.215    7.4074
    4.230    8.0393
    4.245    7.6356
    4.260    7.3021
    4.275    7.6532
    4.290    7.8462
    4.305    8.5308
    4.320    8.3377
    4.335    8.2149
    4.350    7.5303
    4.365    7.9516
    4.380    8.1797
    4.395    8.1797
    4.410    7.6005
    4.425    7.6005
    4.440    7.9164
    4.455    7.6180
    4.470    7.6005
    4.485    7.9164
    4.500    8.2149
    4.515    8.3026
    4.530    8.1797
    4.545    8.6361
    4.560    8.5835
    4.575    7.8111
    4.590    8.6537
    4.605    8.4606
    4.620    8.0920
    4.635    8.3202
    4.650    8.3728
    4.665    8.6010
    4.680    8.6712
    4.695    8.2675
    4.710    7.5829
    4.725    7.8462
    4.740    7.7936
    4.755    7.8638
    4.770    8.7941
    4.785    8.3728
    4.800    7.9867
    4.815    8.5133
    4.830    8.5659
    4.845    8.3026
    4.860    8.2851
    4.875    7.7058
    4.890    7.7234
    4.905    8.4255
    4.920    9.0574
    4.935    9.2680
    4.950    9.0223
    4.965    8.0920
    4.980    8.0042
    4.995    8.1973
    5.010    8.7941
    5.025    9.3558
    5.040    9.3558
    5.055    8.5133
    5.070    9.3734
    5.085    9.1276
    5.100    8.7590
    5.115    9.0223
    5.130    9.7595
    5.145    8.8994
    5.160    9.0574
    5.175    9.1978
    5.190    9.6367
    5.205    9.5138
    5.220    9.2154
    5.235    9.5489
    5.250    9.3909
    5.265    9.5664
    5.280    9.3734
    5.295   10.3563
    5.310    9.8122
    5.325    9.1978
    5.340   10.4792
    5.355   10.7952
    5.370   10.6547
    5.385   10.3388
    5.400   10.0053
    5.415   10.2159
    5.430   10.4090
    5.445   11.5324
    5.460   11.0409
    5.475   10.7249
    5.490   10.5494
    5.505   10.8654
    5.520   10.4968
    5.535   10.8127
    5.550   11.5148
    5.565   10.8303
    5.580   10.6372
    5.595   10.3914
    5.610   10.3212
    5.625   10.1632
    5.640    9.9175
    5.655    9.9526
    5.670    9.6542
    5.685   10.2861
    5.700    9.8824
    5.715    9.6015
    5.730    9.9877
    5.745    9.4085
    5.760    9.8999
    5.775   10.2510
    5.790    9.3382
    5.805    9.2856
    5.820    9.4260
    5.835    8.7941
    5.850    8.6186
    5.865    9.3031
    5.880    9.1276
    5.895    8.9872
    5.910    8.8994
    5.925    8.6537
    5.940    8.1095
    5.955    8.5133
    5.970    8.3026
    5.985    7.9516
    6.000    8.0920
    6.015    8.1446
    6.030    8.1271
    6.045    7.5829
    6.060    8.1973
    6.075    8.1797
    6.090    8.4255
    6.105    8.2149
    6.120    7.4074
    6.135    7.7936
    6.150    8.4255
    6.165    8.0042
    6.180    8.4957
    6.195    8.3026
    6.210    7.7058
    6.225    8.7063
    6.240    7.9340
    6.255    7.3547
    6.270    8.2851
    6.285    7.3723
    6.300    7.4952
    6.315    8.3904
    6.330    8.1271
    6.345    7.9340
    6.360    7.6707
    6.375    7.4952
    6.390    8.0744
    6.405    7.6356
    6.420    7.7760
    6.435    7.4952
    6.450    7.4776
    6.465    7.6005
    6.480    7.1090
    6.495    7.6883
    6.510    7.3547
    6.525    7.4074
    6.540    7.7234
    6.555    7.4250
    6.570    7.2494
    6.585    6.7228
    6.600    7.2670
    6.615    8.0744
    6.630    7.8638
    6.645    7.3196
    6.660    7.6707
    6.675    7.6532
    6.690    7.5303
    6.705    7.2845
    6.720    7.2319
    6.735    7.4074
    6.750    7.7058
    6.765    7.0915
    6.780    7.2319
    6.795    7.7585
    6.810    7.1792
    6.825    6.8633
    6.840    6.4771
    6.855    6.7930
    6.870    7.1441
    6.885    7.2494
    6.900    6.7579
    6.915    7.2143
    6.930    7.1792
    6.945    6.3016
    6.960    6.5473
    6.975    7.2494
    6.990    6.9861
    7.005    6.7930
    7.020    6.6000
    7.035    6.4244
    7.050    6.6526
    7.065    6.5122
    7.080    6.5122
    7.095    7.1441
    7.110    6.4595
    7.125    6.8457
    7.140    6.7404
    7.155    6.8282
    7.170    7.0915
    7.185    6.8633
    7.200    6.7228
    7.215    6.9686
    7.230    6.7053
    7.245    6.5298
    7.260    6.8808
    7.275    6.6526
    7.290    6.7053
    7.305    6.8457
    7.320    6.0558
    7.335    6.0558
    7.350    6.3191
    7.365    6.6877
    7.380    6.3367
    7.395    6.2138
    7.410    6.3367
    7.425    6.1611
    7.440    5.8276
    7.455    5.7925
    7.470    6.3191
    7.485    6.0734
    7.500    5.7223
    7.515    5.7399
    7.530    6.1085
    7.545    6.1436
    7.560    6.2665
    7.575    5.6521
    7.590    6.1436
    7.605    6.0558
    7.620    5.7399
    7.635    5.9856
    7.650    5.8978
    7.665    6.5473
    7.680    6.0909
    7.695    6.4244
    7.710    5.8101
    7.725    5.7399
    7.740    6.4946
    7.755    5.5994
    7.770    6.0558
    7.785    6.2489
    7.800    5.9329
    7.815    6.0909
    7.830    6.1260
    7.845    5.7048
    7.860    5.7223
    7.875    5.6872
    7.890    6.0207
    7.905    5.9505
    7.920    6.3367
    7.935    5.7574
    7.950    5.8627
    7.965    5.7399
    7.980    5.9505
    7.995    5.7399
    8.010    5.2835
    8.025    5.9329
    8.040    5.8803
    8.055    5.4239
    8.070    5.4415
    8.085    5.7048
    8.100    5.6170
    8.115    5.8452
    8.130    5.9856
    8.145    6.1436
    8.160    6.0909
    8.175    5.6697
    8.190    5.3186
    8.205    6.0734
    8.220    5.6697
    8.235    5.8978
    8.250    5.2133
    8.265    6.1787
    8.280    5.8101
    8.295    5.5994
    8.310    5.7574
    8.325    6.0558
    8.340    5.6697
    8.355    5.6521
    8.370    5.3361
    8.385    5.7925
    8.400    5.4064
    8.415    5.4590
    8.430    6.1962
    8.445    6.1085
    8.460    5.7223
    8.475    5.2133
    8.490    5.6697
    8.505    5.6872
    8.520    5.7399
    8.535    5.6697
    8.550    5.6697
    8.565    5.6170
    8.580    5.8452
    8.595    5.3361
    8.610    5.6697
    8.625    5.9154
    8.640    5.3010
    8.655    6.0032
    8.670    5.7399
    8.685    5.4766
    8.700    5.2835
    8.715    5.6170
    8.730    5.6521
    8.745    5.3537
    8.760    5.6170
    8.775    5.4415
    8.790    5.5292
    8.805    5.3888
    8.820    5.5468
    8.835    5.4064
    8.850    5.4590
    8.865    5.5292
    8.880    5.7399
    8.895    5.4590
    8.910    5.0377
    8.925    5.6345
    8.940    5.7925
    8.955    5.6872
    8.970    5.6521
    8.985    5.9505
    9.000    5.3888
    9.015    4.9324
    9.030    5.3361
    9.045    5.5643
    9.060    5.7574
    9.075    5.7574
    9.090    5.3537
    9.105    5.2659
    9.120    5.2659
    9.135    5.0553
    9.150    4.9851
    9.165    5.2659
    9.180    5.5819
    9.195    5.0904
    9.210    5.2659
    9.225    5.8803
    9.240    5.8978
    9.255    5.7048
    9.270    5.2835
    9.285    5.8627
    9.300    5.2308
    9.315    5.9154
    9.330    5.9505
    9.345    5.6345
    9.360    5.3537
    9.375    5.4064
    9.390    5.6697
    9.405    5.9856
    9.420    5.7925
    9.435    5.5292
    9.450    5.4766
    9.465    5.7399
    9.480    5.7223
    9.495    5.9505
    9.510    5.6345
    9.525    5.6345
    9.540    6.1085
    9.555    5.4941
    9.570    5.7925
    9.585    5.4941
    9.600    5.3888
    9.615    5.2308
    9.630    5.9681
    9.645    6.0207
    9.660    5.3537
    9.675    5.0904
    9.690    5.3537
    9.705    5.5819
    9.720    5.4941
    9.735    5.0728
    9.750    5.3361
    9.765    5.4766
    9.780    5.5292
    9.795    5.5994
    9.810    5.6697
    9.825    5.4941
    9.840    5.2484
    9.855    5.4239
    9.870    5.7574
    9.885    5.8452
    9.900    5.8452
    9.915    5.6345
    9.930    5.5117
    9.945    5.6345
    9.960    6.1962
    9.975    5.5643
    9.990    5.6170
   10.005    6.0207
   10.020    5.8276
   10.035    6.0909
   10.050    5.8101
   10.065    5.9154
   10.080    5.8452
   10.095    5.5643
   10.110    5.7048
   10.125    5.5819
   10.140    5.8276
   10.155    5.9154
   10.170    5.8627
   10.185    5.9154
   10.200    5.3361
   10.215    5.4064
   10.230    5.7750
   10.245    5.6872
   10.260    5.8803
   10.275    6.2138
   10.290    6.0909
   10.305    5.8276
   10.320    5.5994
   10.335    5.9505
   10.350    5.6521
   10.365    5.1957
   10.380    5.6345
   10.395    5.7399
   10.410    5.7750
   10.425    5.6872
   10.440    5.7574
   10.455    5.5994
   10.470    5.6345
   10.485    6.0207
   10.500    6.2138
   10.515    5.8978
   10.530    5.8276
   10.545    6.2138
   10.560    5.5117
   10.575    5.9505
   10.590    5.8627
   10.605    5.5292
   10.620    5.6170
   10.635    5.7925
   10.650    5.6170
   10.665    5.8276
   10.680    5.8627
   10.695    6.3718
   10.710    5.8803
   10.725    5.5819
   10.740    5.4766
   10.755    6.0558
   10.770    6.0909
   10.785    5.9681
   10.800    5.7574
   10.815    6.0032
   10.830    6.3191
   10.845    6.0558
   10.860    6.3191
   10.875    5.7925
   10.890    5.6345
   10.905    6.3542
   10.920    6.3542
   10.935    6.1260
   10.950    6.3191
   10.965    5.6345
   10.980    6.1611
   10.995    6.4069
   11.010    6.0032
   11.025    5.8803
   11.040    5.8627
   11.055    5.5468
   11.070    5.7574
   11.085    5.5643
   11.100    5.7925
   11.115    5.4239
   11.130    5.5994
   11.145    6.2489
   11.160    5.6697
   11.175    5.5819
   11.190    5.7223
   11.205    5.3537
   11.220    5.7574
   11.235    5.8101
   11.250    6.1611
   11.265    6.2138
   11.280    5.7223
   11.295    5.5292
   11.310    5.8276
   11.325    5.9856
   11.340    5.5117
   11.355    5.7399
   11.370    5.3888
   11.385    5.3888
   11.400    5.5468
   11.415    5.5643
   11.430    5.3888
   11.445    6.0734
   11.460    5.8627
   11.475    5.6872
   11.490    5.5292
   11.505    5.7223
   11.520    5.8452
   11.535    5.9505
   11.550    6.2489
   11.565    6.0032
   11.580    5.7925
   11.595    5.4239
   11.610    5.7399
   11.625    5.5468
   11.640    5.2308
   11.655    5.4766
   11.670    6.0383
   11.685    6.1611
   11.700    5.7750
   11.715    5.8627
   11.730    6.0032
   11.745    5.5292
   11.760    6.2313
   11.775    5.8978
   11.790    5.5819
   11.805    5.8978
   11.820    5.6170
   11.835    5.5117
   11.850    5.1782
   11.865    5.5292
   11.880    5.4415
   11.895    5.5117
   11.910    5.4766
   11.925    5.8452
   11.940    5.7223
   11.955    5.5994
   11.970    5.0728
   11.985    5.1431
   12.000    5.4941
   12.015    5.0026
   12.030    5.2133
   12.045    5.5292
   12.060    5.5292
   12.075    5.7399
   12.090    5.7223
   12.105    5.1431
   12.120    5.2835
   12.135    5.3537
   12.150    5.6345
   12.165    5.7925
   12.180    5.6345
   12.195    5.7399
   12.210    5.4064
   12.225    5.2835
   12.240    6.2840
   12.255    5.3537
   12.270    5.4239
   12.285    5.4766
   12.300    5.4941
   12.315    5.7399
   12.330    5.4941
   12.345    5.0026
   12.360    5.3186
   12.375    5.7399
   12.390    5.6170
   12.405    4.8622
   12.420    5.4941
   12.435    5.0728
   12.450    5.1782
   12.465    5.1957
   12.480    4.9324
   12.495    4.9851
   12.510    4.7569
   12.525    5.5819
   12.540    5.2308
   12.555    5.0553
   12.570    5.0202
   12.585    4.9675
   12.600    5.2484
   12.615    4.6867
   12.630    5.5643
   12.645    4.8798
   12.660    5.2133
   12.675    5.5643
   12.690    5.6170
   12.705    5.4415
   12.720    5.0553
   12.735    5.4415
   12.750    5.1080
   12.765    4.8271
   12.780    4.6516
   12.795    5.4415
   12.810    5.2835
   12.825    5.3186
   12.840    5.7750
   12.855    5.7048
   12.870    5.3712
   12.885    5.2133
   12.900    5.5117
   12.915    5.3010
   12.930    4.8622
   12.945    5.5292
   12.960    5.8803
   12.975    5.5819
   12.990    5.2484
   13.005    4.6691
   13.020    5.1606
   13.035    5.0202
   13.050    4.7744
   13.065    4.8973
   13.080    5.1431
   13.095    5.1431
   13.110    5.2484
   13.125    5.2308
   13.140    5.0553
   13.155    4.6340
   13.170    5.0202
   13.185    5.3186
   13.200    5.2484
   13.215    5.3537
   13.230    4.8095
   13.245    5.1957
   13.260    5.6345
   13.275    5.2308
   13.290    5.2133
   13.305    5.4415
   13.320    5.6521
   13.335    5.4941
   13.350    5.4590
   13.365    4.9851
   13.380    5.4590
   13.395    5.2484
   13.410    5.6521
   13.425    5.3712
   13.440    5.5468
   13.455    5.7399
   13.470    4.9851
   13.485    5.6170
   13.500    5.8627
   13.515    5.3010
   13.530    5.1255
   13.545    5.0904
   13.560    5.3712
   13.575    5.3888
   13.590    4.8447
   13.605    4.7218
   13.620    5.1431
   13.635    5.5994
   13.650    5.0026
   13.665    4.9324
   13.680    5.3010
   13.695    5.4415
   13.710    5.8276
   13.725    5.7574
   13.740    5.4064
   13.755    5.2308
   13.770    5.7048
   13.785    5.2835
   13.800    5.2484
   13.815    5.9154
   13.830    5.5643
   13.845    5.5819
   13.860    5.6521
   13.875    5.7750
   13.890    5.3361
   13.905    5.1255
   13.920    5.0377
   13.935    5.4766
   13.950    5.7399
   13.965    5.5292
   13.980    5.1255
   13.995    5.2484
   14.010    5.6697
   14.025    5.7048
   14.040    5.8452
   14.055    5.7574
   14.070    5.6170
   14.085    6.0558
   14.100    5.1255
   14.115    5.2659
   14.130    5.4064
   14.145    5.5819
   14.160    5.5117
   14.175    5.4415
   14.190    5.7574
   14.205    5.1431
   14.220    5.4590
   14.235    5.5643
   14.250    5.3712
   14.265    5.6872
   14.280    5.6697
   14.295    5.3888
   14.310    5.0904
   14.325    5.7574
   14.340    6.0734
   14.355    5.7399
   14.370    5.7223
   14.385    5.8276
   14.400    6.0909
   14.415    5.5994
   14.430    5.5819
   14.445    5.6170
   14.460    6.1436
   14.475    5.9329
   14.490    5.6872
   14.505    5.7223
   14.520    5.9681
   14.535    5.7574
   14.550    5.2308
   14.565    5.7223
   14.580    6.1787
   14.595    5.7223
   14.610    5.6345
   14.625    5.6872
   14.640    5.6521
   14.655    5.7750
   14.670    5.3712
   14.685    6.0558
   14.700    5.7223
   14.715    5.2659
   14.730    5.1080
   14.745    5.5117
   14.760    5.3712
   14.775    5.5292
   14.790    6.0207
   14.805    5.3010
   14.820    5.1606
   14.835    5.0026
   14.850    5.3537
   14.865    5.4064
   14.880    5.2308
   14.895    5.5643
   14.910    5.2659
   14.925    4.7920
   14.940    5.3888
   14.955    5.5643
   14.970    5.4239
   14.985    5.5117
   15.000    5.5292
   15.015    5.4766
   15.030    5.6345
   15.045    5.3361
   15.060    5.2133
   15.075    5.0904
   15.090    5.6521
   15.105    5.3010
   15.120    5.4766
   15.135    5.4239
   15.150    5.4766
   15.165    5.4941
   15.180    5.5292
   15.195    5.4941
   15.210    5.1431
   15.225    4.9149
   15.240    4.8447
   15.255    4.9324
   15.270    5.4941
   15.285    5.4415
   15.300    5.0728
   15.315    4.9851
   15.330    5.2308
   15.345    5.0026
   15.360    4.8973
   15.375    4.9500
   15.390    5.3537
   15.405    5.5643
   15.420    5.5994
   15.435    4.9149
   15.450    5.0026
   15.465    5.2133
   15.480    5.5468
   15.495    5.4415
   15.510    5.5468
   15.525    5.4766
   15.540    5.4415
   15.555    5.4239
   15.570    5.1782
   15.585    5.0728
   15.600    4.7393
   15.615    4.8798
   15.630    5.3712
   15.645    5.3888
   15.660    5.0026
   15.675    5.3712
   15.690    5.2659
   15.705    4.7042
   15.720    5.1431
   15.735    5.2133
   15.750    5.4590
   15.765    5.0026
   15.780    4.4234
   15.795    4.7218
   15.810    5.3010
   15.825    5.1080
   15.840    5.0553
   15.855    5.2308
   15.870    5.5117
   15.885    5.0377
   15.900    4.9500
   15.915    5.1255
   15.930    4.8973
   15.945    5.3537
   15.960    4.8973
   15.975    4.8622
   15.990    5.0728
   16.005    5.0202
   16.020    5.0026
   16.035    5.3186
   16.050    5.5819
   16.065    5.2835
   16.080    5.2308
   16.095    4.8973
   16.110    5.0553
   16.125    5.4415
   16.140    5.2659
   16.155    5.3186
   16.170    5.5117
   16.185    5.1431
   16.200    5.1782
   16.215    5.2835
   16.230    4.9324
   16.245    5.4941
   16.260    5.2659
   16.275    5.3712
   16.290    5.0026
   16.305    5.1080
   16.320    5.4941
   16.335    5.2659
   16.350    5.0728
   16.365    5.1782
   16.380    4.8095
   16.395    5.1080
   16.410    5.1255
   16.425    4.9851
   16.440    4.9851
   16.455    4.9500
   16.470    4.7920
   16.485    4.8798
   16.500    5.0026
   16.515    5.1957
   16.530    5.2484
   16.545    5.2659
   16.560    4.7744
   16.575    5.3361
   16.590    5.3712
   16.605    5.2659
   16.620    5.1782
   16.635    5.1957
   16.650    5.0202
   16.665    5.0202
   16.680    5.1606
   16.695    5.0904
   16.710    5.1782
   16.725    5.1431
   16.740    5.0026
   16.755    5.0377
   16.770    5.0202
   16.785    4.9149
   16.800    5.1606
   16.815    5.3010
   16.830    5.0202
   16.845    5.2133
   16.860    5.1957
   16.875    4.6516
   16.890    4.7920
   16.905    4.9851
   16.920    5.1782
   16.935    4.9675
   16.950    5.1080
   16.965    5.3537
   16.980    4.9675
   16.995    5.3712
   17.010    5.2484
   17.025    4.9149
   17.040    5.4064
   17.055    5.2835
   17.070    5.3888
   17.085    5.0026
   17.100    5.4766
   17.115    5.3888
   17.130    5.4590
   17.145    5.3537
   17.160    4.9675
   17.175    5.3010
   17.190    4.9675
   17.205    4.7393
   17.220    5.0904
   17.235    5.2133
   17.250    5.0728
   17.265    5.0202
   17.280    4.9851
   17.295    5.0553
   17.310    5.0553
   17.325    4.9324
   17.340    5.3361
   17.355    4.9851
   17.370    4.9851
   17.385    5.2484
   17.400    5.2133
   17.415    5.1255
   17.430    4.8798
   17.445    5.1606
   17.460    5.0026
   17.475    5.1957
   17.490    5.3186
   17.505    5.0377
   17.520    4.9500
   17.535    4.7393
   17.550    4.8622
   17.565    4.5287
   17.580    4.8973
   17.595    4.9500
   17.610    5.2835
   17.625    4.8271
   17.640    4.9324
   17.655    4.8973
   17.670    4.8447
   17.685    5.0202
   17.700    4.9675
   17.715    4.9324
   17.730    5.4766
   17.745    5.1431
   17.760    5.1957
   17.775    4.7218
   17.790    5.1782
   17.805    5.4941
   17.820    5.2133
   17.835    4.9149
   17.850    5.4415
   17.865    4.9500
   17.880    5.4590
   17.895    5.3186
   17.910    5.2133
   17.925    5.2484
   17.940    4.9149
   17.955    4.7744
   17.970    5.0553
   17.985    5.1606
   18.000    5.1782
   18.015    5.2133
   18.030    5.6345
   18.045    5.1431
   18.060    5.3010
   18.075    5.5819
   18.090    5.0553
   18.105    4.9675
   18.120    5.3186
   18.135    5.3361
   18.150    5.4415
   18.165    4.7218
   18.180    5.0553
   18.195    4.9324
   18.210    4.8622
   18.225    5.3888
   18.240    4.9500
   18.255    5.2308
   18.270    5.5117
   18.285    5.1431
   18.300    5.2308
   18.315    5.3537
   18.330    5.1080
   18.345    4.6516
   18.360    5.1606
   18.375    5.2308
   18.390    5.1606
   18.405    4.9149
   18.420    5.0026
   18.435    4.6340
   18.450    4.7042
   18.465    5.1431
   18.480    4.5814
   18.495    5.0202
   18.510    4.9324
   18.525    5.2133
   18.540    4.8622
   18.555    4.7218
   18.570    5.0553
   18.585    5.2133
   18.600    5.1080
   18.615    4.9851
   18.630    5.4239
   18.645    5.3010
   18.660    5.1606
   18.675    5.2133
   18.690    4.8447
   18.705    5.0553
   18.720    4.8095
   18.735    4.4760
   18.750    4.8622
   18.765    5.1606
   18.780    5.0377
   18.795    5.2835
   18.810    5.2133
   18.825    5.0026
   18.840    5.1080
   18.855    5.4415
   18.870    5.3712
   18.885    5.1782
   18.900    4.7920
   18.915    4.8095
   18.930    5.3010
   18.945    4.7569
   18.960    4.5814
   18.975    4.5111
   18.990    4.6867
   19.005    4.6340
   19.020    4.6516
   19.035    4.9675
   19.050    4.7744
   19.065    4.9149
   19.080    4.8798
   19.095    4.8973
   19.110    5.2835
   19.125    5.2835
   19.140    4.9324
   19.155    5.0202
   19.170    5.0202
   19.185    4.9324
   19.200    4.7744
   19.215    5.0904
   19.230    4.8973
   19.245    5.1080
   19.260    4.9149
   19.275    4.7744
   19.290    4.7218
   19.305    4.8622
   19.320    4.7569
   19.335    4.9324
   19.350    5.1431
   19.365    5.0377
   19.380    4.9149
   19.395    4.7569
   19.410    4.9851
   19.425    4.9851
   19.440    4.9324
   19.455    4.9851
   19.470    4.8095
   19.485    4.9675
   19.500    4.4058
   19.515    4.9324
   19.530    5.0377
   19.545    5.1431
   19.560    5.0728
   19.575    5.0377
   19.590    4.8271
   19.605    5.2133
   19.620    4.7042
   19.635    4.7218
   19.650    4.8447
   19.665    4.6516
   19.680    4.8447
   19.695    4.8271
   19.710    4.5638
   19.725    4.8095
   19.740    4.7393
   19.755    5.0904
   19.770    4.7920
   19.785    4.8271
   19.800    4.7569
   19.815    4.4058
   19.830    4.7218
   19.845    4.5638
   19.860    4.4058
   19.875    4.8095
   19.890    4.6691
   19.905    5.0202
   19.920    4.9675
   19.935    4.7569
   19.950    4.6691
   19.965    4.9324
   19.980    4.8622
   19.995    4.6165
   20.010    4.9149
   20.025    4.5463
   20.040    4.4760
   20.055    4.9149
   20.070    5.4064
   20.085    5.1255
   20.100    4.6516
   20.115    4.7218
   20.130    4.8973
   20.145    4.4760
   20.160    4.7218
   20.175    5.0377
   20.190    5.3537
   20.205    5.1431
   20.220    4.9851
   20.235    4.8622
   20.250    4.7744
   20.265    5.1957
   20.280    4.8095
   20.295    4.7744
   20.310    4.7744
   20.325    5.2133
   20.340    4.9675
   20.355    4.6340
   20.370    4.5287
   20.385    5.1606
   20.400    4.9324
   20.415    4.9675
   20.430    4.6867
   20.445    4.6691
   20.460    4.3883
   20.475    4.5638
   20.490    4.7218
   20.505    4.6165
   20.520    4.9324
   20.535    4.8271
   20.550    4.8271
   20.565    4.5463
   20.580    5.0904
   20.595    5.0553
   20.610    4.6340
   20.625    4.4760
   20.640    4.6340
   20.655    4.7920
   20.670    4.9324
   20.685    5.1080
   20.700    4.7920
   20.715    4.8973
   20.730    4.7744
   20.745    4.7920
   20.760    5.1606
   20.775    4.7744
   20.790    4.7920
   20.805    4.4760
   20.820    4.1425
   20.835    4.7218
   20.850    4.5814
   20.865    4.3181
   20.880    5.3361
   20.895    4.9149
   20.910    5.3537
   20.925    5.0202
   20.940    5.0553
   20.955    4.8622
   20.970    4.6516
   20.985    4.8798
   21.000    4.4058
   21.015    4.5111
   21.030    4.2127
   21.045    4.7218
   21.060    4.3181
   21.075    4.5287
   21.090    4.8447
   21.105    4.7569
   21.120    5.1431
   21.135    5.1255
   21.150    5.2308
   21.165    4.8271
   21.180    4.5814
   21.195    4.7042
   21.210    4.5463
   21.225    4.4409
   21.240    4.7569
   21.255    4.7393
   21.270    4.7218
   21.285    4.1425
   21.300    4.6165
   21.315    4.7744
   21.330    4.8973
   21.345    4.5463
   21.360    4.6340
   21.375    4.5989
   21.390    4.9324
   21.405    4.6516
   21.420    4.9675
   21.435    4.5287
   21.450    4.5989
   21.465    4.6516
   21.480    4.6691
   21.495    4.8798
   21.510    4.6867
   21.525    4.9324
   21.540    4.9324
   21.555    4.7569
   21.570    4.8447
   21.585    4.8622
   21.600    4.7218
   21.615    4.5638
   21.630    4.3181
   21.645    4.7744
   21.660    4.8447
   21.675    4.7920
   21.690    4.6340
   21.705    4.8622
   21.720    5.0553
   21.735    4.8095
   21.750    4.8622
   21.765    5.0026
   21.780    5.0026
   21.795    4.6165
   21.810    4.2654
   21.825    4.2303
   21.840    4.2830
   21.855    4.7393
   21.870    4.9675
   21.885    4.8622
   21.900    4.9500
   21.915    4.5989
   21.930    4.8095
   21.945    5.1255
   21.960    4.7218
   21.975    4.8798
   21.990    4.7920
   22.005    4.6867
   22.020    4.8798
   22.035    4.5989
   22.050    4.6340
   22.065    4.5638
   22.080    4.6516
   22.095    4.5638
   22.110    4.5463
   22.125    4.7920
   22.140    4.9324
   22.155    4.6691
   22.170    4.7042
   22.185    4.8447
   22.200    4.6867
   22.215    4.8973
   22.230    4.7569
   22.245    4.4058
   22.260    4.4409
   22.275    3.9143
   22.290    4.5287
   22.305    4.2654
   22.320    4.1250
   22.335    4.3181
   22.350    4.5111
   22.365    4.7569
   22.380    4.5638
   22.395    4.4585
   22.410    4.2478
   22.425    4.5989
   22.440    4.8447
   22.455    4.6165
   22.470    4.1776
   22.485    4.5287
   22.500    4.2654
   22.515    4.8095
   22.530    4.8095
   22.545    4.4936
   22.560    4.8271
   22.575    4.5111
   22.590    4.2654
   22.605    4.7920
   22.620    4.7393
   22.635    4.9149
   22.650    4.6165
   22.665    4.3883
   22.680    4.6340
   22.695    4.5463
   22.710    4.4234
   22.725    4.3883
   22.740    4.5463
   22.755    4.4585
   22.770    4.4760
   22.785    4.7569
   22.800    4.5638
   22.815    4.4585
   22.830    4.7042
   22.845    4.5463
   22.860    4.4585
   22.875    4.6516
   22.890    4.7218
   22.905    4.5287
   22.920    4.3005
   22.935    4.4409
   22.950    4.6691
   22.965    4.3532
   22.980    4.7218
   22.995    4.7218
   23.010    4.5989
   23.025    4.4936
   23.040    4.6340
   23.055    4.3005
   23.070    4.0548
   23.085    4.2830
   23.100    4.3883
   23.115    3.8617
   23.130    4.1074
   23.145    4.1601
   23.160    4.3707
   23.175    4.5814
   23.190    4.7920
   23.205    4.4409
   23.220    4.2303
   23.235    4.6867
   23.250    4.3181
   23.265    4.5463
   23.280    4.4234
   23.295    4.1250
   23.310    4.6516
   23.325    4.3532
   23.340    4.5989
   23.355    4.8095
   23.370    4.2303
   23.385    3.9670
   23.400    3.9494
   23.415    4.3181
   23.430    4.5463
   23.445    4.5463
   23.460    4.3005
   23.475    3.9494
   23.490    4.2303
   23.505    4.5463
   23.520    4.3356
   23.535    4.5287
   23.550    4.4585
   23.565    4.3707
   23.580    4.8447
   23.595    4.6165
   23.610    4.8447
   23.625    4.6691
   23.640    4.1776
   23.655    4.1952
   23.670    4.4409
   23.685    4.1776
   23.700    4.0021
   23.715    4.1601
   23.730    4.0723
   23.745    4.3356
   23.760    4.0899
   23.775    3.9670
   23.790    4.2830
   23.805    4.5638
   23.820    4.5111
   23.835    4.5814
   23.850    4.0372
   23.865    4.3883
   23.880    4.6340
   23.895    4.2478
   23.910    4.1776
   23.925    4.3356
   23.940    4.2478
   23.955    4.6340
   23.970    4.4760
   23.985    4.1425
   24.000    4.0372
   24.015    3.9846
   24.030    4.0197
   24.045    4.2830
   24.060    4.0899
   24.075    4.2478
   24.090    3.8441
   24.105    3.9670
   24.120    4.2654
   24.135    4.1776
   24.150    4.4058
   24.165    4.1776
   24.180    3.8968
   24.195    4.3356
   24.210    4.3532
   24.225    4.1601
   24.240    4.1776
   24.255    4.3356
   24.270    4.3883
   24.285    3.9319
   24.300    3.8090
   24.315    4.0899
   24.330    4.1601
   24.345    4.1250
   24.360    4.3883
   24.375    4.1425
   24.390    3.6686
   24.405    4.1250
   24.420    4.1074
   24.435    4.3532
   24.450    4.0197
   24.465    4.1074
   24.480    4.1425
   24.495    4.3532
   24.510    4.3356
   24.525    4.3356
   24.540    4.2127
   24.555    4.0021
   24.570    4.3532
   24.585    4.3883
   24.600    4.3005
   24.615    4.3005
   24.630    4.7920
   24.645    4.0021
   24.660    3.9670
   24.675    3.9494
   24.690    3.8090
   24.705    3.9846
   24.720    4.1601
   24.735    4.2127
   24.750    3.6510
   24.765    3.8968
   24.780    4.1074
   24.795    4.3181
   24.810    4.0372
   24.825    3.7388
   24.840    3.9143
   24.855    4.4058
   24.870    4.1074
   24.885    3.9319
   24.900    3.8617
   24.915    4.2127
   24.930    4.0899
   24.945    4.2478
   24.960    3.8441
   24.975    3.5106
   24.990    3.8266
   25.005    4.0548
   25.020    4.4760
   25.035    4.3356
   25.050    4.5287
   25.065    4.3707
   25.080    3.9670
   25.095    3.9494
   25.110    4.0197
   25.125    4.0899
   25.140    4.2303
   25.155    3.9319
   25.170    4.1425
   25.185    4.1425
   25.200    4.1250
   25.215    4.2654
   25.230    4.3356
   25.245    3.9319
   25.260    3.8090
   25.275    4.1601
   25.290    3.9494
   25.305    3.6159
   25.320    3.8617
   25.335    4.0723
   25.350    3.8968
   25.365    3.9143
   25.380    3.8792
   25.395    4.1952
   25.410    4.1776
   25.425    3.5106
   25.440    3.7564
   25.455    4.1425
   25.470    4.0723
   25.485    4.0723
   25.500    4.2830
   25.515    4.1601
   25.530    4.0723
   25.545    4.7042
   25.560    4.1425
   25.575    4.2654
   25.590    4.0197
   25.605    4.0197
   25.620    3.9494
   25.635    3.7915
   25.650    3.9846
   25.665    3.8090
   25.680    3.7915
   25.695    3.7915
   25.710    4.0723
   25.725    4.1425
   25.740    3.6862
   25.755    4.0899
   25.770    4.2654
   25.785    4.0723
   25.800    4.3532
   25.815    4.0548
   25.830    4.1074
   25.845    3.9143
   25.860    3.9319
   25.875    3.6335
   25.890    3.5633
   25.905    3.7739
   25.920    3.5457
   25.935    4.2478
   25.950    4.3883
   25.965    4.2830
   25.980    4.2654
   25.995    4.2303
   26.010    3.9319
   26.025    3.6862
   26.040    4.2127
   26.055    4.0197
   26.070    3.8968
   26.085    3.8266
   26.100    4.0197
   26.115    4.1250
   26.130    4.0372
   26.145    4.0197
   26.160    4.1952
   26.175    4.1776
   26.190    4.0021
   26.205    4.1425
   26.220    3.7564
   26.235    4.0899
   26.250    3.9143
   26.265    4.2830
   26.280    4.3707
   26.295    4.2830
   26.310    3.7564
   26.325    3.9143
   26.340    4.1250
   26.355    4.0548
   26.370    3.7564
   26.385    3.8792
   26.400    4.2127
   26.415    3.9143
   26.430    3.5633
   26.445    3.9143
   26.460    3.9319
   26.475    4.0197
   26.490    4.2478
   26.505    3.9494
   26.520    3.8090
   26.535    4.0372
   26.550    3.6862
   26.565    4.2303
   26.580    4.0197
   26.595    4.0548
   26.610    4.0899
   26.625    4.3181
   26.640    3.7388
   26.655    3.6510
   26.670    3.8792
   26.685    4.0548
   26.700    3.9143
   26.715    3.6510
   26.730    3.8090
   26.745    3.7213
   26.760    3.6862
   26.775    3.4229
   26.790    3.5633
   26.805    3.9143
   26.820    3.6686
   26.835    3.5984
   26.850    3.6159
   26.865    3.5808
   26.880    4.1776
   26.895    3.7564
   26.910    3.8090
   26.925    3.8441
   26.940    3.5282
   26.955    3.7739
   26.970    4.1776
   26.985    3.9494
   27.000    3.7037
   27.015    3.7915
   27.030    3.6159
   27.045    3.9494
   27.060    3.8617
   27.075    3.5633
   27.090    3.7915
   27.105    4.1250
   27.120    3.7915
   27.135    3.6335
   27.150    3.6686
   27.165    3.6686
   27.180    3.5633
   27.195    3.6159
   27.210    3.6686
   27.225    4.0197
   27.240    4.1250
   27.255    3.9670
   27.270    3.8441
   27.285    3.6510
   27.300    3.4931
   27.315    3.6862
   27.330    3.8792
   27.345    3.5282
   27.360    3.6335
   27.375    4.4058
   27.390    3.6686
   27.405    3.4580
   27.420    3.7739
   27.435    3.8968
   27.450    4.1776
   27.465    3.4229
   27.480    3.3702
   27.495    3.5984
   27.510    3.8968
   27.525    4.0548
   27.540    4.1250
   27.555    3.7213
   27.570    3.8090
   27.585    3.7388
   27.600    3.6510
   27.615    3.8617
   27.630    3.8968
   27.645    3.4931
   27.660    3.4580
   27.675    3.7564
   27.690    3.5457
   27.705    3.4229
   27.720    3.7213
   27.735    3.5457
   27.750    3.8090
   27.765    4.0021
   27.780    3.7739
   27.795    3.5106
   27.810    3.4931
   27.825    3.5457
   27.840    3.5457
   27.855    3.4755
   27.870    3.3000
   27.885    3.7739
   27.900    3.7564
   27.915    3.9670
   27.930    3.8266
   27.945    3.4053
   27.960    3.6335
   27.975    3.4229
   27.990    3.2122
   28.005    3.4931
   28.020    3.4053
   28.035    3.7388
   28.050    3.9319
   28.065    3.8266
   28.080    3.5282
   28.095    3.4931
   28.110    3.5282
   28.125    3.6335
   28.140    3.4404
   28.155    3.5808
   28.170    3.8617
   28.185    3.6335
   28.200    3.4931
   28.215    3.4404
   28.230    3.5984
   28.245    3.3702
   28.260    3.6686
   28.275    3.5808
   28.290    3.7564
   28.305    3.5282
   28.320    3.7037
   28.335    3.3877
   28.350    3.3526
   28.365    3.6686
   28.380    3.6510
   28.395    3.5457
   28.410    3.4404
   28.425    3.3000
   28.440    3.4931
   28.455    3.5457
   28.470    3.4229
   28.485    3.6686
   28.500    3.4931
   28.515    3.8617
   28.530    3.4755
   28.545    3.4931
   28.560    3.6862
   28.575    3.4229
   28.590    3.3175
   28.605    3.6862
   28.620    3.4229
   28.635    3.3000
   28.650    3.5282
   28.665    3.4580
   28.680    3.5457
   28.695    3.5808
   28.710    3.5457
   28.725    3.6510
   28.740    3.4931
   28.755    3.2298
   28.770    3.9143
   28.785    3.6159
   28.800    3.4580
   28.815    3.3175
   28.830    3.5633
   28.845    3.6862
   28.860    3.8441
   28.875    3.7213
   28.890    3.4755
   28.905    3.2298
   28.920    3.3702
   28.935    3.4580
   28.950    3.8441
   28.965    3.8441
   28.980    3.4755
   28.995    3.5106
   29.010    3.6510
   29.025    3.5984
   29.040    3.4931
   29.055    3.7739
   29.070    3.5808
   29.085    3.9494
   29.100    3.5633
   29.115    3.6862
   29.130    3.4229
   29.145    3.5984
   29.160    3.4404
   29.175    3.4755
   29.190    3.4755
   29.205    3.3175
   29.220    3.5282
   29.235    3.4404
   29.250    3.3702
   29.265    3.0191
   29.280    3.4053
   29.295    3.1596
   29.310    3.3000
   29.325    3.3000
   29.340    3.3351
   29.355    3.4931
   29.370    3.4229
   29.385    2.9314
   29.400    3.1596
   29.415    3.5633
   29.430    3.4580
   29.445    3.4755
   29.460    3.3877
   29.475    3.3175
   29.490    3.2649
   29.505    3.1245
   29.520    2.9665
   29.535    2.9138
   29.550    3.0718
   29.565    2.9489
   29.580    3.2473
   29.595    2.9489
   29.610    3.3877
   29.625    3.3000
   29.640    3.3000
   29.655    3.2649
   29.670    3.0542
   29.685    3.3351
   29.700    3.3877
   29.715    3.3877
   29.730    3.2824
   29.745    3.1771
   29.760    2.9665
   29.775    3.1771
   29.790    3.0893
   29.805    3.2298
   29.820    3.3351
   29.835    3.2298
   29.850    3.0718
   29.865    3.4931
   29.880    3.2298
   29.895    2.9489
   29.910    3.3175
   29.925    3.0718
   29.940    3.0718
   29.955    3.1947
   29.970    3.0191
   29.985    2.9489
   30.000    3.2298
   30.015    3.1069
   30.030    3.1596
   30.045    3.2122
   30.060    3.5106
   30.075    3.1771
   30.090    3.1596
   30.105    3.3351
   30.120    3.1069
   30.135    2.9665
   30.150    3.1596
   30.165    3.4404
   30.180    3.1947
   30.195    2.8436
   30.210    3.1245
   30.225    3.4580
   30.240    3.1771
   30.255    3.0367
   30.270    3.6862
   30.285    3.1596
   30.300    3.4053
   30.315    2.9489
   30.330    3.1420
   30.345    3.2473
   30.360    3.0542
   30.375    3.4053
   30.390    3.0191
   30.405    3.1596
   30.420    3.1947
   30.435    3.1420
   30.450    3.1596
   30.465    3.1947
   30.480    3.0016
   30.495    3.1069
   30.510    3.3000
   30.525    3.1596
   30.540    3.0016
   30.555    3.1771
   30.570    3.0893
   30.585    2.9138
   30.600    2.9314
   30.615    3.4053
   30.630    3.3877
   30.645    3.7388
   30.660    3.0893
   30.675    3.1245
   30.690    3.0016
   30.705    2.9665
   30.720    3.0016
   30.735    2.8963
   30.750    3.0367
   30.765    3.5457
   30.780    3.4404
   30.795    3.1947
   30.810    3.0893
   30.825    2.9489
   30.840    2.7558
   30.855    2.8260
   30.870    2.8963
   30.885    3.0718
   30.900    2.6856
   30.915    2.6330
   30.930    3.1947
   30.945    3.2649
   30.960    2.9138
   30.975    2.8612
   30.990    3.1596
   31.005    2.9138
   31.020    2.7909
   31.035    3.0191
   31.050    3.0542
   31.065    3.2824
   31.080    3.2122
   31.095    2.8436
   31.110    3.0718
   31.125    2.7909
   31.140    2.8787
   31.155    2.7909
   31.170    3.0016
   31.185    2.9138
   31.200    2.9665
   31.215    2.7734
   31.230    3.1069
   31.245    2.8260
   31.260    2.8436
   31.275    3.3000
   31.290    3.3175
   31.305    2.8963
   31.320    2.9840
   31.335    2.9314
   31.350    2.8436
   31.365    3.0191
   31.380    2.8085
   31.395    2.9314
   31.410    3.0542
   31.425    2.9489
   31.440    3.0718
   31.455    2.9138
   31.470    3.0542
   31.485    2.8787
   31.500    2.9665
   31.515    3.0542
   31.530    3.0718
   31.545    3.0016
   31.560    3.1420
   31.575    3.0191
   31.590    2.9489
   31.605    3.1069
   31.620    2.9314
   31.635    2.7734
   31.650    2.7558
   31.665    3.0367
   31.680    2.9665
   31.695    2.9665
   31.710    2.8260
   31.725    2.8260
   31.740    3.1771
   31.755    3.0718
   31.770    3.0542
   31.785    3.1245
   31.800    3.2649
   31.815    2.9840
   31.830    2.8612
   31.845    2.8085
   31.860    2.4750
   31.875    2.6330
   31.890    3.0016
   31.905    2.7734
   31.920    2.7383
   31.935    3.1069
   31.950    2.8260
   31.965    2.7734
   31.980    2.7734
   31.995    3.1245
   32.010    2.9489
   32.025    2.7558
   32.040    2.6330
   32.055    2.8612
   32.070    2.5803
   32.085    2.8787
   32.100    2.5803
   32.115    2.8085
   32.130    2.9138
   32.145    2.8612
   32.160    2.5979
   32.175    2.8260
   32.190    2.5628
   32.205    2.5803
   32.220    2.6681
   32.235    3.1420
   32.250    2.9138
   32.265    2.7383
   32.280    2.8085
   32.295    2.6505
   32.310    2.5628
   32.325    2.8085
   32.340    2.7909
   32.355    2.9138
   32.370    2.9138
   32.385    2.8436
   32.400    2.7207
   32.415    2.7558
   32.430    3.1069
   32.445    2.7734
   32.460    2.7909
   32.475    2.7734
   32.490    2.7734
   32.505    2.7032
   32.520    3.0016
   32.535    2.9314
   32.550    2.6505
   32.565    2.8085
   32.580    2.6154
   32.595    2.5803
   32.610    2.9665
   32.625    2.4750
   32.640    2.7734
   32.655    2.7909
   32.670    2.6856
   32.685    2.7734
   32.700    2.6154
   32.715    2.7383
   32.730    2.8963
   32.745    2.5979
   32.760    2.9665
   32.775    2.4048
   32.790    2.7207
   32.805    2.8436
   32.820    2.7207
   32.835    2.7207
   32.850    2.7734
   32.865    2.6681
   32.880    2.5979
   32.895    2.4925
   32.910    2.7207
   32.925    2.8787
   32.940    2.4925
   32.955    2.7558
   32.970    3.0191
   32.985    2.7734
   33.000    2.5803
   33.015    2.4925
   33.030    2.6681
   33.045    2.7032
   33.060    2.9840
   33.075    2.7207
   33.090    2.7032
   33.105    2.4399
   33.120    2.4574
   33.135    2.2643
   33.150    2.5452
   33.165    2.6154
   33.180    2.6681
   33.195    2.8963
   33.210    2.7032
   33.225    2.6330
   33.240    2.6856
   33.255    2.5276
   33.270    2.4750
   33.285    2.5803
   33.300    2.5628
   33.315    2.7909
   33.330    2.6154
   33.345    2.4399
   33.360    2.6154
   33.375    2.7032
   33.390    2.4048
   33.405    2.8612
   33.420    2.4223
   33.435    2.7558
   33.450    2.3346
   33.465    2.5276
   33.480    2.5803
   33.495    2.7207
   33.510    2.9665
   33.525    2.7032
   33.540    2.6681
   33.555    2.6505
   33.570    2.5803
   33.585    2.5452
   33.600    2.6330
   33.615    2.5452
   33.630    2.6154
   33.645    2.6856
   33.660    2.5101
   33.675    2.7558
   33.690    2.7909
   33.705    2.6505
   33.720    2.8787
   33.735    2.4223
   33.750    2.6330
   33.765    2.4925
   33.780    2.9665
   33.795    2.7558
   33.810    2.5276
   33.825    2.4574
   33.840    2.2292
   33.855    2.4925
   33.870    2.7734
   33.885    2.7734
   33.900    2.5452
   33.915    2.8085
   33.930    2.7383
   33.945    2.8612
   33.960    3.0191
   33.975    2.4399
   33.990    2.5803
   34.005    2.6154
   34.020    2.6505
   34.035    2.4048
   34.050    2.4399
   34.065    2.7558
   34.080    2.7032
   34.095    2.5276
   34.110    2.5803
   34.125    2.7558
   34.140    2.8260
   34.155    2.7207
   34.170    2.7909
   34.185    2.8260
   34.200    2.7207
   34.215    2.3872
   34.230    2.7734
   34.245    2.4399
   34.260    2.5452
   34.275    2.5628
   34.290    2.6505
   34.305    2.2995
   34.320    2.8612
   34.335    2.9665
   34.350    2.5628
   34.365    2.5276
   34.380    2.4399
   34.395    2.5276
   34.410    2.5979
   34.425    2.6681
   34.440    2.9314
   34.455    2.7558
   34.470    2.4750
   34.485    2.5101
   34.500    2.3521
   34.515    2.5979
   34.530    2.7207
   34.545    2.5452
   34.560    2.7734
   34.575    2.6856
   34.590    2.4925
   34.605    2.4750
   34.620    2.5628
   34.635    2.5979
   34.650    2.2117
   34.665    2.5101
   34.680    2.7207
   34.695    2.5628
   34.710    2.4399
   34.725    2.4574
   34.740    2.5628
   34.755    2.4399
   34.770    2.2643
   34.785    2.5276
   34.800    2.3872
   34.815    2.2292
   34.830    2.3346
   34.845    2.4048
   34.860    2.3521
   34.875    2.4925
   34.890    2.8436
   34.905    2.6154
   34.920    2.8085
   34.935    2.7383
   34.950    2.3346
   34.965    2.2292
   34.980    3.0542
   34.995    2.4399
   35.010    2.7032
   35.025    2.8260
   35.040    2.6154
   35.055    2.7558
   35.070    2.8436
   35.085    2.5803
   35.100    2.3697
   35.115    2.4048
   35.130    2.5452
   35.145    2.5276
   35.160    2.7383
   35.175    2.7909
   35.190    2.6681
   35.205    2.5803
   35.220    2.4574
   35.235    2.3872
   35.250    2.5803
   35.265    2.3521
   35.280    2.8085
   35.295    2.6681
   35.310    2.4750
   35.325    2.6681
   35.340    2.5101
   35.355    2.7032
   35.370    2.4574
   35.385    2.4048
   35.400    2.5452
   35.415    2.1766
   35.430    2.4925
   35.445    2.4750
   35.460    2.7734
   35.475    2.5803
   35.490    2.3697
   35.505    2.2292
   35.520    2.2292
   35.535    2.6154
   35.550    2.5101
   35.565    2.1766
   35.580    2.5803
   35.595    2.3170
   35.610    2.5803
   35.625    2.7383
   35.640    2.4750
   35.655    2.5101
   35.670    2.4223
   35.685    2.5276
   35.700    2.7734
   35.715    2.4574
   35.730    2.9138
   35.745    2.4750
   35.760    2.4574
   35.775    2.5101
   35.790    2.7207
   35.805    2.6330
   35.820    2.3872
   35.835    2.6681
   35.850    2.7032
   35.865    2.6505
   35.880    2.5101
   35.895    2.5803
   35.910    2.7383
   35.925    2.5276
   35.940    2.8612
   35.955    2.8436
   35.970    2.4399
   35.985    2.6856
   36.000    2.5101
   36.015    2.7909
   36.030    2.7207
   36.045    2.7734
   36.060    2.7909
   36.075    2.7032
   36.090    2.7558
   36.105    2.3170
   36.120    2.5276
   36.135    2.5452
   36.150    2.2292
   36.165    2.6154
   36.180    2.6330
   36.195    2.6505
   36.210    2.6330
   36.225    2.5803
   36.240    2.5101
   36.255    2.6330
   36.270    2.4750
   36.285    2.7207
   36.300    2.6681
   36.315    2.4574
   36.330    2.2643
   36.345    2.4223
   36.360    2.4223
   36.375    2.6505
   36.390    2.2468
   36.405    2.2819
   36.420    2.6154
   36.435    2.7207
   36.450    2.6154
   36.465    2.3697
   36.480    2.6330
   36.495    2.5452
   36.510    2.3521
   36.525    2.1941
   36.540    2.6505
   36.555    2.7032
   36.570    2.7207
   36.585    2.6505
   36.600    2.8085
   36.615    2.6681
   36.630    2.7032
   36.645    2.5452
   36.660    2.4223
   36.675    2.3170
   36.690    2.6330
   36.705    2.7207
   36.720    2.4925
   36.735    2.4750
   36.750    2.4048
   36.765    2.3697
   36.780    2.4750
   36.795    2.5628
   36.810    2.3697
   36.825    2.4750
   36.840    2.1941
   36.855    2.5979
   36.870    2.4750
   36.885    2.3697
   36.900    2.3697
   36.915    2.8787
   36.930    2.5628
   36.945    2.5628
   36.960    2.7734
   36.975    2.7383
   36.990    2.5979
   37.005    2.5803
   37.020    2.1415
   37.035    2.5276
   37.050    2.3872
   37.065    2.5452
   37.080    2.4750
   37.095    2.1941
   37.110    2.0888
   37.125    2.5452
   37.140    2.7032
   37.155    2.6154
   37.170    2.2995
   37.185    2.5452
   37.200    2.2819
   37.215    2.5101
   37.230    2.5803
   37.245    2.4750
   37.260    2.6330
   37.275    2.5628
   37.290    2.4574
   37.305    2.2995
   37.320    2.6154
   37.335    2.4750
   37.350    2.5276
   37.365    2.5276
   37.380    2.3697
   37.395    2.4048
   37.410    2.2468
   37.425    2.3170
   37.440    2.6330
   37.455    2.6154
   37.470    2.3697
   37.485    2.2995
   37.500    2.2117
   37.515    2.5452
   37.530    2.6330
   37.545    2.4925
   37.560    2.4048
   37.575    2.6681
   37.590    2.4223
   37.605    2.5101
   37.620    2.3697
   37.635    2.3872
   37.650    2.3872
   37.665    2.4925
   37.680    2.3872
   37.695    2.4925
   37.710    2.2819
   37.725    2.4925
   37.740    2.6856
   37.755    2.1415
   37.770    2.4925
   37.785    2.3521
   37.800    2.7207
   37.815    2.7383
   37.830    2.4223
   37.845    2.4750
   37.860    2.4048
   37.875    2.3697
   37.890    2.3170
   37.905    2.2468
   37.920    1.9484
   37.935    2.2292
   37.950    2.3170
   37.965    2.6154
   37.980    2.5803
   37.995    2.5979
   38.010    2.4048
   38.025    2.3872
   38.040    2.4750
   38.055    2.4925
   38.070    2.1941
   38.085    2.3697
   38.100    2.3346
   38.115    2.4223
   38.130    2.4574
   38.145    2.4399
   38.160    2.3872
   38.175    2.4925
   38.190    2.5628
   38.205    2.4750
   38.220    2.3697
   38.235    2.4750
   38.250    2.6681
   38.265    2.4750
   38.280    2.6330
   38.295    2.3697
   38.310    2.4574
   38.325    2.4750
   38.340    2.5276
   38.355    2.6330
   38.370    2.3346
   38.385    2.5101
   38.400    2.2292
   38.415    2.5101
   38.430    2.3170
   38.445    2.5628
   38.460    2.5452
   38.475    2.4925
   38.490    2.3521
   38.505    2.3346
   38.520    2.6330
   38.535    2.5101
   38.550    2.1415
   38.565    2.3521
   38.580    2.3872
   38.595    2.4925
   38.610    2.7909
   38.625    2.5628
   38.640    2.3170
   38.655    2.2995
   38.670    2.6681
   38.685    2.4574
   38.700    2.2819
   38.715    2.3521
   38.730    2.5276
   38.745    2.3346
   38.760    2.4048
   38.775    2.4574
   38.790    2.5628
   38.805    2.0888
   38.820    2.3697
   38.835    2.2819
   38.850    2.0888
   38.865    2.4750
   38.880    2.7032
   38.895    2.3521
   38.910    2.6856
   38.925    2.6330
   38.940    2.4223
   38.955    2.3697
   38.970    2.5276
   38.985    2.4750
   39.000    2.2643
   39.015    2.4750
   39.030    2.3346
   39.045    2.4750
   39.060    2.0888
   39.075    2.2643
   39.090    2.4750
   39.105    2.2292
   39.120    2.3346
   39.135    2.3346
   39.150    2.3521
   39.165    2.6681
   39.180    2.5803
   39.195    2.3521
   39.210    2.3170
   39.225    2.5628
   39.240    2.2995
   39.255    2.4574
   39.270    2.2468
   39.285    2.4223
   39.300    2.6505
   39.315    2.2819
   39.330    2.2643
   39.345    2.5979
   39.360    2.4399
   39.375    2.2468
   39.390    2.3697
   39.405    2.1590
   39.420    2.2468
   39.435    2.5276
   39.450    2.5628
   39.465    2.4223
   39.480    2.1590
   39.495    2.6505
   39.510    2.5101
   39.525    2.4925
   39.540    2.4399
   39.555    2.2995
   39.570    2.4048
   39.585    2.2292
   39.600    2.4223
   39.615    2.5803
   39.630    2.5979
   39.645    2.3697
   39.660    2.4223
   39.675    2.4223
   39.690    2.5101
   39.705    2.3346
   39.720    2.3346
   39.735    2.2643
   39.750    2.0888
   39.765    2.3346
   39.780    2.4048
   39.795    2.5101
   39.810    2.1064
   39.825    2.1415
   39.840    2.3346
   39.855    2.0537
   39.870    2.5276
   39.885    2.4048
   39.900    2.2819
   39.915    2.2117
   39.930    2.2819
   39.945    2.2643
   39.960    2.2819
   39.975    2.4925
   39.990    2.2643
