    1.500   20.4634
    1.515   20.6951
    1.530   20.2212
    1.545   20.9479
    1.560   20.6951
    1.575   19.4523
    1.590   19.3154
    1.605   18.6203
    1.620   18.1991
    1.635   16.8720
    1.650   16.4508
    1.665   16.6614
    1.680   16.6614
    1.695   16.3139
    1.710   15.9452
    1.725   15.8610
    1.740   15.3660
    1.755   15.6082
    1.770   14.3339
    1.785   13.8705
    1.800   14.2707
    1.815   13.7862
    1.830   13.1964
    1.845   13.1754
    1.860   12.8699
    1.875   12.3960
    1.890   12.2486
    1.905   11.8905
    1.920   11.7009
    1.935   12.0274
    1.950   11.0795
    1.965   11.2480
    1.980   10.6056
    1.995   10.7636
    2.010   11.1427
    2.025   10.7952
    2.040   10.6056
    2.055   10.1843
    2.070    9.8052
    2.085   10.0685
    2.100    9.8789
    2.115    9.5103
    2.130    9.2786
    2.145    9.5735
    2.160    9.2891
    2.175    9.2680
    2.190    9.3628
    2.205    9.2996
    2.220    8.6888
    2.235    8.5308
    2.250    8.5413
    2.265    8.6467
    2.280    8.7309
    2.295    8.4992
    2.310    8.0463
    2.325    8.5097
    2.340    8.0463
    2.355    8.2570
    2.370    7.6567
    2.385    7.8568
    2.400    7.8252
    2.415    7.7620
    2.430    7.4250
    2.445    7.2880
    2.460    7.3828
    2.475    7.4882
    2.490    7.3512
    2.505    7.2143
    2.520    7.3618
    2.535    7.2565
    2.550    7.2459
    2.565    7.1511
    2.580    7.0985
    2.595    6.5508
    2.610    6.4350
    2.625    6.5087
    2.640    6.5403
    2.655    6.8352
    2.670    6.7720
    2.685    6.7930
    2.700    6.6351
    2.715    5.9610
    2.730    6.4455
    2.745    6.4771
    2.760    6.1295
    2.775    5.9189
    2.790    6.2243
    2.805    5.8662
    2.820    5.5398
    2.835    5.9610
    2.850    6.1085
    2.865    5.9716
    2.880    5.7293
    2.895    6.2138
    2.910    5.9189
    2.925    6.2559
    2.940    5.7504
    2.955    5.5503
    2.970    6.0137
    2.985    5.5819
    3.000    5.4976
    3.015    5.5082
    3.030    5.5819
    3.045    5.5924
    3.060    5.4660
    3.075    5.3712
    3.090    5.5398
    3.105    5.3186
    3.120    5.5187
    3.135    5.6451
    3.150    5.7609
    3.165    5.6451
    3.180    5.7399
    3.195    5.6029
    3.210    5.5819
    3.225    5.5082
    3.240    5.3397
    3.255    5.7820
    3.270    6.2349
    3.285    5.5398
    3.300    5.6977
    3.315    5.5819
    3.330    5.7715
    3.345    6.2138
    3.360    5.8873
    3.375    5.6451
    3.390    5.8241
    3.405    6.0558
    3.420    6.6772
    3.435    6.7299
    3.450    6.4034
    3.465    6.3928
    3.480    6.1927
    3.495    6.9721
    3.510    6.8668
    3.525    6.9932
    3.540    7.5935
    3.555    7.2565
    3.570    7.1406
    3.585    7.8568
    3.600    8.3096
    3.615    8.2886
    3.630    9.0258
    3.645    8.9731
    3.660    9.2259
    3.675    9.4365
    3.690    9.9421
    3.705   10.5213
    3.720   11.0690
    3.735   11.6904
    3.750   12.0274
    3.765   12.9647
    3.780   14.1127
    3.795   15.2396
    3.810   17.2196
    3.825   20.5793
    3.840   22.9384
    3.855   26.0874
    3.870   30.0790
    3.885   30.3949
    3.900   28.2043
    3.915   23.6230
    3.930   16.9142
    3.945    9.9421
    3.960    5.9294
    3.975    5.1080
    3.990    4.9710
    4.005    4.6972
    4.020    4.7393
    4.035    4.5287
    4.050    4.4128
    4.065    4.4760
    4.080    4.4234
    4.095    4.4234
    4.110    4.4444
    4.125    4.6445
    4.140    4.5182
    4.155    4.6445
    4.170    4.4760
    4.185    4.4760
    4.200    4.4444
    4.215    4.3181
    4.230    4.1496
    4.245    4.5076
    4.260    4.3602
    4.275    4.5814
    4.290    4.4655
    4.305    4.4128
    4.320    4.3918
    4.335    4.3918
    4.350    4.3602
    4.365    4.4128
    4.380    4.3813
    4.395    4.0969
    4.410    4.4971
    4.425    4.2022
    4.440    4.1706
    4.455    4.0758
    4.470    4.2549
    4.485    4.4971
    4.500    4.3602
    4.515    4.3918
    4.530    4.3707
    4.545    4.2759
    4.560    4.2233
    4.575    4.3602
    4.590    4.4339
    4.605    4.3918
    4.620    4.1811
    4.635    3.9810
    4.650    3.9389
    4.665    4.2338
    4.680    4.0758
    4.695    3.9179
    4.710    4.0653
    4.725    4.0548
    4.740    4.3075
    4.755    4.2865
    4.770    4.5076
    4.785    4.6551
    4.800    4.3497
    4.815    4.2759
    4.830    4.3286
    4.845    4.1074
    4.860    3.8968
    4.875    4.0126
    4.890    4.5076
    4.905    4.0442
    4.920    4.0864
    4.935    4.0126
    4.950    4.3813
    4.965    4.2970
    4.980    3.9389
    4.995    4.0653
    5.010    3.9705
    5.025    3.8547
    5.040    4.0442
    5.055    4.5182
    5.070    4.2233
    5.085    4.1811
    5.100    4.2865
    5.115    4.0337
    5.130    4.4234
    5.145    4.3813
    5.160    4.2970
    5.175    4.2865
    5.190    4.4444
    5.205    4.4760
    5.220    4.3918
    5.235    4.6867
    5.250    5.0658
    5.265    5.0026
    5.280    4.8657
    5.295    5.0237
    5.310    5.0342
    5.325    5.0974
    5.340    5.1817
    5.355    5.4239
    5.370    5.7083
    5.385    6.0032
    5.400    5.9610
    5.415    6.3928
    5.430    6.8036
    5.445    7.6883
    5.460    8.8994
    5.475    9.3102
    5.490   10.4581
    5.505   10.5951
    5.520   10.4897
    5.535    9.8894
    5.550    8.0358
    5.565    5.9505
    5.580    4.5498
    5.595    4.0969
    5.610    3.9705
    5.625    4.0758
    5.640    4.0653
    5.655    4.2443
    5.670    4.0548
    5.685    4.0758
    5.700    3.8020
    5.715    3.8863
    5.730    3.7599
    5.745    3.8652
    5.760    3.7809
    5.775    3.9600
    5.790    3.8968
    5.805    3.6546
    5.820    3.9494
    5.835    4.1917
    5.850    4.0337
    5.865    4.1180
    5.880    4.0969
    5.895    3.9705
    5.910    4.1917
    5.925    4.1180
    5.940    3.7283
    5.955    3.7915
    5.970    3.8125
    5.985    3.8652
    6.000    3.8652
    6.015    4.0442
    6.030    3.9179
    6.045    3.9073
    6.060    3.7599
    6.075    3.8968
    6.090    3.8336
    6.105    3.6967
    6.120    3.6546
    6.135    3.9179
    6.150    4.0653
    6.165    4.0021
    6.180    3.9494
    6.195    3.9284
    6.210    3.9073
    6.225    4.0337
    6.240    3.8652
    6.255    3.6124
    6.270    3.8020
    6.285    3.7704
    6.300    3.7704
    6.315    3.6019
    6.330    3.9810
    6.345    3.8757
    6.360    3.8547
    6.375    3.8968
    6.390    4.0126
    6.405    3.8863
    6.420    3.7177
    6.435    3.8441
    6.450    4.0232
    6.465    4.1706
    6.480    3.8968
    6.495    3.9179
    6.510    3.7704
    6.525    3.9916
    6.540    4.0442
    6.555    4.4023
    6.570    3.9389
    6.585    3.9600
    6.600    4.2865
    6.615    4.1180
    6.630    4.1180
    6.645    4.3918
    6.660    4.5076
    6.675    4.8025
    6.690    5.2133
    6.705    4.8447
    6.720    5.3291
    6.735    5.6767
    6.750    5.7925
    6.765    5.5924
    6.780    5.2554
    6.795    4.6340
    6.810    4.7183
    6.825    4.2759
    6.840    3.7388
    6.855    3.8336
    6.870    3.9179
    6.885    3.7915
    6.900    3.8757
    6.915    3.7388
    6.930    4.0337
    6.945    4.0021
    6.960    3.9284
    6.975    4.0442
    6.990    3.9600
    7.005    3.9284
    7.020    3.5808
    7.035    3.7493
    7.050    3.8441
    7.065    3.7072
    7.080    3.7915
    7.095    3.9179
    7.110    3.6440
    7.125    3.8336
    7.140    4.0758
    7.155    4.0337
    7.170    4.0653
    7.185    3.8652
    7.200    3.7809
    7.215    4.0337
    7.230    3.9494
    7.245    4.0442
    7.260    4.0232
    7.275    3.8231
    7.290    3.6124
    7.305    3.8231
    7.320    3.7809
    7.335    3.9494
    7.350    4.1811
    7.365    4.0021
    7.380    3.7177
    7.395    3.7072
    7.410    3.8336
    7.425    3.8652
    7.440    4.0969
    7.455    3.6756
    7.470    3.5703
    7.485    3.7072
    7.500    4.0653
    7.515    3.9810
    7.530    4.0337
    7.545    3.9073
    7.560    4.0758
    7.575    3.9810
    7.590    3.8652
    7.605    4.0337
    7.620    4.3286
    7.635    4.1074
    7.650    3.7388
    7.665    4.1811
    7.680    4.1811
    7.695    3.9916
    7.710    4.3918
    7.725    4.3181
    7.740    4.4023
    7.755    4.8973
    7.770    4.8973
    7.785    5.1185
    7.800    4.9816
    7.815    5.3081
    7.830    4.9184
    7.845    4.4971
    7.860    4.1390
    7.875    4.2127
    7.890    3.8863
    7.905    3.6862
    7.920    3.7809
    7.935    3.6967
    7.950    3.8652
    7.965    3.8757
    7.980    3.8336
    7.995    4.1917
    8.010    3.6862
    8.025    3.6440
    8.040    3.8547
    8.055    4.0232
    8.070    3.9916
    8.085    3.9284
    8.100    4.2022
    8.115    4.0864
    8.130    3.8336
    8.145    4.0021
    8.160    3.7493
    8.175    3.8441
    8.190    3.8968
    8.205    3.9179
    8.220    3.4018
    8.235    3.8231
    8.250    3.9389
    8.265    3.7809
    8.280    3.6967
    8.295    3.8441
    8.310    3.8231
    8.325    3.8652
    8.340    4.0442
    8.355    3.8336
    8.370    3.9705
    8.385    3.7599
    8.400    3.8020
    8.415    4.1917
    8.430    3.8652
    8.445    3.8125
    8.460    3.7072
    8.475    3.6756
    8.490    3.7704
    8.505    3.9284
    8.520    3.6335
    8.535    3.8652
    8.550    4.1074
    8.565    4.2549
    8.580    4.1390
    8.595    3.8441
    8.610    4.1285
    8.625    4.2127
    8.640    3.9600
    8.655    3.8863
    8.670    3.8231
    8.685    3.8863
    8.700    3.9810
    8.715    4.0653
    8.730    3.9705
    8.745    4.2654
    8.760    4.1496
    8.775    4.3497
    8.790    4.1811
    8.805    3.9810
    8.820    3.9389
    8.835    3.8020
    8.850    3.6756
    8.865    3.7177
    8.880    3.5914
    8.895    3.6546
    8.910    4.0653
    8.925    4.1180
    8.940    3.6124
    8.955    3.7809
    8.970    3.7915
    8.985    3.8441
    9.000    4.0021
    9.015    3.6756
    9.030    3.8125
    9.045    3.7915
    9.060    3.9916
    9.075    4.1180
    9.090    4.0021
    9.105    4.1706
    9.120    3.9600
    9.135    3.9389
    9.150    3.9389
    9.165    3.7283
    9.180    3.8125
    9.195    3.8968
    9.210    3.8757
    9.225    3.7493
    9.240    3.6967
    9.255    3.9284
    9.270    3.9284
    9.285    4.0969
    9.300    4.1285
    9.315    4.4339
    9.330    4.0442
    9.345    3.7388
    9.360    3.9284
    9.375    4.3075
    9.390    4.4234
    9.405    4.6867
    9.420    4.7288
    9.435    4.6340
    9.450    4.6761
    9.465    4.4760
    9.480    4.7288
    9.495    5.2133
    9.510    5.4239
    9.525    6.2454
    9.540    6.9194
    9.555    7.2565
    9.570    6.9089
    9.585    6.6877
    9.600    6.2559
    9.615    5.0974
    9.630    4.1917
    9.645    3.8968
    9.660    4.3602
    9.675    3.9810
    9.690    4.0021
    9.705    3.9810
    9.720    3.9916
    9.735    4.0337
    9.750    3.9916
    9.765    3.9389
    9.780    3.7809
    9.795    3.8231
    9.810    3.9494
    9.825    4.0232
    9.840    3.8547
    9.855    3.7599
    9.870    4.0758
    9.885    4.0758
    9.900    4.2549
    9.915    3.8441
    9.930    3.6124
    9.945    3.6546
    9.960    3.8020
    9.975    3.9179
    9.990    3.8547
   10.005    3.9179
   10.020    3.8968
   10.035    3.7388
   10.050    3.5282
   10.065    3.8441
   10.080    3.8231
   10.095    4.0864
   10.110    3.9284
   10.125    3.9705
   10.140    3.8231
   10.155    3.8441
   10.170    3.8441
   10.185    4.0548
   10.200    3.7599
   10.215    3.7704
   10.230    3.9284
   10.245    4.3602
   10.260    4.2443
   10.275    4.4128
   10.290    4.5287
   10.305    4.7920
   10.320    4.8763
   10.335    5.1290
   10.350    4.8552
   10.365    4.7499
   10.380    4.6024
   10.395    4.2233
   10.410    3.9494
   10.425    3.6756
   10.440    3.7493
   10.455    3.8547
   10.470    3.7388
   10.485    3.8968
   10.500    3.7388
   10.515    4.0758
   10.530    4.1180
   10.545    3.8968
   10.560    3.9494
   10.575    3.8757
   10.590    3.9600
   10.605    3.7704
   10.620    3.7177
   10.635    3.9916
   10.650    3.7177
   10.665    3.6967
   10.680    3.8547
   10.695    3.7072
   10.710    3.9179
   10.725    3.7072
   10.740    3.5703
   10.755    3.8757
   10.770    3.9600
   10.785    4.0021
   10.800    3.7493
   10.815    3.8652
   10.830    4.2865
   10.845    3.8863
   10.860    3.9284
   10.875    3.8020
   10.890    4.3497
   10.905    4.2549
   10.920    4.0232
   10.935    3.7704
   10.950    4.0653
   10.965    4.0126
   10.980    3.8547
   10.995    4.5708
   11.010    4.4866
   11.025    4.5392
   11.040    4.7183
   11.055    5.0132
   11.070    4.4444
   11.085    4.5498
   11.100    4.3813
   11.115    4.1601
   11.130    3.6862
   11.145    3.8863
   11.160    3.6651
   11.175    3.8547
   11.190    3.7599
   11.205    3.9494
   11.220    3.8968
   11.235    3.6862
   11.250    3.8547
   11.265    3.5492
   11.280    3.7599
   11.295    3.7915
   11.310    3.9073
   11.325    3.7809
   11.340    3.7809
   11.355    3.7388
   11.370    3.7809
   11.385    4.0232
   11.400    4.1074
   11.415    3.9073
   11.430    3.9179
   11.445    3.9916
   11.460    3.8547
   11.475    3.7388
   11.490    3.6967
   11.505    3.6967
   11.520    3.7599
   11.535    3.7072
   11.550    3.8336
   11.565    4.0653
   11.580    3.7704
   11.595    4.0337
   11.610    3.7704
   11.625    3.9600
   11.640    4.2127
   11.655    4.0337
   11.670    3.8757
   11.685    4.1074
   11.700    4.7709
   11.715    4.3707
   11.730    4.4339
   11.745    4.6656
   11.760    4.5603
   11.775    4.0337
   11.790    4.1180
   11.805    4.1706
   11.820    3.8757
   11.835    4.0126
   11.850    4.0337
   11.865    3.5282
   11.880    3.6019
   11.895    3.5703
   11.910    3.4966
   11.925    3.4966
   11.940    3.5387
   11.955    3.3386
   11.970    3.8125
   11.985    3.4439
   12.000    3.3913
   12.015    3.5914
   12.030    3.8757
   12.045    3.8863
   12.060    3.6440
   12.075    3.4018
   12.090    3.5703
   12.105    3.8020
   12.120    3.5282
   12.135    3.6124
   12.150    3.6230
   12.165    3.8757
   12.180    3.5598
   12.195    3.8020
   12.210    3.8757
   12.225    3.6230
   12.240    4.0442
   12.255    3.5492
   12.270    3.4018
   12.285    3.6756
   12.300    3.6862
   12.315    3.7915
   12.330    3.7388
   12.345    3.4650
   12.360    3.6019
   12.375    3.6756
   12.390    3.5282
   12.405    3.4650
   12.420    3.3281
   12.435    3.4439
   12.450    3.7177
   12.465    3.7809
   12.480    3.5176
   12.495    3.6862
   12.510    3.4229
   12.525    3.3281
   12.540    3.5176
   12.555    3.7177
   12.570    3.7599
   12.585    3.5914
   12.600    3.6756
   12.615    3.6440
   12.630    3.8231
   12.645    3.5387
   12.660    3.4334
   12.675    3.3807
   12.690    3.6756
   12.705    3.3070
   12.720    3.5387
   12.735    3.7599
   12.750    3.8441
   12.765    3.7599
   12.780    3.6230
   12.795    3.8125
   12.810    3.7493
   12.825    3.6019
   12.840    3.4650
   12.855    3.8441
   12.870    3.9284
   12.885    3.7388
   12.900    3.6967
   12.915    3.8231
   12.930    3.7809
   12.945    3.9284
   12.960    4.0548
   12.975    4.2233
   12.990    4.1706
   13.005    4.0548
   13.020    3.5914
   13.035    3.8441
   13.050    3.5598
   13.065    3.5387
   13.080    3.7915
   13.095    3.7809
   13.110    3.6124
   13.125    3.5703
   13.140    3.4544
   13.155    3.5387
   13.170    3.3702
   13.185    3.6335
   13.200    3.6124
   13.215    3.5492
   13.230    3.7809
   13.245    3.6651
   13.260    3.4650
   13.275    3.6440
   13.290    3.6967
   13.305    3.6862
   13.320    3.6756
   13.335    3.5703
   13.350    3.5703
   13.365    3.2754
   13.380    3.5808
   13.395    3.6546
   13.410    3.5492
   13.425    3.4650
   13.440    3.6230
   13.455    3.5492
   13.470    3.7704
   13.485    3.7809
   13.500    3.8020
   13.515    3.8125
   13.530    3.6546
   13.545    3.8231
   13.560    3.6124
   13.575    3.6019
   13.590    3.8547
   13.605    3.8020
   13.620    3.5914
   13.635    3.3913
   13.650    3.2754
   13.665    3.4018
   13.680    3.4860
   13.695    3.7388
   13.710    3.3913
   13.725    3.7283
   13.740    3.5914
   13.755    3.5914
   13.770    3.6230
   13.785    3.4229
   13.800    3.3597
   13.815    3.3807
   13.830    3.5071
   13.845    3.9494
   13.860    3.7072
   13.875    3.4123
   13.890    3.4860
   13.905    3.7388
   13.920    3.6862
   13.935    3.3702
   13.950    3.5808
   13.965    3.5176
   13.980    3.5808
   13.995    3.6546
   14.010    3.4123
   14.025    3.4334
   14.040    3.7915
   14.055    3.8863
   14.070    4.0232
   14.085    3.8968
   14.100    4.4971
   14.115    4.5182
   14.130    4.2022
   14.145    3.8336
   14.160    3.7599
   14.175    3.4334
   14.190    3.7283
   14.205    3.5914
   14.220    3.5176
   14.235    3.6967
   14.250    3.4334
   14.265    3.4544
   14.280    3.4123
   14.295    3.5808
   14.310    3.6124
   14.325    3.5282
   14.340    3.7915
   14.355    3.6756
   14.370    3.7493
   14.385    3.5492
   14.400    3.3281
   14.415    3.2754
   14.430    3.6546
   14.445    3.6230
   14.460    3.5176
   14.475    3.5703
   14.490    3.5598
   14.505    3.5071
   14.520    3.4650
   14.535    3.0437
   14.550    3.3702
   14.565    3.2438
   14.580    3.4334
   14.595    3.4229
   14.610    3.5598
   14.625    3.6124
   14.640    3.6967
   14.655    3.7177
   14.670    3.6124
   14.685    3.6967
   14.700    3.5703
   14.715    3.4966
   14.730    3.2859
   14.745    3.1069
   14.760    3.3807
   14.775    3.5492
   14.790    3.4334
   14.805    3.8441
   14.820    3.7388
   14.835    3.5387
   14.850    3.6019
   14.865    3.3175
   14.880    3.5387
   14.895    3.7704
   14.910    3.4123
   14.925    3.5808
   14.940    3.8441
   14.955    3.5176
   14.970    3.6967
   14.985    3.4123
   15.000    3.4544
   15.015    3.5703
   15.030    3.4650
   15.045    3.2649
   15.060    3.6230
   15.075    3.4755
   15.090    3.5282
   15.105    3.4439
   15.120    3.6440
   15.135    3.6440
   15.150    3.9916
   15.165    3.7388
   15.180    3.7388
   15.195    3.5808
   15.210    3.8125
   15.225    3.6019
   15.240    3.5071
   15.255    3.5387
   15.270    3.5492
   15.285    3.6546
   15.300    3.6230
   15.315    3.3070
   15.330    3.3175
   15.345    3.5071
   15.360    3.3807
   15.375    3.5914
   15.390    3.8020
   15.405    3.7388
   15.420    3.7283
   15.435    3.8231
   15.450    3.6967
   15.465    3.7388
   15.480    3.6230
   15.495    3.8020
   15.510    3.7704
   15.525    3.8336
   15.540    3.6756
   15.555    3.5176
   15.570    3.8863
   15.585    3.8125
   15.600    3.7388
   15.615    3.5387
   15.630    3.6124
   15.645    3.7072
   15.660    3.5282
   15.675    3.6335
   15.690    3.6756
   15.705    3.7283
   15.720    3.6862
   15.735    3.8231
   15.750    3.6546
   15.765    3.6335
   15.780    3.7493
   15.795    3.8652
   15.810    3.8757
   15.825    3.5808
   15.840    3.6124
   15.855    3.8125
   15.870    4.0232
   15.885    3.9073
   15.900    3.8547
   15.915    3.5282
   15.930    3.8441
   15.945    3.6756
   15.960    3.9284
   15.975    3.9389
   15.990    3.9179
   16.005    3.9073
   16.020    4.1285
   16.035    3.7704
   16.050    3.8547
   16.065    3.8020
   16.080    3.7388
   16.095    3.9179
   16.110    4.2233
   16.125    4.0653
   16.140    4.0442
   16.155    3.9494
   16.170    4.4023
   16.185    4.2233
   16.200    4.2443
   16.215    3.9705
   16.230    4.0864
   16.245    3.9284
   16.260    3.9705
   16.275    4.1601
   16.290    4.0548
   16.305    4.0758
   16.320    3.9179
   16.335    3.9600
   16.350    3.9073
   16.365    3.7072
   16.380    3.9705
   16.395    3.8441
   16.410    3.7704
   16.425    3.8757
   16.440    4.0126
   16.455    3.7283
   16.470    3.8125
   16.485    3.8231
   16.500    3.5387
   16.515    3.7072
   16.530    4.0021
   16.545    3.9494
   16.560    3.9073
   16.575    3.7388
   16.590    3.8547
   16.605    4.0232
   16.620    3.8968
   16.635    4.0126
   16.650    3.8652
   16.665    3.8125
   16.680    3.6967
   16.695    3.9494
   16.710    3.7072
   16.725    3.4439
   16.740    3.6651
   16.755    3.6756
   16.770    3.6967
   16.785    3.6546
   16.800    3.4229
   16.815    3.7283
   16.830    3.7283
   16.845    3.6440
   16.860    3.6651
   16.875    3.5914
   16.890    3.4229
   16.905    3.5176
   16.920    3.6756
   16.935    3.6440
   16.950    3.3702
   16.965    3.8231
   16.980    3.8336
   16.995    3.6546
   17.010    3.9179
   17.025    3.7915
   17.040    3.8441
   17.055    3.9179
   17.070    3.8652
   17.085    4.0548
   17.100    4.1390
   17.115    4.1390
   17.130    3.9389
   17.145    3.9389
   17.160    3.7283
   17.175    4.0232
   17.190    3.6124
   17.205    3.5492
   17.220    3.5703
   17.235    3.6967
   17.250    3.4860
   17.265    3.7177
   17.280    3.4650
   17.295    3.3491
   17.310    3.6756
   17.325    3.9494
   17.340    3.7809
   17.355    3.4966
   17.370    3.3597
   17.385    3.6019
   17.400    3.7599
   17.415    3.4439
   17.430    3.5598
   17.445    3.4229
   17.460    3.8968
   17.475    3.6335
   17.490    3.8231
   17.505    3.8336
   17.520    3.7072
   17.535    3.8125
   17.550    3.7493
   17.565    3.7809
   17.580    3.8125
   17.595    3.7915
   17.610    3.6335
   17.625    3.5387
   17.640    3.7599
   17.655    3.8863
   17.670    4.0442
   17.685    3.5808
   17.700    3.5808
   17.715    3.5703
   17.730    3.8125
   17.745    3.5808
   17.760    3.5282
   17.775    3.8757
   17.790    3.6230
   17.805    3.6862
   17.820    3.3281
   17.835    3.3807
   17.850    3.8231
   17.865    3.7915
   17.880    3.7072
   17.895    3.9705
   17.910    3.6546
   17.925    3.7599
   17.940    3.6335
   17.955    3.8125
   17.970    3.5282
   17.985    3.5282
   18.000    3.7177
   18.015    3.8231
   18.030    3.6440
   18.045    3.4755
   18.060    3.6546
   18.075    3.3913
   18.090    3.7283
   18.105    4.1706
   18.120    3.8863
   18.135    3.2438
   18.150    3.5387
   18.165    3.5703
   18.180    3.5492
   18.195    3.8020
   18.210    3.8757
   18.225    3.7599
   18.240    3.5176
   18.255    3.5071
   18.270    3.2227
   18.285    3.4229
   18.300    3.5176
   18.315    3.5071
   18.330    3.5914
   18.345    3.8863
   18.360    3.9494
   18.375    4.0126
   18.390    3.9284
   18.405    3.7388
   18.420    3.6124
   18.435    3.6651
   18.450    3.5071
   18.465    3.5176
   18.480    3.5176
   18.495    3.6862
   18.510    3.7283
   18.525    3.3913
   18.540    3.5282
   18.555    3.7283
   18.570    3.6756
   18.585    3.5914
   18.600    3.4439
   18.615    3.9284
   18.630    3.6546
   18.645    3.1701
   18.660    3.3281
   18.675    3.5808
   18.690    3.5387
   18.705    3.6546
   18.720    3.6124
   18.735    3.7599
   18.750    3.4650
   18.765    3.3175
   18.780    3.5387
   18.795    3.5598
   18.810    3.8441
   18.825    3.7915
   18.840    3.4439
   18.855    3.7283
   18.870    3.6967
   18.885    3.7493
   18.900    3.9073
   18.915    3.6230
   18.930    3.6756
   18.945    4.1285
   18.960    4.1496
   18.975    4.2865
   18.990    4.2865
   19.005    4.4655
   19.020    4.5498
   19.035    4.1811
   19.050    4.4339
   19.065    4.4339
   19.080    3.7283
   19.095    3.8125
   19.110    3.4860
   19.125    3.2859
   19.140    3.7809
   19.155    3.8336
   19.170    3.8020
   19.185    3.7915
   19.200    3.6335
   19.215    3.7809
   19.230    3.9494
   19.245    3.8863
   19.260    3.7072
   19.275    3.5176
   19.290    3.5071
   19.305    3.4966
   19.320    3.4860
   19.335    3.7493
   19.350    3.7283
   19.365    3.6651
   19.380    3.6651
   19.395    3.7493
   19.410    3.8231
   19.425    3.7704
   19.440    3.4229
   19.455    3.4018
   19.470    3.5914
   19.485    3.5071
   19.500    3.6651
   19.515    3.5282
   19.530    3.6651
   19.545    3.7809
   19.560    3.9073
   19.575    3.8547
   19.590    3.8125
   19.605    3.8125
   19.620    4.1285
   19.635    3.7704
   19.650    3.4755
   19.665    3.5387
   19.680    3.5387
   19.695    3.5492
   19.710    3.6967
   19.725    3.7388
   19.740    3.7915
   19.755    3.5914
   19.770    3.2333
   19.785    3.6440
   19.800    3.4123
   19.815    3.6651
   19.830    3.7388
   19.845    3.6124
   19.860    3.4755
   19.875    3.5387
   19.890    3.3702
   19.905    3.5808
   19.920    4.0442
   19.935    3.8968
   19.950    3.6335
   19.965    3.6862
   19.980    3.5808
   19.995    3.9179
   20.010    3.2859
   20.025    3.3913
   20.040    3.6124
   20.055    3.7915
   20.070    3.6546
   20.085    3.9179
   20.100    3.5914
   20.115    3.5071
   20.130    3.5176
   20.145    3.5176
   20.160    3.4860
   20.175    3.7915
   20.190    3.4755
   20.205    3.5176
   20.220    3.6440
   20.235    3.7072
   20.250    3.5282
   20.265    3.5808
   20.280    3.6124
   20.295    3.5598
   20.310    3.5914
   20.325    3.5703
   20.340    4.0126
   20.355    3.9073
   20.370    4.0758
   20.385    3.8231
   20.400    3.9284
   20.415    3.9916
   20.430    3.8336
   20.445    4.0442
   20.460    4.1601
   20.475    4.0337
   20.490    3.4544
   20.505    3.2543
   20.520    3.4018
   20.535    3.8336
   20.550    3.8020
   20.565    3.7388
   20.580    3.5282
   20.595    3.2965
   20.610    3.6019
   20.625    3.4439
   20.640    3.7704
   20.655    3.9284
   20.670    3.6335
   20.685    3.4544
   20.700    3.8968
   20.715    3.6862
   20.730    3.5808
   20.745    3.6019
   20.760    3.6756
   20.775    3.6230
   20.790    3.5176
   20.805    3.3807
   20.820    3.3807
   20.835    3.5492
   20.850    3.8020
   20.865    3.7493
   20.880    3.6546
   20.895    3.7915
   20.910    3.7599
   20.925    3.7493
   20.940    3.7177
   20.955    3.8336
   20.970    3.4334
   20.985    3.4018
   21.000    3.7704
   21.015    3.8336
   21.030    3.6651
   21.045    3.8125
   21.060    3.7493
   21.075    3.6546
   21.090    3.9179
   21.105    3.5387
   21.120    3.6019
   21.135    3.5071
   21.150    3.6124
   21.165    3.6440
   21.180    3.5598
   21.195    3.6967
   21.210    3.9494
   21.225    3.8547
   21.240    3.5282
   21.255    3.3807
   21.270    3.6756
   21.285    3.7177
   21.300    3.4966
   21.315    3.7283
   21.330    3.6862
   21.345    3.4966
   21.360    3.4966
   21.375    3.6124
   21.390    3.5387
   21.405    3.5914
   21.420    3.4229
   21.435    3.6967
   21.450    3.6967
   21.465    3.4439
   21.480    3.7072
   21.495    3.4860
   21.510    3.7915
   21.525    3.6967
   21.540    3.8231
   21.555    3.6019
   21.570    3.8020
   21.585    3.6124
   21.600    3.7915
   21.615    3.7072
   21.630    3.6124
   21.645    3.5282
   21.660    3.6756
   21.675    3.4755
   21.690    3.4439
   21.705    3.5387
   21.720    3.6335
   21.735    3.7599
   21.750    3.5282
   21.765    3.7177
   21.780    3.7809
   21.795    3.7177
   21.810    3.4018
   21.825    3.8020
   21.840    3.9494
   21.855    3.8757
   21.870    3.5492
   21.885    3.5071
   21.900    3.6862
   21.915    3.6230
   21.930    3.6967
   21.945    3.7809
   21.960    3.2438
   21.975    3.2965
   21.990    3.4966
   22.005    3.5176
   22.020    3.9600
   22.035    3.5914
   22.050    3.6019
   22.065    3.4439
   22.080    3.7283
   22.095    4.0337
   22.110    4.0126
   22.125    3.8336
   22.140    3.8020
   22.155    3.3702
   22.170    3.4018
   22.185    3.5492
   22.200    3.6546
   22.215    3.7915
   22.230    3.5808
   22.245    3.6967
   22.260    3.9389
   22.275    4.0126
   22.290    3.9073
   22.305    3.9916
   22.320    3.7493
   22.335    4.0232
   22.350    3.7283
   22.365    3.6335
   22.380    3.6862
   22.395    3.6335
   22.410    3.7493
   22.425    3.7599
   22.440    3.5914
   22.455    3.7915
   22.470    3.7177
   22.485    4.0442
   22.500    3.8231
   22.515    3.9284
   22.530    3.9179
   22.545    3.7809
   22.560    4.0548
   22.575    4.1496
   22.590    3.9705
   22.605    4.0442
   22.620    4.2865
   22.635    4.0337
   22.650    3.8441
   22.665    3.6967
   22.680    3.5387
   22.695    3.3913
   22.710    3.7599
   22.725    3.8441
   22.740    3.7704
   22.755    3.7493
   22.770    3.5176
   22.785    3.7072
   22.800    3.7493
   22.815    3.9284
   22.830    3.7704
   22.845    3.6019
   22.860    3.8231
   22.875    3.7177
   22.890    3.5176
   22.905    3.9389
   22.920    4.1917
   22.935    4.0548
   22.950    4.0548
   22.965    4.2022
   22.980    4.1390
   22.995    3.7704
   23.010    3.7072
   23.025    4.0969
   23.040    3.8336
   23.055    3.6546
   23.070    3.7809
   23.085    4.0232
   23.100    4.0758
   23.115    3.7072
   23.130    3.7599
   23.145    3.9810
   23.160    4.0126
   23.175    3.7915
   23.190    4.0126
   23.205    4.1285
   23.220    3.9916
   23.235    3.9810
   23.250    3.8020
   23.265    3.8968
   23.280    3.9916
   23.295    3.7809
   23.310    3.8441
   23.325    3.2227
   23.340    3.3281
   23.355    3.7915
   23.370    3.4229
   23.385    3.4966
   23.400    3.2965
   23.415    3.5703
   23.430    3.7915
   23.445    3.6651
   23.460    3.6546
   23.475    3.6124
   23.490    3.4439
   23.505    3.4650
   23.520    3.5808
   23.535    3.4544
   23.550    3.7599
   23.565    3.7177
   23.580    3.8652
   23.595    3.6967
   23.610    4.1074
   23.625    3.9916
   23.640    3.6440
   23.655    3.5808
   23.670    3.5071
   23.685    3.7283
   23.700    3.5914
   23.715    3.6124
   23.730    3.8336
   23.745    3.5598
   23.760    3.4860
   23.775    3.5808
   23.790    3.4650
   23.805    3.5598
   23.820    3.7809
   23.835    3.5808
   23.850    3.6546
   23.865    3.6124
   23.880    3.8336
   23.895    3.8125
   23.910    3.6651
   23.925    3.7283
   23.940    3.9179
   23.955    4.0126
   23.970    3.5598
   23.985    3.7599
   24.000    3.4123
   24.015    3.6124
   24.030    3.6546
   24.045    3.8652
   24.060    3.6546
   24.075    3.6862
   24.090    4.0232
   24.105    3.5808
   24.120    3.7177
   24.135    3.6756
   24.150    3.6335
   24.165    3.6230
   24.180    3.6756
   24.195    3.5703
   24.210    3.5492
   24.225    3.4544
   24.240    3.4439
   24.255    3.6756
   24.270    3.6124
   24.285    3.5598
   24.300    3.8125
   24.315    3.3175
   24.330    3.2859
   24.345    3.4860
   24.360    3.5914
   24.375    3.4755
   24.390    3.5387
   24.405    3.3807
   24.420    3.4018
   24.435    3.5808
   24.450    3.6546
   24.465    3.6019
   24.480    3.6651
   24.495    3.6651
   24.510    3.7493
   24.525    3.6440
   24.540    3.7283
   24.555    3.6019
   24.570    3.6756
   24.585    3.5387
   24.600    3.4544
   24.615    3.6756
   24.630    3.7493
   24.645    3.7809
   24.660    3.5282
   24.675    3.4966
   24.690    3.2965
   24.705    3.4229
   24.720    3.8757
   24.735    3.5387
   24.750    3.6335
   24.765    3.4123
   24.780    3.5071
   24.795    3.5808
   24.810    3.6019
   24.825    3.5703
   24.840    3.7388
   24.855    3.6019
   24.870    3.3597
   24.885    3.7388
   24.900    3.5282
   24.915    3.7072
   24.930    3.8020
   24.945    3.8336
   24.960    3.6124
   24.975    3.6440
   24.990    3.7493
   25.005    3.6651
   25.020    3.9389
   25.035    3.6651
   25.050    3.4966
   25.065    3.6019
   25.080    3.7072
   25.095    3.4334
   25.110    3.5071
   25.125    3.5071
   25.140    3.4018
   25.155    3.4544
   25.170    3.6967
   25.185    3.4860
   25.200    3.6019
   25.215    3.6019
   25.230    3.7915
   25.245    3.6019
   25.260    3.7283
   25.275    3.5703
   25.290    3.5703
   25.305    3.4755
   25.320    3.5071
   25.335    3.5598
   25.350    3.6230
   25.365    3.5808
   25.380    3.5387
   25.395    3.8968
   25.410    3.6230
   25.425    3.5176
   25.440    3.6124
   25.455    3.4966
   25.470    3.3597
   25.485    3.5914
   25.500    3.5914
   25.515    3.8757
   25.530    3.5703
   25.545    3.6335
   25.560    3.4650
   25.575    3.5808
   25.590    3.5387
   25.605    3.5071
   25.620    3.5071
   25.635    3.5598
   25.650    3.5492
   25.665    3.3597
   25.680    3.2227
   25.695    3.3491
   25.710    3.4755
   25.725    3.4439
   25.740    3.2649
   25.755    3.8125
   25.770    3.8125
   25.785    3.4334
   25.800    3.5914
   25.815    3.6124
   25.830    3.8125
   25.845    3.9179
   25.860    3.9179
   25.875    3.8863
   25.890    3.7915
   25.905    3.3913
   25.920    3.4334
   25.935    3.4439
   25.950    3.6651
   25.965    3.7809
   25.980    3.4966
   25.995    3.6967
   26.010    3.7809
   26.025    3.7177
   26.040    3.4439
   26.055    3.5176
   26.070    3.3386
   26.085    3.5176
   26.100    3.4544
   26.115    3.8231
   26.130    3.4966
   26.145    3.4018
   26.160    3.4123
   26.175    3.4755
   26.190    3.4229
   26.205    4.0232
   26.220    3.4860
   26.235    3.6230
   26.250    3.3281
   26.265    3.5808
   26.280    3.5703
   26.295    3.2017
   26.310    3.4544
   26.325    3.3702
   26.340    3.4544
   26.355    3.5703
   26.370    3.4334
   26.385    3.5914
   26.400    3.6651
   26.415    3.5387
   26.430    3.3491
   26.445    3.6230
   26.460    3.7809
   26.475    3.3807
   26.490    3.6230
   26.505    3.4439
   26.520    3.3386
   26.535    3.3491
   26.550    3.2859
   26.565    3.6546
   26.580    3.4334
   26.595    3.2965
   26.610    3.4229
   26.625    3.4650
   26.640    3.4650
   26.655    3.5071
   26.670    3.2965
   26.685    3.1596
   26.700    3.6546
   26.715    3.3807
   26.730    3.0542
   26.745    3.6019
   26.760    3.4966
   26.775    3.3491
   26.790    3.3597
   26.805    3.2965
   26.820    3.2227
   26.835    3.4229
   26.850    3.2333
   26.865    3.4755
   26.880    3.4439
   26.895    3.5071
   26.910    3.3702
   26.925    3.5914
   26.940    3.5071
   26.955    3.5598
   26.970    3.6440
   26.985    3.5492
   27.000    3.2543
   27.015    3.4755
   27.030    3.6440
   27.045    3.9600
   27.060    3.3913
   27.075    3.4650
   27.090    3.6124
   27.105    3.3070
   27.120    3.4229
   27.135    3.2965
   27.150    3.2227
   27.165    3.2017
   27.180    3.2754
   27.195    3.5282
   27.210    3.6124
   27.225    3.5176
   27.240    3.5176
   27.255    3.6019
   27.270    3.6335
   27.285    3.8441
   27.300    3.6230
   27.315    3.8020
   27.330    3.8336
   27.345    3.8441
   27.360    3.4650
   27.375    3.2965
   27.390    3.2227
   27.405    3.4544
   27.420    3.3597
   27.435    3.6546
   27.450    3.6019
   27.465    3.3281
   27.480    3.3913
   27.495    3.6019
   27.510    3.6019
   27.525    3.4860
   27.540    3.6546
   27.555    3.3386
   27.570    3.2754
   27.585    3.3807
   27.600    3.5492
   27.615    3.3597
   27.630    3.4755
   27.645    3.7915
   27.660    3.5492
   27.675    3.6546
   27.690    3.6756
   27.705    3.5914
   27.720    3.5282
   27.735    3.5914
   27.750    3.5598
   27.765    3.4650
   27.780    3.3070
   27.795    2.9805
   27.810    3.1069
   27.825    3.4860
   27.840    3.5598
   27.855    3.5492
   27.870    3.4334
   27.885    3.6440
   27.900    3.4123
   27.915    3.4966
   27.930    3.6019
   27.945    3.6862
   27.960    3.6335
   27.975    3.9916
   27.990    4.2233
   28.005    4.0337
   28.020    3.8020
   28.035    3.7072
   28.050    3.9600
   28.065    3.9810
   28.080    3.8652
   28.095    3.7177
   28.110    3.5808
   28.125    3.4439
   28.140    3.7072
   28.155    3.5176
   28.170    3.4544
   28.185    3.5808
   28.200    3.4439
   28.215    3.6862
   28.230    3.7388
   28.245    3.2859
   28.260    3.4229
   28.275    3.5387
   28.290    3.4439
   28.305    3.5387
   28.320    3.5071
   28.335    3.7388
   28.350    3.5598
   28.365    3.3807
   28.380    3.6862
   28.395    3.6651
   28.410    3.4334
   28.425    3.4018
   28.440    3.3597
   28.455    3.2017
   28.470    3.9073
   28.485    3.5598
   28.500    3.3807
   28.515    3.5492
   28.530    3.7072
   28.545    3.6756
   28.560    3.3913
   28.575    3.3913
   28.590    3.2543
   28.605    3.3913
   28.620    3.5176
   28.635    3.4966
   28.650    3.2227
   28.665    3.6019
   28.680    3.7388
   28.695    3.3491
   28.710    3.3702
   28.725    3.2122
   28.740    3.3175
   28.755    3.3702
   28.770    3.1174
   28.785    3.3070
   28.800    3.0542
   28.815    3.0332
   28.830    3.6019
   28.845    3.4966
   28.860    3.3597
   28.875    3.5703
   28.890    3.2859
   28.905    3.7599
   28.920    3.5387
   28.935    3.4334
   28.950    3.5176
   28.965    3.8968
   28.980    4.0653
   28.995    4.3391
   29.010    4.2654
   29.025    4.0442
   29.040    3.7704
   29.055    3.4650
   29.070    3.3386
   29.085    3.6967
   29.100    3.3281
   29.115    3.4334
   29.130    3.4860
   29.145    3.6230
   29.160    3.2227
   29.175    3.4123
   29.190    3.5071
   29.205    3.5598
   29.220    3.2543
   29.235    3.4544
   29.250    3.6440
   29.265    3.4966
   29.280    3.2859
   29.295    3.5914
   29.310    3.4650
   29.325    3.6124
   29.340    3.4650
   29.355    3.4018
   29.370    3.2438
   29.385    3.5071
   29.400    3.5914
   29.415    3.3175
   29.430    3.1280
   29.445    3.4966
   29.460    3.4755
   29.475    3.3807
   29.490    3.3807
   29.505    3.1069
   29.520    3.1912
   29.535    3.2333
   29.550    3.2017
   29.565    3.1069
   29.580    3.5071
   29.595    3.2438
   29.610    3.2017
   29.625    3.1806
   29.640    3.1280
   29.655    3.4123
   29.670    2.9279
   29.685    3.3175
   29.700    3.2438
   29.715    3.5387
   29.730    3.2333
   29.745    3.2333
   29.760    3.4544
   29.775    3.3491
   29.790    3.4018
   29.805    3.3913
   29.820    3.0753
   29.835    3.4966
   29.850    3.3807
   29.865    3.4229
   29.880    3.2754
   29.895    3.4544
   29.910    3.3597
   29.925    3.5387
   29.940    3.5703
   29.955    3.2649
   29.970    3.1280
   29.985    3.0121
   30.000    3.1912
   30.015    3.4229
   30.030    3.3175
   30.045    3.3386
   30.060    3.6756
   30.075    3.3491
   30.090    3.2543
   30.105    3.3070
   30.120    3.6335
   30.135    3.1701
   30.150    3.2122
   30.165    3.5282
   30.180    3.3807
   30.195    3.3070
   30.210    2.9910
   30.225    3.0121
   30.240    3.3281
   30.255    3.4966
   30.270    3.3281
   30.285    3.6019
   30.300    3.6967
   30.315    3.3702
   30.330    3.4439
   30.345    3.3807
   30.360    3.6967
   30.375    3.4334
   30.390    3.5282
   30.405    3.3070
   30.420    3.3491
   30.435    3.5808
   30.450    3.4439
   30.465    3.3807
   30.480    3.2859
   30.495    3.4544
   30.510    3.0964
   30.525    3.2333
   30.540    2.9700
   30.555    3.2543
   30.570    3.1912
   30.585    3.2754
   30.600    3.3913
   30.615    3.2859
   30.630    3.5387
   30.645    3.5387
   30.660    3.5598
   30.675    3.1385
   30.690    2.8647
   30.705    3.2543
   30.720    3.3070
   30.735    3.1174
   30.750    3.2122
   30.765    3.5387
   30.780    3.2859
   30.795    3.2438
   30.810    3.2649
   30.825    3.0437
   30.840    3.2543
   30.855    3.3491
   30.870    3.4018
   30.885    3.2965
   30.900    3.4018
   30.915    3.3807
   30.930    3.3597
   30.945    3.5492
   30.960    3.6967
   30.975    3.4544
   30.990    3.3702
   31.005    3.4544
   31.020    3.4966
   31.035    3.5282
   31.050    3.1174
   31.065    3.4860
   31.080    3.2227
   31.095    3.3070
   31.110    3.2438
   31.125    3.1490
   31.140    3.2649
   31.155    3.3070
   31.170    3.2754
   31.185    3.1280
   31.200    3.1912
   31.215    3.3175
   31.230    3.2438
   31.245    3.5492
   31.260    3.6230
   31.275    3.2543
   31.290    3.2965
   31.305    3.1912
   31.320    3.2227
   31.335    3.2754
   31.350    3.2754
   31.365    3.3175
   31.380    3.5492
   31.395    3.3702
   31.410    3.3491
   31.425    3.3491
   31.440    3.4860
   31.455    3.1385
   31.470    3.2543
   31.485    3.3070
   31.500    3.2227
   31.515    3.3597
   31.530    3.5071
   31.545    3.4544
   31.560    3.3386
   31.575    3.2649
   31.590    3.3702
   31.605    3.3281
   31.620    3.2122
   31.635    3.4966
   31.650    3.3070
   31.665    3.1596
   31.680    3.3491
   31.695    3.0648
   31.710    3.2649
   31.725    3.3913
   31.740    3.6756
   31.755    3.6124
   31.770    3.7283
   31.785    3.5808
   31.800    3.3807
   31.815    3.4860
   31.830    3.5387
   31.845    3.7177
   31.860    3.4966
   31.875    3.7809
   31.890    3.3386
   31.905    3.7388
   31.920    3.7283
   31.935    3.5808
   31.950    3.6124
   31.965    3.6756
   31.980    3.4544
   31.995    3.3913
   32.010    3.5492
   32.025    3.4755
   32.040    4.0021
   32.055    4.3602
   32.070    4.1811
   32.085    4.3602
   32.100    4.7183
   32.115    4.6340
   32.130    4.5603
   32.145    4.7393
   32.160    4.5603
   32.175    4.1706
   32.190    3.7704
   32.205    3.6967
   32.220    3.5176
   32.235    3.3070
   32.250    3.2965
   32.265    3.4123
   32.280    3.1806
   32.295    3.3386
   32.310    3.3386
   32.325    3.4650
   32.340    3.2122
   32.355    3.2649
   32.370    3.1596
   32.385    3.1490
   32.400    3.6440
   32.415    3.1596
   32.430    3.1701
   32.445    3.3070
   32.460    3.3281
   32.475    3.1490
   32.490    3.2543
   32.505    3.1385
   32.520    3.1912
   32.535    3.2438
   32.550    3.2438
   32.565    3.4755
   32.580    3.5176
   32.595    3.1596
   32.610    3.1490
   32.625    3.1806
   32.640    3.2227
   32.655    3.4334
   32.670    3.3070
   32.685    3.1701
   32.700    3.2122
   32.715    3.3386
   32.730    3.3070
   32.745    3.2438
   32.760    3.1596
   32.775    3.0542
   32.790    3.1912
   32.805    3.1806
   32.820    3.2017
   32.835    3.2017
   32.850    3.3702
   32.865    3.2227
   32.880    3.2859
   32.895    3.1490
   32.910    3.1912
   32.925    3.1806
   32.940    3.2227
   32.955    3.1701
   32.970    2.9910
   32.985    2.9068
   33.000    3.1596
   33.015    3.2122
   33.030    2.8963
   33.045    2.9805
   33.060    3.0226
   33.075    3.4018
   33.090    3.0332
   33.105    3.3070
   33.120    3.0332
   33.135    3.1280
   33.150    3.3281
   33.165    2.9068
   33.180    2.9489
   33.195    3.1174
   33.210    3.2122
   33.225    3.3491
   33.240    3.1069
   33.255    3.2227
   33.270    3.4544
   33.285    3.3702
   33.300    3.1806
   33.315    2.9700
   33.330    2.8752
   33.345    2.9910
   33.360    3.0648
   33.375    3.1701
   33.390    2.8963
   33.405    3.1490
   33.420    3.2122
   33.435    3.0753
   33.450    2.9595
   33.465    3.3175
   33.480    3.0016
   33.495    3.1174
   33.510    3.2227
   33.525    3.1912
   33.540    2.9173
   33.555    3.1280
   33.570    3.0858
   33.585    3.1280
   33.600    2.8647
   33.615    3.1174
   33.630    3.4123
   33.645    2.9489
   33.660    3.2543
   33.675    3.3913
   33.690    3.1806
   33.705    2.9700
   33.720    3.1490
   33.735    2.9595
   33.750    3.0542
   33.765    3.3070
   33.780    3.3913
   33.795    3.5808
   33.810    4.0758
   33.825    3.7177
   33.840    3.6230
   33.855    3.9389
   33.870    3.8020
   33.885    3.3807
   33.900    3.5598
   33.915    3.7283
   33.930    3.4755
   33.945    3.2017
   33.960    3.2227
   33.975    3.1912
   33.990    3.3070
   34.005    3.0332
   34.020    3.0437
   34.035    3.1490
   34.050    3.1490
   34.065    3.2543
   34.080    3.1596
   34.095    3.1490
   34.110    3.3702
   34.125    3.2649
   34.140    3.0964
   34.155    3.1174
   34.170    2.8436
   34.185    2.9279
   34.200    3.2859
   34.215    2.9595
   34.230    3.0753
   34.245    3.3491
   34.260    3.2543
   34.275    3.1490
   34.290    3.0858
   34.305    2.8120
   34.320    2.8225
   34.335    3.0964
   34.350    2.9595
   34.365    3.0753
   34.380    3.4018
   34.395    2.9805
   34.410    2.8120
   34.425    3.0964
   34.440    3.0753
   34.455    3.1385
   34.470    3.1806
   34.485    2.7699
   34.500    2.8225
   34.515    2.9700
   34.530    2.6962
   34.545    2.6330
   34.560    3.1912
   34.575    3.0964
   34.590    3.1174
   34.605    3.0437
   34.620    3.1280
   34.635    2.8225
   34.650    3.1701
   34.665    3.0437
   34.680    2.9384
   34.695    2.9068
   34.710    2.9384
   34.725    2.8120
   34.740    3.0016
   34.755    2.9384
   34.770    2.8752
   34.785    3.0332
   34.800    3.2122
   34.815    3.1490
   34.830    2.7383
   34.845    2.8120
   34.860    2.9384
   34.875    2.7909
   34.890    3.1385
   34.905    3.0648
   34.920    2.7804
   34.935    2.8331
   34.950    2.8857
   34.965    3.0648
   34.980    3.3702
   34.995    2.9910
   35.010    2.6962
   35.025    2.9700
   35.040    2.9173
   35.055    2.9173
   35.070    2.7593
   35.085    2.8120
   35.100    2.9595
   35.115    3.0437
   35.130    3.0648
   35.145    3.0016
   35.160    2.9068
   35.175    3.0332
   35.190    2.8331
   35.205    2.9068
   35.220    2.7909
   35.235    2.6962
   35.250    2.9384
   35.265    3.0964
   35.280    3.0016
   35.295    2.9068
   35.310    2.9910
   35.325    3.1806
   35.340    3.0437
   35.355    3.0121
   35.370    2.8015
   35.385    2.7172
   35.400    2.7278
   35.415    2.6962
   35.430    2.8120
   35.445    3.0437
   35.460    3.0437
   35.475    3.0858
   35.490    2.9805
   35.505    2.9595
   35.520    2.9700
   35.535    3.1174
   35.550    2.9700
   35.565    2.7172
   35.580    2.8015
   35.595    2.6646
   35.610    3.0332
   35.625    3.0332
   35.640    2.9279
   35.655    3.0121
   35.670    3.2122
   35.685    3.1174
   35.700    2.8857
   35.715    2.7172
   35.730    3.0437
   35.745    3.2965
   35.760    3.2333
   35.775    3.0121
   35.790    3.0437
   35.805    2.9910
   35.820    2.9384
   35.835    2.9700
   35.850    2.7909
   35.865    2.9910
   35.880    2.7909
   35.895    2.9173
   35.910    2.7172
   35.925    2.8331
   35.940    2.9595
   35.955    2.8436
   35.970    2.7699
   35.985    2.8647
   36.000    3.2438
   36.015    2.9805
   36.030    2.8752
   36.045    2.8963
   36.060    2.8331
   36.075    2.8225
   36.090    2.9595
   36.105    2.9910
   36.120    3.0753
   36.135    3.0542
   36.150    2.9595
   36.165    2.9595
   36.180    2.9489
   36.195    3.1069
   36.210    2.8120
   36.225    2.9805
   36.240    2.7909
   36.255    2.9910
   36.270    2.8015
   36.285    2.7699
   36.300    2.9700
   36.315    2.6435
   36.330    2.7699
   36.345    2.8225
   36.360    2.7909
   36.375    2.8436
   36.390    2.9068
   36.405    2.8541
   36.420    2.9595
   36.435    2.9910
   36.450    2.8647
   36.465    2.8225
   36.480    2.8647
   36.495    2.8647
   36.510    2.7699
   36.525    2.6435
   36.540    2.6646
   36.555    3.0121
   36.570    3.1069
   36.585    3.0121
   36.600    2.8225
   36.615    3.1385
   36.630    3.0753
   36.645    2.8541
   36.660    2.8225
   36.675    2.9279
   36.690    2.9489
   36.705    2.8436
   36.720    2.8647
   36.735    2.7278
   36.750    2.9068
   36.765    2.8752
   36.780    2.7383
   36.795    2.7909
   36.810    2.7278
   36.825    2.5803
   36.840    2.8752
   36.855    2.8963
   36.870    2.8541
   36.885    2.7804
   36.900    2.7383
   36.915    2.8015
   36.930    2.7593
   36.945    2.6540
   36.960    2.9489
   36.975    2.9173
   36.990    3.0121
   37.005    2.9805
   37.020    2.7593
   37.035    2.7909
   37.050    2.9279
   37.065    2.9173
   37.080    3.1912
   37.095    2.8436
   37.110    3.0753
   37.125    3.0437
   37.140    3.0016
   37.155    2.8015
   37.170    2.7909
   37.185    2.8015
   37.200    2.9595
   37.215    2.9595
   37.230    3.0226
   37.245    2.8225
   37.260    2.7067
   37.275    3.0226
   37.290    2.9068
   37.305    2.8963
   37.320    2.8857
   37.335    2.9805
   37.350    2.8857
   37.365    2.6540
   37.380    2.7909
   37.395    2.8752
   37.410    3.0648
   37.425    2.9700
   37.440    2.8647
   37.455    2.8015
   37.470    2.9595
   37.485    3.0437
   37.500    2.8331
   37.515    2.7593
   37.530    2.9489
   37.545    2.8857
   37.560    2.9384
   37.575    2.7383
   37.590    2.9910
   37.605    2.9805
   37.620    2.8015
   37.635    2.9384
   37.650    3.0542
   37.665    2.9384
   37.680    2.8120
   37.695    2.7909
   37.710    2.7909
   37.725    2.9173
   37.740    2.8331
   37.755    2.7278
   37.770    2.7172
   37.785    2.6751
   37.800    2.7172
   37.815    2.6962
   37.830    2.9279
   37.845    2.9173
   37.860    2.7067
   37.875    2.7488
   37.890    2.9805
   37.905    2.8963
   37.920    2.7278
   37.935    2.6435
   37.950    2.9384
   37.965    2.9805
   37.980    2.9700
   37.995    3.0016
   38.010    2.9805
   38.025    2.9595
   38.040    2.8647
   38.055    2.8647
   38.070    2.6751
   38.085    2.8331
   38.100    2.7593
   38.115    2.9595
   38.130    2.8015
   38.145    2.8647
   38.160    2.8120
   38.175    3.0332
   38.190    2.9279
   38.205    2.6540
   38.220    2.9805
   38.235    2.7593
   38.250    2.6435
   38.265    2.8752
   38.280    2.9700
   38.295    3.0332
   38.310    2.8647
   38.325    3.0226
   38.340    2.8752
   38.355    2.9700
   38.370    3.1596
   38.385    3.2122
   38.400    2.9173
   38.415    2.8436
   38.430    3.0226
   38.445    2.9173
   38.460    3.0226
   38.475    2.8331
   38.490    2.9489
   38.505    2.8225
   38.520    2.7488
   38.535    2.9595
   38.550    3.2333
   38.565    3.1385
   38.580    3.1490
   38.595    3.1069
   38.610    3.1912
   38.625    3.0016
   38.640    3.0964
   38.655    3.0858
   38.670    3.2333
   38.685    2.7383
   38.700    2.9384
   38.715    2.8436
   38.730    3.0016
   38.745    3.1490
   38.760    3.1174
   38.775    3.0226
   38.790    2.8225
   38.805    3.0858
   38.820    3.0332
   38.835    3.2333
   38.850    3.0226
   38.865    2.9173
   38.880    3.0648
   38.895    2.9910
   38.910    2.9805
   38.925    3.1280
   38.940    2.9489
   38.955    3.1490
   38.970    3.1912
   38.985    3.0648
   39.000    3.0437
   39.015    3.0332
   39.030    3.2333
   39.045    3.1806
   39.060    3.4018
   39.075    3.2754
   39.090    3.1806
   39.105    3.2438
   39.120    3.3070
   39.135    3.0016
   39.150    3.1385
   39.165    3.0858
   39.180    3.0753
   39.195    3.1280
   39.210    3.0542
   39.225    3.2859
   39.240    3.4650
   39.255    3.3913
   39.270    3.1806
   39.285    3.1280
   39.300    2.8963
   39.315    2.9910
   39.330    3.1596
   39.345    2.9910
   39.360    2.9279
   39.375    3.1280
   39.390    3.0858
   39.405    2.8752
   39.420    3.1596
   39.435    3.1912
   39.450    3.0332
   39.465    3.1385
   39.480    2.8647
   39.495    3.1280
   39.510    3.0648
   39.525    3.1069
   39.540    2.8752
   39.555    3.0648
   39.570    2.9700
   39.585    3.1596
   39.600    2.9489
   39.615    3.0437
   39.630    3.1490
   39.645    3.1174
   39.660    2.8963
   39.675    3.0437
   39.690    3.0648
   39.705    3.1069
   39.720    3.0121
   39.735    2.6856
   39.750    2.9910
   39.765    3.0332
   39.780    3.0964
   39.795    3.0858
   39.810    3.0332
   39.825    2.9068
   39.840    3.0437
   39.855    2.9700
   39.870    2.9279
   39.885    3.0858
   39.900    3.0016
   39.915    3.0964
   39.930    2.8857
   39.945    3.1280
   39.960    2.9068
   39.975    2.9068
   39.990    2.7909
