    1.500    4.0657
    1.515    4.0613
    1.530    4.0712
    1.545    4.0186
    1.560    4.0142
    1.575    4.0284
    1.590    4.0449
    1.605    4.0219
    1.620    4.0251
    1.635    4.1184
    1.650    4.0504
    1.665    4.0262
    1.680    4.0010
    1.695    3.9791
    1.710    3.9857
    1.725    3.9253
    1.740    3.9440
    1.755    3.9385
    1.770    4.0197
    1.785    3.9626
    1.800    4.0800
    1.815    4.0230
    1.830    3.9637
    1.845    3.9264
    1.860    3.9780
    1.875    4.0548
    1.890    4.0251
    1.905    4.1173
    1.920    4.0262
    1.935    4.0383
    1.950    3.9681
    1.965    4.0054
    1.980    3.9955
    1.995    3.9648
    2.010    3.9747
    2.025    3.9067
    2.040    4.0723
    2.055    3.9078
    2.070    3.9056
    2.085    3.9637
    2.100    3.9462
    2.115    4.0493
    2.130    4.1107
    2.145    4.0208
    2.160    4.0438
    2.175    4.0262
    2.190    4.1140
    2.205    3.9846
    2.220    4.0306
    2.235    3.9835
    2.250    3.9878
    2.265    3.8540
    2.280    3.9593
    2.295    4.0756
    2.310    4.1074
    2.325    3.9758
    2.340    3.9494
    2.355    3.9484
    2.370    3.9121
    2.385    3.9429
    2.400    3.9648
    2.415    3.9308
    2.430    3.9363
    2.445    3.9220
    2.460    3.8112
    2.475    3.8979
    2.490    3.9791
    2.505    3.9714
    2.520    3.9703
    2.535    3.9681
    2.550    4.0394
    2.565    4.0043
    2.580    3.9615
    2.595    3.8672
    2.610    3.9176
    2.625    3.9824
    2.640    3.9714
    2.655    3.9363
    2.670    3.9999
    2.685    3.9824
    2.700    4.0131
    2.715    3.9922
    2.730    4.0712
    2.745    3.9648
    2.760    3.9078
    2.775    4.0635
    2.790    3.9900
    2.805    3.9560
    2.820    3.9802
    2.835    3.9341
    2.850    3.9571
    2.865    3.8957
    2.880    3.9813
    2.895    3.9494
    2.910    3.9198
    2.925    3.9231
    2.940    3.9429
    2.955    3.9846
    2.970    3.9385
    2.985    3.9637
    3.000    3.9363
    3.015    3.9615
    3.030    3.9878
    3.045    4.0175
    3.060    3.9878
    3.075    3.9374
    3.090    3.9922
    3.105    3.9462
    3.120    3.9889
    3.135    4.0164
    3.150    4.0109
    3.165    3.9977
    3.180    3.9110
    3.195    3.8595
    3.210    3.8211
    3.225    3.9045
    3.240    3.9846
    3.255    3.9714
    3.270    4.0043
    3.285    3.9143
    3.300    3.9538
    3.315    3.9154
    3.330    3.9626
    3.345    3.9110
    3.360    3.9045
    3.375    3.8847
    3.390    3.9154
    3.405    3.8847
    3.420    3.9330
    3.435    3.8990
    3.450    4.0844
    3.465    3.9440
    3.480    3.9143
    3.495    3.9121
    3.510    3.9209
    3.525    4.0010
    3.540    3.9571
    3.555    3.9034
    3.570    3.9824
    3.585    3.9571
    3.600    3.9505
    3.615    3.8836
    3.630    3.9385
    3.645    3.9714
    3.660    3.9341
    3.675    3.9626
    3.690    4.0372
    3.705    3.9089
    3.720    3.9758
    3.735    3.9187
    3.750    3.9056
    3.765    3.8924
    3.780    3.9374
    3.795    3.9637
    3.810    3.8990
    3.825    3.8880
    3.840    3.8079
    3.855    3.9670
    3.870    3.9440
    3.885    3.9626
    3.900    4.0087
    3.915    3.9944
    3.930    3.9593
    3.945    3.8891
    3.960    3.9286
    3.975    3.9922
    3.990    3.9791
    4.005    3.8672
    4.020    3.8902
    4.035    3.9494
    4.050    4.0482
    4.065    3.9001
    4.080    3.8672
    4.095    3.9352
    4.110    3.9626
    4.125    3.9363
    4.140    3.9988
    4.155    4.0186
    4.170    4.0120
    4.185    3.9791
    4.200    3.9473
    4.215    3.9758
    4.230    3.8584
    4.245    3.8419
    4.260    3.9045
    4.275    3.9747
    4.290    3.9341
    4.305    4.0405
    4.320    3.9484
    4.335    3.9440
    4.350    3.9451
    4.365    3.9231
    4.380    3.8880
    4.395    3.9396
    4.410    3.9440
    4.425    3.9374
    4.440    3.9780
    4.455    4.0416
    4.470    3.9319
    4.485    4.0065
    4.500    4.0032
    4.515    3.9681
    4.530    4.0460
    4.545    3.8858
    4.560    3.9440
    4.575    3.9648
    4.590    3.9527
    4.605    3.9747
    4.620    3.9681
    4.635    4.0032
    4.650    4.0043
    4.665    4.0109
    4.680    3.8825
    4.695    3.9451
    4.710    3.9297
    4.725    3.9100
    4.740    4.0032
    4.755    4.0251
    4.770    3.9791
    4.785    3.9857
    4.800    4.0613
    4.815    4.0339
    4.830    3.9813
    4.845    4.0032
    4.860    3.9714
    4.875    4.0394
    4.890    3.8748
    4.905    3.9516
    4.920    4.0076
    4.935    3.9089
    4.950    3.8299
    4.965    3.9473
    4.980    3.9977
    4.995    3.9001
    5.010    3.9045
    5.025    4.0065
    5.040    3.9999
    5.055    3.9988
    5.070    3.9220
    5.085    4.0153
    5.100    4.0690
    5.115    4.0087
    5.130    3.9911
    5.145    3.9056
    5.160    3.8386
    5.175    3.9615
    5.190    3.9922
    5.205    4.0471
    5.220    4.0624
    5.235    3.9791
    5.250    3.9988
    5.265    4.0899
    5.280    4.0635
    5.295    3.9253
    5.310    3.9725
    5.325    3.9780
    5.340    4.0219
    5.355    3.9604
    5.370    4.0043
    5.385    3.9988
    5.400    3.9780
    5.415    4.0109
    5.430    3.9867
    5.445    3.9396
    5.460    3.9418
    5.475    3.9900
    5.490    3.9527
    5.505    4.0273
    5.520    3.9110
    5.535    4.0142
    5.550    4.0230
    5.565    3.9264
    5.580    3.9462
    5.595    4.0131
    5.610    3.9319
    5.625    3.9516
    5.640    3.9220
    5.655    3.9692
    5.670    4.0306
    5.685    4.0284
    5.700    3.9900
    5.715    4.0076
    5.730    4.0690
    5.745    3.9867
    5.760    3.9977
    5.775    4.0010
    5.790    3.9988
    5.805    4.0866
    5.820    3.9505
    5.835    3.9571
    5.850    4.0394
    5.865    4.0208
    5.880    4.0306
    5.895    3.9582
    5.910    4.0350
    5.925    4.0219
    5.940    4.0515
    5.955    4.0855
    5.970    3.9374
    5.985    3.9330
    6.000    4.0493
    6.015    3.9582
    6.030    3.9758
    6.045    3.9824
    6.060    3.9143
    6.075    3.9451
    6.090    4.0668
    6.105    4.0493
    6.120    4.0273
    6.135    4.0570
    6.150    4.0438
    6.165    3.9944
    6.180    4.0186
    6.195    4.1305
    6.210    4.1019
    6.225    4.0054
    6.240    3.9604
    6.255    3.9154
    6.270    3.9933
    6.285    4.1568
    6.300    4.0076
    6.315    4.0997
    6.330    4.0778
    6.345    4.0668
    6.360    3.9911
    6.375    4.0076
    6.390    4.0295
    6.405    4.0745
    6.420    4.1096
    6.435    4.1272
    6.450    3.9988
    6.465    4.1052
    6.480    4.1392
    6.495    3.9385
    6.510    4.0065
    6.525    4.1261
    6.540    4.0449
    6.555    4.0635
    6.570    4.0767
    6.585    3.9966
    6.600    3.9999
    6.615    4.0712
    6.630    4.1458
    6.645    4.0262
    6.660    4.0405
    6.675    4.1217
    6.690    4.0592
    6.705    4.0405
    6.720    4.0712
    6.735    4.2040
    6.750    4.1096
    6.765    4.0921
    6.780    4.0997
    6.795    4.1272
    6.810    4.1305
    6.825    4.2259
    6.840    4.1535
    6.855    4.0844
    6.870    4.0559
    6.885    4.1085
    6.900    4.1228
    6.915    4.1195
    6.930    4.0822
    6.945    4.0866
    6.960    4.0789
    6.975    4.0635
    6.990    4.1447
    7.005    4.0175
    7.020    4.1974
    7.035    4.0767
    7.050    4.1162
    7.065    4.1305
    7.080    4.1963
    7.095    4.1206
    7.110    4.1316
    7.125    4.1853
    7.140    4.1776
    7.155    4.2204
    7.170    4.1436
    7.185    3.9802
    7.200    4.0723
    7.215    4.0986
    7.230    4.2380
    7.245    4.1305
    7.260    4.1809
    7.275    4.0789
    7.290    4.0976
    7.305    4.0921
    7.320    4.0219
    7.335    4.1480
    7.350    4.1370
    7.365    4.1107
    7.380    4.1645
    7.395    4.1392
    7.410    4.1820
    7.425    4.0800
    7.440    4.0438
    7.455    4.0767
    7.470    4.0701
    7.485    4.0976
    7.500    4.1656
    7.515    4.1974
    7.530    4.2116
    7.545    4.1327
    7.560    4.1162
    7.575    4.1019
    7.590    4.1798
    7.605    4.1985
    7.620    4.2435
    7.635    4.1875
    7.650    4.2654
    7.665    4.1579
    7.680    4.1897
    7.695    4.2676
    7.710    4.1425
    7.725    4.1349
    7.740    4.1436
    7.755    4.1941
    7.770    4.2544
    7.785    4.1765
    7.800    4.2127
    7.815    4.2073
    7.830    4.2511
    7.845    4.1864
    7.860    4.1667
    7.875    4.2084
    7.890    4.2522
    7.905    4.1732
    7.920    4.2095
    7.935    4.1798
    7.950    4.0416
    7.965    4.2676
    7.980    4.1612
    7.995    4.3049
    8.010    4.2632
    8.025    4.2182
    8.040    4.1722
    8.055    4.2478
    8.070    4.1809
    8.085    4.2873
    8.100    4.3027
    8.115    4.2413
    8.130    4.2841
    8.145    4.3751
    8.160    4.2797
    8.175    4.3367
    8.190    4.2665
    8.205    4.2555
    8.220    4.2862
    8.235    4.3466
    8.250    4.2446
    8.265    4.2588
    8.280    4.2281
    8.295    4.3170
    8.310    4.2413
    8.325    4.3235
    8.340    4.3203
    8.355    4.3093
    8.370    4.3971
    8.385    4.2950
    8.400    4.3608
    8.415    4.3159
    8.430    4.2983
    8.445    4.3883
    8.460    4.2928
    8.475    4.2610
    8.490    4.3916
    8.505    4.3148
    8.520    4.3674
    8.535    4.3740
    8.550    4.2522
    8.565    4.2511
    8.580    4.2051
    8.595    4.2797
    8.610    4.3477
    8.625    4.3433
    8.640    4.3378
    8.655    4.4124
    8.670    4.3641
    8.685    4.4552
    8.700    4.4464
    8.715    4.4091
    8.730    4.3784
    8.745    4.3883
    8.760    4.3981
    8.775    4.3466
    8.790    4.4596
    8.805    4.4552
    8.820    4.4256
    8.835    4.3707
    8.850    4.4442
    8.865    4.5002
    8.880    4.2950
    8.895    4.3214
    8.910    4.3532
    8.925    4.3718
    8.940    4.3773
    8.955    4.4344
    8.970    4.3510
    8.985    4.3521
    9.000    4.4969
    9.015    4.4881
    9.030    4.3861
    9.045    4.5024
    9.060    4.5221
    9.075    4.4815
    9.090    4.4387
    9.105    4.3850
    9.120    4.4804
    9.135    4.4354
    9.150    4.4673
    9.165    4.5210
    9.180    4.5781
    9.195    4.4563
    9.210    4.4815
    9.225    4.5463
    9.240    4.5035
    9.255    4.5188
    9.270    4.4629
    9.285    4.6121
    9.300    4.5550
    9.315    4.4333
    9.330    4.5210
    9.345    4.4848
    9.360    4.4486
    9.375    4.4892
    9.390    4.5254
    9.405    4.4793
    9.420    4.4398
    9.435    4.5144
    9.450    4.6110
    9.465    4.5068
    9.480    4.5484
    9.495    4.6000
    9.510    4.5441
    9.525    4.5605
    9.540    4.5177
    9.555    4.5857
    9.570    4.5792
    9.585    4.6505
    9.600    4.5814
    9.615    4.6252
    9.630    4.6000
    9.645    4.5430
    9.660    4.6450
    9.675    4.6033
    9.690    4.5320
    9.705    4.6845
    9.720    4.6955
    9.735    4.6527
    9.750    4.6165
    9.765    4.7360
    9.780    4.7382
    9.795    4.5452
    9.810    4.6077
    9.825    4.7031
    9.840    4.7349
    9.855    4.6505
    9.870    4.6691
    9.885    4.5726
    9.900    4.6285
    9.915    4.6724
    9.930    4.7262
    9.945    4.6165
    9.960    4.6209
    9.975    4.6516
    9.990    4.6603
   10.005    4.6505
   10.020    4.7547
   10.035    4.6614
   10.050    4.6955
   10.065    4.7130
   10.080    4.8293
   10.095    4.7086
   10.110    4.7075
   10.125    4.8172
   10.140    4.8249
   10.155    4.7284
   10.170    4.6757
   10.185    4.7514
   10.200    4.8315
   10.215    4.7020
   10.230    4.6856
   10.245    4.7942
   10.260    4.7646
   10.275    4.8150
   10.290    4.8271
   10.305    4.7295
   10.320    4.7514
   10.335    4.7328
   10.350    4.7119
   10.365    4.7821
   10.380    4.8655
   10.395    4.8710
   10.410    4.9489
   10.425    4.8798
   10.440    4.9379
   10.455    4.9620
   10.470    4.8458
   10.485    4.8249
   10.500    4.7613
   10.515    4.8260
   10.530    4.8721
   10.545    4.8765
   10.560    4.9313
   10.575    4.8929
   10.590    4.8183
   10.605    4.9313
   10.620    4.8809
   10.635    4.8414
   10.650    4.7788
   10.665    4.8458
   10.680    4.9116
   10.695    5.0344
   10.710    5.0081
   10.725    4.8984
   10.740    4.8885
   10.755    5.0070
   10.770    5.0553
   10.785    4.9686
   10.800    4.9280
   10.815    4.8852
   10.830    4.8710
   10.845    4.9346
   10.860    4.9609
   10.875    5.0081
   10.890    4.9851
   10.905    4.9566
   10.920    5.0937
   10.935    4.9950
   10.950    5.0849
   10.965    5.1420
   10.980    5.0805
   10.995    4.9708
   11.010    4.8973
   11.025    4.9708
   11.040    5.0037
   11.055    5.1551
   11.070    5.1562
   11.085    4.9642
   11.100    5.0344
   11.115    5.0323
   11.130    5.0674
   11.145    5.1189
   11.160    5.0268
   11.175    5.1047
   11.190    5.1101
   11.205    4.9840
   11.220    5.0619
   11.235    5.1080
   11.250    5.1431
   11.265    5.1277
   11.280    5.0717
   11.295    5.1134
   11.310    5.1244
   11.325    5.1442
   11.340    5.0981
   11.355    5.0871
   11.370    5.2341
   11.385    5.2155
   11.400    5.2100
   11.415    5.2155
   11.430    5.1672
   11.445    5.3142
   11.460    5.2352
   11.475    5.1332
   11.490    5.2122
   11.505    5.1793
   11.520    5.2758
   11.535    5.2264
   11.550    5.2824
   11.565    5.2539
   11.580    5.2550
   11.595    5.2879
   11.610    5.2144
   11.625    5.2615
   11.640    5.3098
   11.655    5.2341
   11.670    5.1354
   11.685    5.2495
   11.700    5.3734
   11.715    5.3383
   11.730    5.3537
   11.745    5.3756
   11.760    5.4349
   11.775    5.4206
   11.790    5.3877
   11.805    5.4415
   11.820    5.4985
   11.835    5.4053
   11.850    5.5435
   11.865    5.5106
   11.880    5.4305
   11.895    5.4294
   11.910    5.5336
   11.925    5.4799
   11.940    5.3734
   11.955    5.4053
   11.970    5.4031
   11.985    5.3131
   12.000    5.2725
   12.015    5.4327
   12.030    5.5325
   12.045    5.4996
   12.060    5.4568
   12.075    5.6126
   12.090    5.4831
   12.105    5.4623
   12.120    5.5128
   12.135    5.5983
   12.150    5.5874
   12.165    5.5248
   12.180    5.6225
   12.195    5.6598
   12.210    5.6411
   12.225    5.6214
   12.240    5.6038
   12.255    5.6115
   12.270    5.6784
   12.285    5.7289
   12.300    5.7048
   12.315    5.6389
   12.330    5.7212
   12.345    5.7552
   12.360    5.7958
   12.375    5.7124
   12.390    5.6477
   12.405    5.7739
   12.420    5.8616
   12.435    5.7881
   12.450    5.8101
   12.465    5.7124
   12.480    5.7311
   12.495    5.7004
   12.510    5.8463
   12.525    5.8024
   12.540    5.9187
   12.555    5.8583
   12.570    5.8605
   12.585    5.8825
   12.600    5.8891
   12.615    5.9373
   12.630    6.0032
   12.645    5.8726
   12.660    5.9033
   12.675    5.9286
   12.690    5.9516
   12.705    5.9999
   12.720    5.8529
   12.735    5.9329
   12.750    6.0196
   12.765    6.0800
   12.780    6.0811
   12.795    6.0086
   12.810    6.0953
   12.825    6.0470
   12.840    5.9768
   12.855    6.0734
   12.870    6.0361
   12.885    6.0438
   12.900    6.1644
   12.915    6.1326
   12.930    6.2072
   12.945    6.1403
   12.960    6.1370
   12.975    6.1293
   12.990    6.1842
   13.005    6.2555
   13.020    6.1787
   13.035    6.1392
   13.050    6.3312
   13.065    6.3641
   13.080    6.1798
   13.095    6.3400
   13.110    6.2796
   13.125    6.1919
   13.140    6.3356
   13.155    6.3729
   13.170    6.4047
   13.185    6.4222
   13.200    6.3641
   13.215    6.3103
   13.230    6.4091
   13.245    6.3970
   13.260    6.3784
   13.275    6.5265
   13.290    6.6131
   13.305    6.5769
   13.320    6.5177
   13.335    6.4365
   13.350    6.4683
   13.365    6.5835
   13.380    6.5232
   13.395    6.6987
   13.410    6.6406
   13.425    6.6669
   13.440    6.7184
   13.455    6.6932
   13.470    6.5813
   13.485    6.6055
   13.500    6.6757
   13.515    6.7316
   13.530    6.7064
   13.545    6.7141
   13.560    6.7645
   13.575    6.7941
   13.590    6.8336
   13.605    6.8029
   13.620    6.8457
   13.635    6.8797
   13.650    6.8940
   13.665    7.0158
   13.680    6.9521
   13.695    7.0300
   13.710    6.9960
   13.725    7.0344
   13.740    7.1233
   13.755    6.9115
   13.770    6.9598
   13.785    6.9521
   13.800    7.0936
   13.815    7.0607
   13.830    7.0706
   13.845    7.0684
   13.860    7.1375
   13.875    7.1375
   13.890    7.2023
   13.905    7.2055
   13.920    7.1671
   13.935    7.1101
   13.950    7.1551
   13.965    7.2582
   13.980    7.2977
   13.995    7.2538
   14.010    7.3482
   14.025    7.2966
   14.040    7.3679
   14.055    7.5588
   14.070    7.4326
   14.085    7.3756
   14.100    7.4754
   14.115    7.4381
   14.130    7.5094
   14.145    7.6784
   14.160    7.6411
   14.175    7.6959
   14.190    7.7365
   14.205    7.6180
   14.220    7.8177
   14.235    7.6861
   14.250    7.7815
   14.265    7.8912
   14.280    7.9647
   14.295    7.9143
   14.310    7.7343
   14.325    7.9197
   14.340    8.0152
   14.355    7.9077
   14.370    7.9680
   14.385    8.0832
   14.400    8.0360
   14.415    8.0097
   14.430    8.0251
   14.445    8.0843
   14.460    8.1929
   14.475    7.9932
   14.490    8.1216
   14.505    8.1874
   14.520    8.1962
   14.535    8.3322
   14.550    8.2258
   14.565    8.1578
   14.580    8.2280
   14.595    8.3871
   14.610    8.2982
   14.625    8.4781
   14.640    8.6965
   14.655    8.5001
   14.670    8.4419
   14.685    8.4101
   14.700    8.4595
   14.715    8.4321
   14.730    8.6065
   14.745    8.6800
   14.760    8.7480
   14.775    8.7206
   14.790    8.7140
   14.805    8.7612
   14.820    8.7250
   14.835    8.7853
   14.850    8.8885
   14.865    8.9696
   14.880    8.9334
   14.895    8.9411
   14.910    8.9093
   14.925    9.0080
   14.940    9.1133
   14.955    9.1726
   14.970    9.0782
   14.985    9.1737
   15.000    9.2812
   15.015    9.2000
   15.030    9.3415
   15.045    9.3931
   15.060    9.4929
   15.075    9.2845
   15.090    9.4534
   15.105    9.5302
   15.120    9.3953
   15.135    9.5445
   15.150    9.6696
   15.165    9.6970
   15.180    9.6696
   15.195    9.7387
   15.210    9.6630
   15.225    9.8451
   15.240    9.8637
   15.255    9.8484
   15.270    9.9987
   15.285   10.0415
   15.300    9.9449
   15.315   10.0437
   15.330   10.2049
   15.345   10.0930
   15.360   10.3519
   15.375   10.4243
   15.390   10.2411
   15.405   10.2598
   15.420   10.3914
   15.435   10.3969
   15.450   10.4682
   15.465   10.5637
   15.480   10.5154
   15.495   10.6119
   15.510   10.7458
   15.525   10.7063
   15.540   10.7249
   15.555   10.9103
   15.570   10.8445
   15.585   10.7908
   15.600   10.9860
   15.615   11.0530
   15.630   11.0958
   15.645   11.1243
   15.660   11.3843
   15.675   11.3755
   15.690   11.3810
   15.705   11.4523
   15.720   11.3974
   15.735   11.6388
   15.750   11.5225
   15.765   11.4501
   15.780   11.4161
   15.795   11.6399
   15.810   11.7364
   15.825   11.7847
   15.840   11.8023
   15.855   11.9394
   15.870   12.0601
   15.885   11.9997
   15.900   12.0403
   15.915   12.0283
   15.930   12.1972
   15.945   12.2828
   15.960   12.3058
   15.975   12.4035
   15.990   12.5055
   16.005   12.6415
   16.020   12.6240
   16.035   12.4835
   16.050   12.6459
   16.065   12.8489
   16.080   12.8906
   16.095   12.9169
   16.110   12.9125
   16.125   12.9344
   16.140   12.9619
   16.155   13.2241
   16.170   13.1758
   16.185   13.3239
   16.200   13.5236
   16.215   13.5192
   16.230   13.3744
   16.245   13.6420
   16.260   13.7726
   16.275   13.8834
   16.290   13.9799
   16.305   13.6958
   16.320   13.9547
   16.335   14.2070
   16.350   14.0699
   16.365   14.0886
   16.380   14.2816
   16.395   14.2915
   16.410   14.2421
   16.425   14.3025
   16.440   14.6426
   16.455   14.8554
   16.470   14.7578
   16.485   14.8817
   16.500   15.0024
   16.515   15.0024
   16.530   15.0979
   16.545   15.0924
   16.560   15.3688
   16.575   15.3337
   16.590   15.2789
   16.605   15.4599
   16.620   15.3129
   16.635   15.6025
   16.650   15.7374
   16.665   15.9108
   16.680   15.7221
   16.695   16.0413
   16.710   16.1467
   16.725   16.0907
   16.740   16.2706
   16.755   16.2838
   16.770   16.4286
   16.785   16.5778
   16.800   16.6349
   16.815   16.8433
   16.830   16.8565
   16.845   17.0243
   16.860   17.0539
   16.875   16.9760
   16.890   17.2119
   16.905   17.3973
   16.920   17.5059
   16.935   17.3940
   16.950   17.4697
   16.965   17.6376
   16.980   18.0029
   16.995   17.9458
   17.010   18.2794
   17.025   18.0007
   17.040   18.0391
   17.055   18.3880
   17.070   18.3869
   17.085   18.6238
   17.100   18.6754
   17.115   18.6030
   17.130   18.7961
   17.145   18.8411
   17.160   19.2097
   17.175   19.0374
   17.190   19.1844
   17.205   19.3468
   17.220   19.5037
   17.235   19.5980
   17.250   19.6222
   17.265   19.8811
   17.280   19.8372
   17.295   20.1795
   17.310   20.1455
   17.325   20.3309
   17.340   20.4395
   17.355   20.7818
   17.370   20.4998
   17.385   20.7423
   17.400   20.9299
   17.415   20.7949
   17.430   20.8882
   17.445   21.1153
   17.460   21.3544
   17.475   21.4005
   17.490   21.6463
   17.505   21.6155
   17.520   21.9820
   17.535   21.9128
   17.550   21.9589
   17.565   22.1838
   17.580   22.2387
   17.595   22.2365
   17.610   22.5371
   17.625   22.6029
   17.640   22.8201
   17.655   22.9935
   17.670   22.9145
   17.685   23.2074
   17.700   23.4180
   17.715   23.3774
   17.730   23.6956
   17.745   23.6989
   17.760   23.7987
   17.775   23.9336
   17.790   24.2244
   17.805   24.3187
   17.820   24.2299
   17.835   24.3012
   17.850   24.2759
   17.865   24.9440
   17.880   24.8058
   17.895   24.8113
   17.910   25.1646
   17.925   25.2315
   17.940   24.8563
   17.955   25.0230
   17.970   25.3840
   17.985   25.5957
   18.000   25.6824
   18.015   25.6955
   18.030   25.7065
   18.045   25.9226
   18.060   26.0960
   18.075   26.4865
   18.090   26.5194
   18.105   26.4108
   18.120   26.3702
   18.135   26.4898
   18.150   26.8837
   18.165   27.0241
   18.180   26.9945
   18.195   26.9254
   18.210   26.9034
   18.225   27.1217
   18.240   27.2007
   18.255   27.4267
   18.270   27.8228
   18.285   27.7065
   18.300   27.9149
   18.315   27.8019
   18.330   27.9226
   18.345   28.2188
   18.360   28.1376
   18.375   28.4942
   18.390   28.3110
   18.405   28.1618
   18.420   28.4613
   18.435   28.5742
   18.450   28.4634
   18.465   28.4766
   18.480   29.1447
   18.495   29.1294
   18.510   28.9484
   18.525   29.0153
   18.540   28.8474
   18.555   28.8891
   18.570   29.0131
   18.585   29.2939
   18.600   29.3257
   18.615   29.2764
   18.630   29.3729
   18.645   29.3411
   18.660   29.5287
   18.675   29.5737
   18.690   29.4596
   18.705   29.5473
   18.720   29.5825
   18.735   29.6801
   18.750   29.6285
   18.765   29.8841
   18.780   29.5967
   18.795   29.7679
   18.810   30.0059
   18.825   30.1014
   18.840   30.0301
   18.855   29.7986
   18.870   29.9982
   18.885   30.0476
   18.900   29.8962
   18.915   30.0290
   18.930   29.9390
   18.945   30.2078
   18.960   29.8776
   18.975   29.7701
   18.990   29.8885
   19.005   29.9379
   19.020   30.0509
   19.035   29.8271
   19.050   30.1069
   19.065   29.8008
   19.080   29.6450
   19.095   29.8743
   19.110   29.8907
   19.125   29.8205
   19.140   29.8545
   19.155   29.8841
   19.170   29.8458
   19.185   29.8644
   19.200   29.6889
   19.215   29.7240
   19.230   29.6538
   19.245   29.6603
   19.260   29.6176
   19.275   29.4069
   19.290   29.0142
   19.305   29.4157
   19.320   29.3115
   19.335   29.0943
   19.350   29.1524
   19.365   29.1941
   19.380   29.0756
   19.395   28.9802
   19.410   28.8869
   19.425   28.9187
   19.440   28.7926
   19.455   28.5600
   19.470   28.4075
   19.485   28.4634
   19.500   28.6280
   19.515   28.4645
   19.530   28.5205
   19.545   28.0334
   19.560   27.7975
   19.575   27.7811
   19.590   27.8293
   19.605   27.8414
   19.620   27.8359
   19.635   27.4882
   19.650   27.4366
   19.665   27.2622
   19.680   27.1799
   19.695   27.2742
   19.710   27.2128
   19.725   26.7597
   19.740   26.8113
   19.755   26.5776
   19.770   26.4712
   19.785   26.5842
   19.800   26.3187
   19.815   26.1497
   19.830   26.3648
   19.845   25.8283
   19.860   25.7339
   19.875   25.8404
   19.890   25.9424
   19.905   25.5760
   19.920   25.6286
   19.935   25.3028
   19.950   25.2370
   19.965   24.9199
   19.980   24.9287
   19.995   25.0055
   20.010   24.8760
   20.025   24.5294
   20.040   24.7115
   20.055   24.6336
   20.070   24.1761
   20.085   24.1125
   20.100   23.9753
   20.115   24.0313
   20.130   23.9896
   20.145   23.7976
   20.160   23.5519
   20.175   23.4608
   20.190   23.3741
   20.205   23.0000
   20.220   23.0066
   20.235   22.9924
   20.250   22.9946
   20.265   22.7927
   20.280   22.7258
   20.295   22.5173
   20.310   22.3341
   20.325   22.2990
   20.340   22.2771
   20.355   21.9853
   20.370   21.8986
   20.385   21.8382
   20.400   21.6825
   20.415   21.5640
   20.430   21.4663
   20.445   21.3490
   20.460   21.1438
   20.475   21.2623
   20.490   21.1328
   20.505   20.6973
   20.520   20.8586
   20.535   20.5404
   20.550   20.4417
   20.565   20.3627
   20.580   20.3649
   20.595   20.1707
   20.610   20.1137
   20.625   19.9776
   20.640   19.9041
   20.655   19.9162
   20.670   19.8174
   20.685   19.3819
   20.700   19.4104
   20.715   19.3183
   20.730   19.1888
   20.745   19.0451
   20.760   18.8443
   20.775   18.9233
   20.790   18.9420
   20.805   18.7061
   20.820   18.6995
   20.835   18.3792
   20.850   18.3507
   20.865   18.2377
   20.880   18.3573
   20.895   18.3364
   20.910   18.1664
   20.925   17.7615
   20.940   17.6288
   20.955   17.8427
   20.970   17.6826
   20.985   17.4390
   21.000   17.5992
   21.015   17.2733
   21.030   17.1680
   21.045   17.0704
   21.060   17.1252
   21.075   16.9453
   21.090   16.9409
   21.105   16.9837
   21.120   16.7314
   21.135   16.4878
   21.150   16.6030
   21.165   15.9448
   21.180   16.1017
   21.195   16.0468
   21.210   16.0677
   21.225   15.8570
   21.240   16.0633
   21.255   15.8921
   21.270   15.6497
   21.285   15.6969
   21.300   15.5630
   21.315   15.4500
   21.330   15.4928
   21.345   15.2756
   21.360   15.3831
   21.375   15.1450
   21.390   15.2284
   21.405   15.0968
   21.420   14.9783
   21.435   14.9421
   21.450   14.7139
   21.465   14.7907
   21.480   14.6162
   21.495   14.5011
   21.510   14.4528
   21.525   14.4857
   21.540   14.4023
   21.555   14.3573
   21.570   14.3826
   21.585   14.0260
   21.600   14.0688
   21.615   14.0238
   21.630   13.8988
   21.645   13.7978
   21.660   13.7572
   21.675   13.8033
   21.690   13.5828
   21.705   13.5543
   21.720   13.6058
   21.735   13.4928
   21.750   13.4314
   21.765   13.5093
   21.780   13.3294
   21.795   13.0782
   21.810   13.2065
   21.825   13.1506
   21.840   12.9794
   21.855   12.8544
   21.870   12.7216
   21.885   12.8708
   21.900   12.7249
   21.915   12.6755
   21.930   12.5274
   21.945   12.5088
   21.960   12.5702
   21.975   12.5154
   21.990   12.4956
   22.005   12.3475
   22.020   12.2927
   22.035   12.1380
   22.050   12.1698
   22.065   12.2422
   22.080   12.1358
   22.095   12.0743
   22.110   12.1522
   22.125   12.0162
   22.140   11.8253
   22.155   11.7814
   22.170   11.7299
   22.185   11.6509
   22.200   11.8977
   22.215   11.6136
   22.230   11.5456
   22.245   11.6871
   22.260   11.6553
   22.275   11.5883
   22.290   11.3185
   22.305   11.2471
   22.320   11.0837
   22.335   11.1945
   22.350   11.0672
   22.365   11.0892
   22.380   11.2395
   22.395   11.1462
   22.410   11.0047
   22.425   10.9136
   22.440   10.9345
   22.455   10.8336
   22.470   11.0069
   22.485   10.8599
   22.500   10.7546
   22.515   10.7491
   22.530   10.7568
   22.545   10.6986
   22.560   10.6712
   22.575   10.5428
   22.590   10.4671
   22.605   10.3552
   22.620   10.4024
   22.635   10.3454
   22.650   10.4309
   22.665   10.2839
   22.680   10.1852
   22.695   10.3223
   22.710   10.0689
   22.725   10.1698
   22.740   10.0086
   22.755    9.9362
   22.770    9.9570
   22.785   10.0042
   22.800    9.9449
   22.815   10.1128
   22.830    9.8659
   22.845    9.7200
   22.860    9.8253
   22.875    9.8034
   22.890    9.8934
   22.905    9.6707
   22.920    9.5445
   22.935    9.6575
   22.950    9.4172
   22.965    9.4940
   22.980    9.6004
   22.995    9.5500
   23.010    9.3119
   23.025    9.4523
   23.040    9.3273
   23.055    9.4216
   23.070    9.3328
   23.085    9.1210
   23.100    9.3679
   23.115    9.3997
   23.130    9.3393
   23.145    9.3152
   23.160    9.0815
   23.175    9.2406
   23.190    9.2856
   23.205    9.1090
   23.220    9.2461
   23.235    9.0344
   23.250    8.9170
   23.265    8.9982
   23.280    9.0058
   23.295    8.9850
   23.310    8.9192
   23.325    8.8095
   23.340    8.7952
   23.355    8.7480
   23.370    8.9148
   23.385    8.7118
   23.400    8.8215
   23.415    8.8380
   23.430    8.8446
   23.445    8.6076
   23.460    8.5571
   23.475    8.5725
   23.490    8.6504
   23.505    8.5571
   23.520    8.6273
   23.535    8.4288
   23.550    8.5736
   23.565    8.4924
   23.580    8.3805
   23.595    8.3476
   23.610    8.3059
   23.625    8.5100
   23.640    8.4968
   23.655    8.3684
   23.670    8.3257
   23.685    8.3235
   23.700    8.1216
   23.715    8.2478
   23.730    8.2302
   23.745    8.0656
   23.760    8.0744
   23.775    8.1359
   23.790    8.2620
   23.805    8.0426
   23.820    7.9943
   23.835    8.1216
   23.850    8.0613
   23.865    8.1392
   23.880    8.0997
   23.895    7.9724
   23.910    8.0569
   23.925    8.0053
   23.940    7.9307
   23.955    7.9143
   23.970    7.8704
   23.985    7.8506
   24.000    7.8517
   24.015    7.8265
   24.030    7.8100
   24.045    7.7157
   24.060    7.8155
   24.075    7.8375
   24.090    7.7091
   24.105    7.7563
   24.120    7.6246
   24.135    7.7694
   24.150    7.6191
   24.165    7.6915
   24.180    7.6455
   24.195    7.5391
   24.210    7.5105
   24.225    7.4820
   24.240    7.4513
   24.255    7.4151
   24.270    7.4985
   24.285    7.6180
   24.300    7.5061
   24.315    7.5094
   24.330    7.5994
   24.345    7.3745
   24.360    7.4315
   24.375    7.4612
   24.390    7.4754
   24.405    7.4129
   24.420    7.2396
   24.435    7.2714
   24.450    7.3569
   24.465    7.3526
   24.480    7.2593
   24.495    7.2571
   24.510    7.3460
   24.525    7.2999
   24.540    7.1145
   24.555    7.2154
   24.570    7.2363
   24.585    7.1979
   24.600    7.1474
   24.615    7.1178
   24.630    7.1891
   24.645    7.1507
   24.660    7.0706
   24.675    7.1277
   24.690    7.0333
   24.705    7.1529
   24.720    7.1035
   24.735    7.0421
   24.750    7.1090
   24.765    7.1562
   24.780    7.0695
   24.795    6.9883
   24.810    7.0081
   24.825    6.9730
   24.840    6.9817
   24.855    7.0520
   24.870    7.0695
   24.885    6.9763
   24.900    6.8973
   24.915    6.9258
   24.930    6.9609
   24.945    6.8293
   24.960    6.8391
   24.975    6.8523
   24.990    6.8611
   25.005    6.9598
   25.020    6.8128
   25.035    6.8018
   25.050    6.8764
   25.065    6.7865
   25.080    7.0081
   25.095    6.8446
   25.110    6.8216
   25.125    6.7810
   25.140    6.7634
   25.155    6.6921
   25.170    6.6493
   25.185    6.6822
   25.200    6.6065
   25.215    6.7064
   25.230    6.6537
   25.245    6.6581
   25.260    6.5506
   25.275    6.5133
   25.290    6.6976
   25.305    6.6011
   25.320    6.5890
   25.335    6.6000
   25.350    6.5769
   25.365    6.6022
   25.380    6.5298
   25.395    6.4935
   25.410    6.6120
   25.425    6.6603
   25.440    6.7448
   25.455    6.5682
   25.470    6.5210
   25.485    6.6801
   25.500    6.5308
   25.515    6.4683
   25.530    6.4661
   25.545    6.3597
   25.560    6.3959
   25.575    6.4464
   25.590    6.4299
   25.605    6.4354
   25.620    6.4552
   25.635    6.3575
   25.650    6.3981
   25.665    6.3060
   25.680    6.3027
   25.695    6.3729
   25.710    6.4233
   25.725    6.4420
   25.740    6.3125
   25.755    6.2588
   25.770    6.2906
   25.785    6.2719
   25.800    6.4003
   25.815    6.3707
   25.830    6.3838
   25.845    6.2961
   25.860    6.4409
   25.875    6.4716
   25.890    6.2292
   25.905    6.3520
   25.920    6.2654
   25.935    6.2083
   25.950    6.1732
   25.965    6.1304
   25.980    6.2632
   25.995    6.1853
   26.010    6.2401
   26.025    6.2050
   26.040    6.1546
   26.055    6.1732
   26.070    6.2467
   26.085    6.2083
   26.100    6.2423
   26.115    6.1337
   26.130    6.2017
   26.145    6.1809
   26.160    6.2204
   26.175    6.1919
   26.190    6.2226
   26.205    6.2862
   26.220    6.1162
   26.235    6.1480
   26.250    6.1798
   26.265    6.1535
   26.280    6.0811
   26.295    6.1655
   26.310    6.1919
   26.325    6.1293
   26.340    6.1194
   26.355    6.0898
   26.370    6.0438
   26.385    6.0130
   26.400    6.0679
   26.415    5.9351
   26.430    5.9966
   26.445    5.9878
   26.460    6.0525
   26.475    5.9681
   26.490    5.9889
   26.505    5.9988
   26.520    6.0174
   26.535    5.9220
   26.550    5.9220
   26.565    6.0229
   26.580    5.9527
   26.595    5.8913
   26.610    5.8474
   26.625    5.7892
   26.640    6.0043
   26.655    5.9801
   26.670    5.8562
   26.685    5.8441
   26.700    5.9593
   26.715    5.9176
   26.730    5.8627
   26.745    5.9242
   26.760    5.9417
   26.775    5.8529
   26.790    5.8463
   26.805    5.8408
   26.820    5.9637
   26.835    5.8221
   26.850    5.8024
   26.865    5.9264
   26.880    5.8737
   26.895    5.8847
   26.910    5.8199
   26.925    5.8178
   26.940    5.8254
   26.955    5.8342
   26.970    5.7936
   26.985    5.9187
   27.000    5.8660
   27.015    5.8265
   27.030    5.8397
   27.045    5.8046
   27.060    5.9702
   27.075    5.7146
   27.090    5.7377
   27.105    5.7519
   27.120    5.8397
   27.135    5.9000
   27.150    5.7037
   27.165    5.7432
   27.180    5.7530
   27.195    5.6850
   27.210    5.6960
   27.225    5.7157
   27.240    5.6894
   27.255    5.7629
   27.270    5.8397
   27.285    5.7596
   27.300    5.6433
   27.315    5.6993
   27.330    5.8397
   27.345    5.8145
   27.360    5.7059
   27.375    5.6543
   27.390    5.5983
   27.405    5.6049
   27.420    5.6609
   27.435    5.6499
   27.450    5.6795
   27.465    5.6751
   27.480    5.6510
   27.495    5.7366
   27.510    5.6729
   27.525    5.6378
   27.540    5.5534
   27.555    5.6455
   27.570    5.4206
   27.585    5.6455
   27.600    5.7146
   27.615    5.6203
   27.630    5.6159
   27.645    5.6455
   27.660    5.6740
   27.675    5.5940
   27.690    5.5929
   27.705    5.6334
   27.720    5.5885
   27.735    5.5523
   27.750    5.5347
   27.765    5.6126
   27.780    5.6422
   27.795    5.6269
   27.810    5.5490
   27.825    5.5665
   27.840    5.5863
   27.855    5.6049
   27.870    5.5808
   27.885    5.6707
   27.900    5.6016
   27.915    5.5742
   27.930    5.5062
   27.945    5.5215
   27.960    5.5062
   27.975    5.6115
   27.990    5.4996
   28.005    5.4821
   28.020    5.5128
   28.035    5.5665
   28.050    5.4601
   28.065    5.5435
   28.080    5.5402
   28.095    5.6751
   28.110    5.5018
   28.125    5.4744
   28.140    5.5292
   28.155    5.4228
   28.170    5.5084
   28.185    5.4557
   28.200    5.4634
   28.215    5.4799
   28.230    5.4941
   28.245    5.5062
   28.260    5.4085
   28.275    5.4129
   28.290    5.4667
   28.305    5.4963
   28.320    5.4020
   28.335    5.5314
   28.350    5.4744
   28.365    5.5051
   28.380    5.3855
   28.395    5.4118
   28.410    5.4996
   28.425    5.3482
   28.440    5.5183
   28.455    5.5380
   28.470    5.5874
   28.485    5.4930
   28.500    5.4327
   28.515    5.4568
   28.530    5.4415
   28.545    5.4118
   28.560    5.4821
   28.575    5.4162
   28.590    5.3581
   28.605    5.3263
   28.620    5.4360
   28.635    5.3976
   28.650    5.3910
   28.665    5.3767
   28.680    5.2681
   28.695    5.3888
   28.710    5.4305
   28.725    5.3811
   28.740    5.3504
   28.755    5.4437
   28.770    5.4075
   28.785    5.4217
   28.800    5.3702
   28.815    5.3998
   28.830    5.3976
   28.845    5.4042
   28.860    5.5545
   28.875    5.3965
   28.890    5.4217
   28.905    5.4305
   28.920    5.3339
   28.935    5.3712
   28.950    5.4118
   28.965    5.3153
   28.980    5.2934
   28.995    5.4053
   29.010    5.3702
   29.025    5.3515
   29.040    5.3998
   29.055    5.3592
   29.070    5.3537
   29.085    5.3076
   29.100    5.3822
   29.115    5.4118
   29.130    5.2890
   29.145    5.2890
   29.160    5.3219
   29.175    5.3976
   29.190    5.1924
   29.205    5.2341
   29.220    5.2484
   29.235    5.2330
   29.250    5.3219
   29.265    5.3394
   29.280    5.2923
   29.295    5.3767
   29.310    5.3987
   29.325    5.4810
   29.340    5.2857
   29.355    5.2275
   29.370    5.2626
   29.385    5.1705
   29.400    5.2407
   29.415    5.3065
   29.430    5.2506
   29.445    5.2396
   29.460    5.3427
   29.475    5.2692
   29.490    5.3307
   29.505    5.3723
   29.520    5.3877
   29.535    5.3164
   29.550    5.2879
   29.565    5.2714
   29.580    5.3998
   29.595    5.4042
   29.610    5.2604
   29.625    5.2879
   29.640    5.2593
   29.655    5.2736
   29.670    5.2988
   29.685    5.3131
   29.700    5.3054
   29.715    5.2966
   29.730    5.2934
   29.745    5.2517
   29.760    5.3230
   29.775    5.2758
   29.790    5.2977
   29.805    5.1628
   29.820    5.2539
   29.835    5.2473
   29.850    5.2056
   29.865    5.2067
   29.880    5.2670
   29.895    5.2824
   29.910    5.2297
   29.925    5.2209
   29.940    5.2374
   29.955    5.3471
   29.970    5.2879
   29.985    5.2604
   30.000    5.3318
   30.015    5.2385
   30.030    5.2451
   30.045    5.3131
   30.060    5.3164
   30.075    5.2648
   30.090    5.3021
   30.105    5.2539
   30.120    5.2253
   30.135    5.2934
   30.150    5.2133
   30.165    5.2385
   30.180    5.1442
   30.195    5.2133
   30.210    5.1266
   30.225    5.0871
   30.240    5.1968
   30.255    5.3021
   30.270    5.3043
   30.285    5.2670
   30.300    5.2089
   30.315    5.2275
   30.330    5.2341
   30.345    5.2846
   30.360    5.2462
   30.375    5.2001
   30.390    5.2396
   30.405    5.1672
   30.420    5.1595
   30.435    5.2550
   30.450    5.1738
   30.465    5.1913
   30.480    5.0761
   30.495    5.2297
   30.510    5.2912
   30.525    5.2857
   30.540    5.2341
   30.555    5.2275
   30.570    5.1683
   30.585    5.1760
   30.600    5.2166
   30.615    5.0915
   30.630    5.1178
   30.645    5.1343
   30.660    5.0498
   30.675    5.1233
   30.690    5.0926
   30.705    5.1606
   30.720    5.1167
   30.735    5.1321
   30.750    5.1453
   30.765    5.1847
   30.780    5.1738
   30.795    5.2418
   30.810    5.1058
   30.825    5.0981
   30.840    5.1672
   30.855    5.1584
   30.870    5.1178
   30.885    5.2253
   30.900    5.2144
   30.915    5.0399
   30.930    5.1343
   30.945    5.0564
   30.960    5.0674
   30.975    5.1343
   30.990    5.2418
   31.005    5.2912
   31.020    5.2242
   31.035    5.2988
   31.050    5.1299
   31.065    5.2056
   31.080    4.9829
   31.095    5.1211
   31.110    5.1705
   31.125    5.1003
   31.140    5.2407
   31.155    5.2045
   31.170    5.1935
   31.185    5.2089
   31.200    5.1935
   31.215    5.1101
   31.230    5.1760
   31.245    5.1244
   31.260    5.1584
   31.275    5.0981
   31.290    5.1793
   31.305    5.2615
   31.320    5.2242
   31.335    5.1518
   31.350    5.0608
   31.365    5.1650
   31.380    5.2188
   31.395    5.2199
   31.410    5.2297
   31.425    5.1266
   31.440    5.1014
   31.455    5.1672
   31.470    5.0443
   31.485    5.1101
   31.500    5.1869
   31.515    5.0641
   31.530    5.0465
   31.545    5.1518
   31.560    5.1321
   31.575    5.1047
   31.590    5.1891
   31.605    5.1628
   31.620    5.1946
   31.635    5.2122
   31.650    5.1946
   31.665    5.1222
   31.680    5.2199
   31.695    5.2615
   31.710    5.2231
   31.725    5.1661
   31.740    5.1431
   31.755    5.1617
   31.770    5.1299
   31.785    5.1902
   31.800    5.0268
   31.815    5.0180
   31.830    5.0575
   31.845    5.1288
   31.860    5.0465
   31.875    4.9840
   31.890    5.1244
   31.905    5.1628
   31.920    5.0937
   31.935    5.2780
   31.950    5.2133
   31.965    5.0959
   31.980    5.1485
   31.995    5.1836
   32.010    5.1321
   32.025    5.1650
   32.040    5.1244
   32.055    5.1463
   32.070    5.1562
   32.085    5.0652
   32.100    5.1463
   32.115    5.1529
   32.130    5.1365
   32.145    5.2045
   32.160    5.0498
   32.175    4.9083
   32.190    5.0992
   32.205    5.0202
   32.220    4.9544
   32.235    4.9884
   32.250    5.1584
   32.265    5.0772
   32.280    5.0344
   32.295    4.9489
   32.310    5.1167
   32.325    5.0158
   32.340    5.1255
   32.355    5.0334
   32.370    5.1047
   32.385    5.0860
   32.400    5.0761
   32.415    5.0553
   32.430    5.0948
   32.445    4.9171
   32.460    5.0334
   32.475    5.0355
   32.490    5.0334
   32.505    5.0816
   32.520    4.9324
   32.535    4.8765
   32.550    5.0509
   32.565    5.0158
   32.580    4.9982
   32.595    5.0663
   32.610    5.0739
   32.625    5.0970
   32.640    4.9939
   32.655    5.0838
   32.670    5.1332
   32.685    4.8787
   32.700    5.0553
   32.715    5.0750
   32.730    5.0235
   32.745    5.0213
   32.760    5.0312
   32.775    4.9796
   32.790    5.0015
   32.805    5.0794
   32.820    5.0059
   32.835    4.9555
   32.850    4.9675
   32.865    5.0421
   32.880    5.0772
   32.895    4.9884
   32.910    4.9840
   32.925    5.0509
   32.940    5.0674
   32.955    4.9390
   32.970    4.9445
   32.985    4.9533
   33.000    5.0048
   33.015    4.9588
   33.030    5.0147
   33.045    5.0213
   33.060    4.9708
   33.075    4.9368
   33.090    4.9939
   33.105    5.0498
   33.120    4.9478
   33.135    5.0037
   33.150    5.0147
   33.165    4.9939
   33.180    4.9895
   33.195    4.9664
   33.210    5.0114
   33.225    5.0366
   33.240    4.9730
   33.255    4.9379
   33.270    4.9116
   33.285    4.9105
   33.300    4.9544
   33.315    4.9566
   33.330    4.9269
   33.345    5.0410
   33.360    4.9434
   33.375    4.8677
   33.390    4.9533
   33.405    4.9708
   33.420    4.9533
   33.435    4.9357
   33.450    4.8820
   33.465    4.8238
   33.480    4.8743
   33.495    4.8600
   33.510    4.9730
   33.525    5.0432
   33.540    5.0004
   33.555    4.9851
   33.570    4.9324
   33.585    4.8052
   33.600    4.8633
   33.615    4.9225
   33.630    4.8150
   33.645    4.9269
   33.660    5.0268
   33.675    4.9500
   33.690    4.8798
   33.705    4.9818
   33.720    4.8534
   33.735    4.8710
   33.750    4.8973
   33.765    4.9939
   33.780    5.0202
   33.795    4.8030
   33.810    4.9971
   33.825    4.8962
   33.840    4.9335
   33.855    4.9324
   33.870    4.9609
   33.885    4.9939
   33.900    4.9236
   33.915    4.9171
   33.930    4.7799
   33.945    4.8820
   33.960    4.8841
   33.975    4.8545
   33.990    4.8205
   34.005    4.9456
   34.020    4.8095
   34.035    4.9335
   34.050    4.8106
   34.065    4.8128
   34.080    4.9017
   34.095    4.8874
   34.110    4.8743
   34.125    4.9818
   34.140    4.8885
   34.155    4.8710
   34.170    4.7744
   34.185    4.8095
   34.200    4.9050
   34.215    4.9028
   34.230    4.9072
   34.245    4.8479
   34.260    4.7887
   34.275    4.8315
   34.290    4.8008
   34.305    4.8304
   34.320    4.8940
   34.335    4.8030
   34.350    4.7986
   34.365    4.7569
   34.380    4.8885
   34.395    4.7744
   34.410    4.8095
   34.425    4.8973
   34.440    4.8611
   34.455    4.8600
   34.470    4.8052
   34.485    4.7569
   34.500    4.8041
   34.515    4.7448
   34.530    4.7668
   34.545    4.8337
   34.560    4.8787
   34.575    4.8348
   34.590    4.9138
   34.605    4.7810
   34.620    4.7690
   34.635    4.7591
   34.650    4.6724
   34.665    4.7426
   34.680    4.8172
   34.695    4.6987
   34.710    4.7273
   34.725    4.7064
   34.740    4.6944
   34.755    4.8304
   34.770    4.7920
   34.785    4.7635
   34.800    4.6713
   34.815    4.7843
   34.830    4.6625
   34.845    4.6274
   34.860    4.7240
   34.875    4.7733
   34.890    4.7722
   34.905    4.6757
   34.920    4.8161
   34.935    4.6439
   34.950    4.7152
   34.965    4.6911
   34.980    4.6538
   34.995    4.7810
   35.010    4.8183
   35.025    4.6757
   35.040    4.6406
   35.055    4.6154
   35.070    4.7591
   35.085    4.8304
   35.100    4.6472
   35.115    4.7569
   35.130    4.7141
   35.145    4.5956
   35.160    4.6614
   35.175    4.7382
   35.190    4.7053
   35.205    4.7986
   35.220    4.7492
   35.235    4.7536
   35.250    4.6658
   35.265    4.6274
   35.280    4.6702
   35.295    4.5594
   35.310    4.6724
   35.325    4.6296
   35.340    4.7382
   35.355    4.6571
   35.370    4.6603
   35.385    4.5759
   35.400    4.6571
   35.415    4.7295
   35.430    4.7788
   35.445    4.7415
   35.460    4.5649
   35.475    4.5561
   35.490    4.6801
   35.505    4.6516
   35.520    4.6362
   35.535    4.6867
   35.550    4.6022
   35.565    4.5583
   35.580    4.5989
   35.595    4.6022
   35.610    4.6187
   35.625    4.6110
   35.640    4.6252
   35.655    4.5978
   35.670    4.6274
   35.685    4.6000
   35.700    4.6669
   35.715    4.6987
   35.730    4.6033
   35.745    4.5923
   35.760    4.6395
   35.775    4.6603
   35.790    4.6823
   35.805    4.6274
   35.820    4.4892
   35.835    4.5605
   35.850    4.6022
   35.865    4.6220
   35.880    4.6285
   35.895    4.6132
   35.910    4.5934
   35.925    4.5539
   35.940    4.5792
   35.955    4.4541
   35.970    4.5737
   35.985    4.6011
   36.000    4.6406
   36.015    4.5188
   36.030    4.4629
   36.045    4.6274
   36.060    4.5945
   36.075    4.5309
   36.090    4.5265
   36.105    4.4980
   36.120    4.4420
   36.135    4.5276
   36.150    4.5539
   36.165    4.5781
   36.180    4.5320
   36.195    4.4914
   36.210    4.5594
   36.225    4.6022
   36.240    4.6417
   36.255    4.5682
   36.270    4.4409
   36.285    4.5057
   36.300    4.5473
   36.315    4.5550
   36.330    4.4684
   36.345    4.4738
   36.360    4.5912
   36.375    4.6110
   36.390    4.6165
   36.405    4.5759
   36.420    4.4881
   36.435    4.4157
   36.450    4.5210
   36.465    4.5210
   36.480    4.5199
   36.495    4.4069
   36.510    4.5473
   36.525    4.5441
   36.540    4.4771
   36.555    4.5517
   36.570    4.4190
   36.585    4.4541
   36.600    4.5386
   36.615    4.4771
   36.630    4.4267
   36.645    4.4256
   36.660    4.4925
   36.675    4.5320
   36.690    4.5825
   36.705    4.5342
   36.720    4.4717
   36.735    4.4706
   36.750    4.5068
   36.765    4.5627
   36.780    4.4333
   36.795    4.4497
   36.810    4.5495
   36.825    4.3707
   36.840    4.3696
   36.855    4.4003
   36.870    4.3740
   36.885    4.4058
   36.900    4.5057
   36.915    4.3630
   36.930    4.4409
   36.945    4.5419
   36.960    4.4409
   36.975    4.4870
   36.990    4.4892
   37.005    4.4102
   37.020    4.3619
   37.035    4.4563
   37.050    4.4289
   37.065    4.4541
   37.080    4.4815
   37.095    4.3477
   37.110    4.4102
   37.125    4.3126
   37.140    4.3367
   37.155    4.4069
   37.170    4.3981
   37.185    4.4124
   37.200    4.3203
   37.215    4.3905
   37.230    4.3740
   37.245    4.4475
   37.260    4.4574
   37.275    4.3784
   37.290    4.3521
   37.305    4.3521
   37.320    4.3630
   37.335    4.2917
   37.350    4.4091
   37.365    4.2994
   37.380    4.2906
   37.395    4.4376
   37.410    4.3312
   37.425    4.3060
   37.440    4.3499
   37.455    4.2775
   37.470    4.3115
   37.485    4.3433
   37.500    4.3159
   37.515    4.3093
   37.530    4.2709
   37.545    4.2687
   37.560    4.3005
   37.575    4.2665
   37.590    4.2621
   37.605    4.2928
   37.620    4.3038
   37.635    4.3619
   37.650    4.3279
   37.665    4.3235
   37.680    4.3685
   37.695    4.2884
   37.710    4.3159
   37.725    4.2884
   37.740    4.3268
   37.755    4.3378
   37.770    4.2687
   37.785    4.4354
   37.800    4.3411
   37.815    4.3268
   37.830    4.3762
   37.845    4.3543
   37.860    4.3027
   37.875    4.3257
   37.890    4.3301
   37.905    4.2698
   37.920    4.2961
   37.935    4.2819
   37.950    4.2413
   37.965    4.1557
   37.980    4.2226
   37.995    4.1722
   38.010    4.2873
   38.025    4.2457
   38.040    4.2182
   38.055    4.2380
   38.070    4.2555
   38.085    4.2468
   38.100    4.1787
   38.115    4.2720
   38.130    4.2676
   38.145    4.2599
   38.160    4.1996
   38.175    4.1853
   38.190    4.2808
   38.205    4.2303
   38.220    4.1129
   38.235    4.2062
   38.250    4.1129
   38.265    4.2084
   38.280    4.2632
   38.295    4.2336
   38.310    4.1546
   38.325    4.1798
   38.340    4.2610
   38.355    4.1864
   38.370    4.3104
   38.385    4.2588
   38.400    4.2709
   38.415    4.1820
   38.430    4.2095
   38.445    4.2555
   38.460    4.2830
   38.475    4.2928
   38.490    4.3082
   38.505    4.2687
   38.520    4.1612
   38.535    4.0965
   38.550    4.1700
   38.565    4.2731
   38.580    4.1919
   38.595    4.2084
   38.610    4.2259
   38.625    4.2116
   38.640    4.1623
   38.655    4.2237
   38.670    4.2391
   38.685    4.2577
   38.700    4.2544
   38.715    4.2797
   38.730    4.2095
   38.745    4.1787
   38.760    4.1491
   38.775    4.2095
   38.790    4.2095
   38.805    4.2105
   38.820    4.1173
   38.835    4.1974
   38.850    4.1875
   38.865    4.0800
   38.880    4.1765
   38.895    4.1283
   38.910    4.1272
   38.925    4.1765
   38.940    4.1524
   38.955    4.1261
   38.970    4.1173
   38.985    4.1096
   39.000    4.0822
   39.015    4.1612
   39.030    4.1667
   39.045    4.0515
   39.060    4.1129
   39.075    4.2226
   39.090    4.1645
   39.105    4.1623
   39.120    4.1239
   39.135    4.1732
   39.150    4.1447
   39.165    4.1480
   39.180    4.1469
   39.195    4.1019
   39.210    4.0679
   39.225    4.0954
   39.240    4.0350
   39.255    4.0043
   39.270    4.1063
   39.285    4.1436
   39.300    4.0976
   39.315    4.1195
   39.330    4.1118
   39.345    4.0855
   39.360    4.1711
   39.375    4.0646
   39.390    4.0076
   39.405    4.0581
   39.420    4.0273
   39.435    4.1327
   39.450    4.1041
   39.465    4.0361
   39.480    4.0427
   39.495    4.0954
   39.510    4.0943
   39.525    4.1228
   39.540    3.9440
   39.555    4.0559
   39.570    4.0240
   39.585    3.9725
   39.600    4.1338
   39.615    4.0504
   39.630    4.0548
   39.645    4.0493
   39.660    4.0822
   39.675    3.9560
   39.690    3.9615
   39.705    4.0438
   39.720    4.0251
   39.735    3.9944
   39.750    4.0197
   39.765    4.0306
   39.780    3.9835
   39.795    4.0262
   39.810    3.9955
   39.825    3.9264
   39.840    3.9484
   39.855    4.0142
   39.870    4.0613
   39.885    4.0251
   39.900    4.0087
   39.915    4.0405
   39.930    4.0273
   39.945    3.9374
   39.960    3.9571
   39.975    4.0098
   39.990    4.0240
