    1.500   16.2191
    1.515   16.3770
    1.530   16.0786
    1.545   16.1664
    1.560   15.7627
    1.575   15.5169
    1.590   15.3414
    1.605   15.7100
    1.620   15.3239
    1.635   14.7973
    1.650   14.9201
    1.665   15.1659
    1.680   14.7797
    1.695   14.4989
    1.710   14.5691
    1.725   14.3233
    1.740   14.2356
    1.755   14.2882
    1.770   13.8143
    1.785   13.6037
    1.800   13.3052
    1.815   13.4457
    1.830   13.3052
    1.845   13.2526
    1.860   13.1473
    1.875   12.2872
    1.890   12.7084
    1.905   12.3749
    1.920   12.3925
    1.935   12.8489
    1.950   12.4100
    1.965   11.6728
    1.980   11.9186
    1.995   12.1292
    2.010   12.4100
    2.025   12.1994
    2.040   11.6026
    2.055   11.0233
    2.070   11.2515
    2.085   11.2164
    2.100   11.6553
    2.115   10.8127
    2.130   11.6728
    2.145   10.8829
    2.160   11.2691
    2.175   11.3217
    2.190   11.6026
    2.205   11.1989
    2.220   10.8303
    2.235   11.1111
    2.250   10.3388
    2.265   10.3212
    2.280   11.1813
    2.295   10.8654
    2.310   10.1632
    2.325   10.6196
    2.340   10.4616
    2.355   10.5494
    2.370   10.1983
    2.385   10.0228
    2.400    9.6893
    2.415   10.5670
    2.430   10.5670
    2.445    9.9877
    2.460   10.1106
    2.475   10.0053
    2.490   10.4792
    2.505   10.0755
    2.520    9.9526
    2.535   10.0053
    2.550    9.8824
    2.565    9.8473
    2.580    9.8999
    2.595   10.0053
    2.610    9.7946
    2.625    9.8122
    2.640   10.1808
    2.655   10.0579
    2.670    9.5489
    2.685    9.7595
    2.700    9.4260
    2.715    9.2680
    2.730    9.5840
    2.745    9.2329
    2.760    9.6015
    2.775    9.1101
    2.790    8.9696
    2.805    9.1978
    2.820    8.6888
    2.835    8.8292
    2.850    9.7244
    2.865    9.9702
    2.880    9.4436
    2.895    9.2680
    2.910    9.2154
    2.925    9.1803
    2.940    8.6186
    2.955    8.8117
    2.970    9.2856
    2.985    9.6367
    3.000    9.1452
    3.015    9.4436
    3.030    9.1276
    3.045    9.4085
    3.060    9.8648
    3.075    9.5489
    3.090    9.3207
    3.105   10.2510
    3.120   10.2861
    3.135    9.8824
    3.150   10.9356
    3.165   10.8654
    3.180   10.6723
    3.195   10.0404
    3.210   10.7074
    3.225   10.8478
    3.240   10.9707
    3.255   11.3744
    3.270   11.2866
    3.285   11.8132
    3.300   11.9712
    3.315   13.0420
    3.330   13.5510
    3.345   12.9893
    3.360   13.0420
    3.375   14.1478
    3.390   15.5520
    3.405   15.4292
    3.420   15.9031
    3.435   16.9387
    3.450   17.8339
    3.465   17.8339
    3.480   18.9398
    3.495   20.1861
    3.510   21.0637
    3.525   22.3802
    3.540   24.3813
    3.555   24.6797
    3.570   26.0839
    3.585   27.3653
    3.600   29.0855
    3.615   30.9812
    3.630   32.3328
    3.645   34.9833
    3.660   37.3354
    3.675   40.6003
    3.690   42.5136
    3.705   46.2349
    3.720   51.6763
    3.735   57.7848
    3.750   63.2965
    3.765   68.2113
    3.780   78.0235
    3.795   88.2394
    3.810  103.6686
    3.825  124.2233
    3.840  135.2291
    3.855  136.2647
    3.870  125.1185
    3.885  105.8101
    3.900   78.7081
    3.915   54.4322
    3.930   32.6839
    3.945   19.2733
    3.960   14.3058
    3.975   12.2521
    3.990   10.9356
    4.005   10.6898
    4.020    9.8648
    4.035    9.4787
    4.050    9.3734
    4.065    9.4611
    4.080    8.6888
    4.095    9.0047
    4.110    8.7239
    4.125    8.0920
    4.140    8.6010
    4.155    8.8117
    4.170    8.6712
    4.185    8.6888
    4.200    8.0393
    4.215    8.5659
    4.230    8.4957
    4.245    8.4430
    4.260    8.2675
    4.275    7.6883
    4.290    7.4074
    4.305    7.3723
    4.320    7.6707
    4.335    8.1797
    4.350    7.9516
    4.365    8.0393
    4.380    8.3377
    4.395    8.1271
    4.410    8.2149
    4.425    7.9516
    4.440    7.7409
    4.455    7.8813
    4.470    8.0569
    4.485    8.0042
    4.500    7.9516
    4.515    8.5659
    4.530    7.7234
    4.545    8.3728
    4.560    8.3026
    4.575    7.7936
    4.590    8.3904
    4.605    7.8462
    4.620    8.6712
    4.635    8.4957
    4.650    7.8462
    4.665    7.7760
    4.680    7.7760
    4.695    8.0218
    4.710    7.5829
    4.725    7.9340
    4.740    7.9516
    4.755    8.1622
    4.770    8.6186
    4.785    8.2500
    4.800    7.6356
    4.815    7.9340
    4.830    8.1797
    4.845    7.6356
    4.860    7.9691
    4.875    8.2851
    4.890    8.1973
    4.905    8.4430
    4.920    8.7590
    4.935    8.4606
    4.950    8.0744
    4.965    8.7414
    4.980    9.1803
    4.995    9.0574
    5.010    8.1797
    5.025    8.8117
    5.040    8.8643
    5.055    9.1452
    5.070    8.5308
    5.085    8.8994
    5.100    9.5489
    5.115    9.4787
    5.130    9.4787
    5.145   10.0579
    5.160   10.0228
    5.175    9.9877
    5.190   10.3739
    5.205   10.8478
    5.220   11.1813
    5.235   11.1989
    5.250   11.2515
    5.265   12.0239
    5.280   11.9010
    5.295   13.2877
    5.310   13.4457
    5.325   14.8675
    5.340   14.6042
    5.355   15.7451
    5.370   16.4824
    5.385   17.3074
    5.400   18.7116
    5.415   21.8536
    5.430   23.3281
    5.445   26.6632
    5.460   29.7349
    5.475   30.4195
    5.490   27.6637
    5.505   25.4871
    5.520   21.4499
    5.535   16.9563
    5.550   14.0951
    5.565   12.3223
    5.580   12.0590
    5.595   11.1111
    5.610   10.1281
    5.625   10.3037
    5.640    9.9877
    5.655    9.8122
    5.670   10.0579
    5.685   10.0579
    5.700    9.4436
    5.715    9.1803
    5.730    9.3558
    5.745    9.4787
    5.760    9.6191
    5.775    9.6718
    5.790    9.3207
    5.805    8.7941
    5.820    8.8819
    5.835    9.1627
    5.850    8.1797
    5.865    8.8292
    5.880    8.2149
    5.895    8.6537
    5.910    8.3728
    5.925    8.1973
    5.940    8.2851
    5.955    7.8287
    5.970    8.0042
    5.985    8.4957
    6.000    8.3553
    6.015    7.8638
    6.030    8.1271
    6.045    8.0042
    6.060    8.0744
    6.075    7.7760
    6.090    7.9340
    6.105    7.8111
    6.120    7.7058
    6.135    7.6356
    6.150    7.3021
    6.165    7.5829
    6.180    7.8287
    6.195    7.9691
    6.210    7.7409
    6.225    7.6707
    6.240    7.4952
    6.255    7.8287
    6.270    6.7755
    6.285    7.1792
    6.300    7.8989
    6.315    7.4250
    6.330    7.4074
    6.345    6.9510
    6.360    7.1792
    6.375    7.4601
    6.390    7.1441
    6.405    7.3196
    6.420    7.2845
    6.435    7.4074
    6.450    7.1968
    6.465    7.4776
    6.480    7.5303
    6.495    7.2670
    6.510    6.7930
    6.525    7.1441
    6.540    7.5303
    6.555    7.9164
    6.570    7.1792
    6.585    7.4250
    6.600    8.0042
    6.615    7.9516
    6.630    8.0042
    6.645    8.2324
    6.660    8.6537
    6.675    9.0047
    6.690    9.9526
    6.705   10.1983
    6.720    9.8824
    6.735   10.1106
    6.750    9.1978
    6.765    8.7063
    6.780    8.7941
    6.795    7.9867
    6.810    7.2143
    6.825    6.6877
    6.840    6.5298
    6.855    6.4244
    6.870    6.6000
    6.885    6.7404
    6.900    7.0388
    6.915    6.5122
    6.930    6.3542
    6.945    6.6526
    6.960    6.2313
    6.975    6.2665
    6.990    6.5649
    7.005    6.2138
    7.020    6.4595
    7.035    6.4771
    7.050    6.4595
    7.065    6.5298
    7.080    5.9505
    7.095    6.0207
    7.110    5.9856
    7.125    5.9329
    7.140    6.2489
    7.155    6.3718
    7.170    6.6702
    7.185    6.3016
    7.200    6.3016
    7.215    5.5117
    7.230    5.6697
    7.245    6.0558
    7.260    5.9329
    7.275    5.6345
    7.290    5.8452
    7.305    6.0207
    7.320    6.3542
    7.335    6.3191
    7.350    5.8452
    7.365    6.3016
    7.380    5.8452
    7.395    5.8276
    7.410    5.8276
    7.425    5.8978
    7.440    6.2313
    7.455    5.8452
    7.470    6.0032
    7.485    6.0207
    7.500    6.0032
    7.515    6.5298
    7.530    6.8984
    7.545    6.5649
    7.560    6.3367
    7.575    6.8106
    7.590    6.3718
    7.605    6.6351
    7.620    6.8106
    7.635    6.7228
    7.650    7.1266
    7.665    7.2319
    7.680    7.6356
    7.695    8.0569
    7.710    8.8643
    7.725    9.0750
    7.740    9.8824
    7.755   10.8654
    7.770   11.6904
    7.785   11.0233
    7.800    9.7069
    7.815    9.2505
    7.830    7.7234
    7.845    6.5824
    7.860    6.2665
    7.875    5.4590
    7.890    5.1606
    7.905    5.6521
    7.920    5.2308
    7.935    5.4941
    7.950    5.5468
    7.965    5.6872
    7.980    5.3361
    7.995    5.1782
    8.010    5.3361
    8.025    5.2308
    8.040    5.1431
    8.055    5.1606
    8.070    5.2133
    8.085    5.7048
    8.100    5.3186
    8.115    5.0553
    8.130    5.3712
    8.145    5.7750
    8.160    5.2835
    8.175    5.3537
    8.190    5.1782
    8.205    5.0904
    8.220    4.9324
    8.235    5.2308
    8.250    5.4415
    8.265    5.4941
    8.280    5.1080
    8.295    5.5292
    8.310    5.5468
    8.325    5.8452
    8.340    5.3888
    8.355    5.3361
    8.370    5.8978
    8.385    5.0728
    8.400    5.2484
    8.415    5.2835
    8.430    5.0904
    8.445    5.3537
    8.460    5.1431
    8.475    5.1782
    8.490    5.3361
    8.505    5.3712
    8.520    5.0377
    8.535    5.2484
    8.550    4.8798
    8.565    5.4941
    8.580    5.3361
    8.595    5.5468
    8.610    6.1436
    8.625    5.0377
    8.640    4.9851
    8.655    5.1957
    8.670    5.6872
    8.685    5.8978
    8.700    5.6170
    8.715    5.9154
    8.730    5.8627
    8.745    5.4064
    8.760    4.6516
    8.775    5.1606
    8.790    5.0904
    8.805    5.1080
    8.820    5.2308
    8.835    4.9149
    8.850    5.0904
    8.865    4.7393
    8.880    4.7042
    8.895    4.9500
    8.910    5.0728
    8.925    5.4766
    8.940    5.0026
    8.955    5.2484
    8.970    5.0904
    8.985    5.1080
    9.000    4.8271
    9.015    4.8095
    9.030    4.7920
    9.045    4.5989
    9.060    4.7393
    9.075    4.9500
    9.090    4.6516
    9.105    4.8798
    9.120    5.0728
    9.135    5.1957
    9.150    4.6516
    9.165    4.9324
    9.180    5.3186
    9.195    5.0904
    9.210    4.8622
    9.225    5.0728
    9.240    5.0904
    9.255    4.6340
    9.270    5.2133
    9.285    5.2659
    9.300    5.0377
    9.315    5.1255
    9.330    5.1957
    9.345    5.3010
    9.360    5.8978
    9.375    5.4941
    9.390    6.0558
    9.405    6.8457
    9.420    7.2319
    9.435    7.8287
    9.450    8.0218
    9.465    9.2680
    9.480   10.2335
    9.495   12.6207
    9.510   14.1302
    9.525   15.7100
    9.540   15.5520
    9.555   15.0781
    9.570   12.7435
    9.585   11.3042
    9.600    8.8117
    9.615    6.2840
    9.630    5.4941
    9.645    5.9505
    9.660    5.1606
    9.675    4.9324
    9.690    5.5994
    9.705    5.2308
    9.720    4.8973
    9.735    4.7218
    9.750    5.0553
    9.765    4.8798
    9.780    4.9149
    9.795    4.9149
    9.810    4.8271
    9.825    4.3883
    9.840    4.4936
    9.855    4.8095
    9.870    4.8622
    9.885    5.1080
    9.900    4.3883
    9.915    4.4936
    9.930    5.2133
    9.945    4.3181
    9.960    4.8447
    9.975    4.6165
    9.990    4.7393
   10.005    4.5814
   10.020    4.7393
   10.035    5.1957
   10.050    5.0728
   10.065    4.7393
   10.080    5.1080
   10.095    5.2308
   10.110    5.2133
   10.125    5.0904
   10.140    5.4766
   10.155    5.4941
   10.170    5.4766
   10.185    5.9681
   10.200    5.6697
   10.215    5.7925
   10.230    5.8276
   10.245    6.5824
   10.260    7.1090
   10.275    7.9691
   10.290    8.1797
   10.305    7.9691
   10.320    7.5654
   10.335    7.7234
   10.350    6.8808
   10.365    5.5643
   10.380    5.7750
   10.395    5.3888
   10.410    4.8973
   10.425    4.8447
   10.440    4.8271
   10.455    4.8271
   10.470    4.8095
   10.485    4.5814
   10.500    5.1957
   10.515    5.2308
   10.530    4.8798
   10.545    4.8622
   10.560    5.2133
   10.575    4.5463
   10.590    5.1255
   10.605    5.1782
   10.620    5.0553
   10.635    4.6340
   10.650    5.0377
   10.665    5.4415
   10.680    5.3010
   10.695    5.0026
   10.710    4.9500
   10.725    4.9500
   10.740    4.7920
   10.755    5.0904
   10.770    5.4239
   10.785    5.5468
   10.800    4.9324
   10.815    4.6516
   10.830    4.8095
   10.845    5.0728
   10.860    5.1606
   10.875    5.6170
   10.890    5.4415
   10.905    5.5117
   10.920    5.8803
   10.935    5.6697
   10.950    5.8452
   10.965    6.2665
   10.980    6.6702
   10.995    7.0915
   11.010    8.0569
   11.025    8.3026
   11.040    7.8638
   11.055    7.1792
   11.070    6.8808
   11.085    6.3191
   11.100    5.9681
   11.115    5.7223
   11.130    5.6170
   11.145    5.6521
   11.160    5.6697
   11.175    5.1255
   11.190    5.4590
   11.205    5.2484
   11.220    5.2133
   11.235    5.3361
   11.250    5.6170
   11.265    5.2484
   11.280    5.0026
   11.295    4.5989
   11.310    5.3537
   11.325    5.5117
   11.340    4.7042
   11.355    5.2835
   11.370    5.6170
   11.385    5.0377
   11.400    4.9851
   11.415    4.6691
   11.430    5.1431
   11.445    4.9851
   11.460    4.6340
   11.475    4.8798
   11.490    5.1431
   11.505    5.0904
   11.520    5.0553
   11.535    4.6867
   11.550    5.1782
   11.565    5.1782
   11.580    5.8627
   11.595    5.4415
   11.610    6.0383
   11.625    6.1085
   11.640    6.4069
   11.655    7.3196
   11.670    7.7409
   11.685    8.3202
   11.700    7.9340
   11.715    8.3377
   11.730    7.8111
   11.745    7.1090
   11.760    6.4244
   11.775    5.6697
   11.790    5.3010
   11.805    4.7393
   11.820    4.8447
   11.835    4.8095
   11.850    4.7569
   11.865    4.6516
   11.880    4.8095
   11.895    5.1255
   11.910    4.7744
   11.925    4.8973
   11.940    4.9675
   11.955    4.6691
   11.970    5.2484
   11.985    4.6165
   12.000    5.0026
   12.015    5.1957
   12.030    5.1431
   12.045    4.7920
   12.060    4.8798
   12.075    5.1431
   12.090    5.1255
   12.105    5.0026
   12.120    4.9149
   12.135    4.7920
   12.150    4.8622
   12.165    4.7920
   12.180    4.8798
   12.195    4.8973
   12.210    4.7042
   12.225    4.8095
   12.240    5.1431
   12.255    4.7393
   12.270    5.1080
   12.285    5.3537
   12.300    5.3712
   12.315    5.6872
   12.330    6.2138
   12.345    5.7399
   12.360    4.9500
   12.375    4.9851
   12.390    5.2133
   12.405    4.6340
   12.420    4.9500
   12.435    4.5638
   12.450    4.8622
   12.465    4.9675
   12.480    4.7920
   12.495    4.7042
   12.510    4.8622
   12.525    4.4936
   12.540    4.5989
   12.555    5.2133
   12.570    4.5111
   12.585    4.8095
   12.600    4.6516
   12.615    5.0202
   12.630    4.0723
   12.645    4.3005
   12.660    4.2303
   12.675    4.3707
   12.690    4.8622
   12.705    4.4409
   12.720    4.2654
   12.735    4.4936
   12.750    4.6691
   12.765    4.6691
   12.780    4.7569
   12.795    4.6867
   12.810    4.9675
   12.825    4.9500
   12.840    4.8798
   12.855    5.4590
   12.870    5.2659
   12.885    5.4064
   12.900    6.5649
   12.915    6.2313
   12.930    7.1792
   12.945    7.4952
   12.960    7.2670
   12.975    6.5298
   12.990    6.1085
   13.005    5.6872
   13.020    5.1255
   13.035    4.6691
   13.050    4.9675
   13.065    4.9149
   13.080    4.3883
   13.095    4.5814
   13.110    4.7744
   13.125    4.6516
   13.140    4.7042
   13.155    4.8447
   13.170    4.8095
   13.185    4.7393
   13.200    4.5287
   13.215    4.7393
   13.230    4.7744
   13.245    4.8973
   13.260    4.6691
   13.275    4.4760
   13.290    4.7744
   13.305    4.9851
   13.320    4.6165
   13.335    4.3005
   13.350    4.7218
   13.365    4.8095
   13.380    4.9149
   13.395    5.3361
   13.410    4.8271
   13.425    4.9324
   13.440    4.8798
   13.455    5.2835
   13.470    5.2835
   13.485    5.7574
   13.500    6.1436
   13.515    6.3191
   13.530    6.2313
   13.545    6.3718
   13.560    6.6351
   13.575    5.3361
   13.590    5.1255
   13.605    4.6691
   13.620    4.5287
   13.635    4.6340
   13.650    4.7920
   13.665    4.5111
   13.680    4.4234
   13.695    4.7744
   13.710    4.4234
   13.725    4.3883
   13.740    4.3356
   13.755    4.5989
   13.770    4.7569
   13.785    5.1255
   13.800    4.5111
   13.815    4.6691
   13.830    4.8271
   13.845    4.7393
   13.860    4.8798
   13.875    4.9851
   13.890    4.9500
   13.905    5.2484
   13.920    4.7569
   13.935    5.1957
   13.950    5.0904
   13.965    5.2835
   13.980    5.1080
   13.995    5.5117
   14.010    5.6872
   14.025    5.9856
   14.040    5.8452
   14.055    6.0383
   14.070    6.8106
   14.085    7.1968
   14.100    7.3547
   14.115    6.3542
   14.130    5.9856
   14.145    5.7750
   14.160    5.0728
   14.175    4.8622
   14.190    5.0377
   14.205    4.8622
   14.220    4.7744
   14.235    5.0026
   14.250    5.1957
   14.265    4.8622
   14.280    4.6340
   14.295    4.7744
   14.310    5.0026
   14.325    4.9149
   14.340    4.9149
   14.355    4.8447
   14.370    5.5292
   14.385    5.3537
   14.400    5.0026
   14.415    4.8973
   14.430    5.2484
   14.445    5.3361
   14.460    5.0553
   14.475    5.1782
   14.490    4.7920
   14.505    4.8798
   14.520    5.1957
   14.535    5.0728
   14.550    4.8622
   14.565    4.7744
   14.580    4.6691
   14.595    5.2308
   14.610    5.1782
   14.625    4.8447
   14.640    5.1606
   14.655    4.7393
   14.670    5.2133
   14.685    4.9675
   14.700    5.1431
   14.715    5.4064
   14.730    4.7744
   14.745    4.6691
   14.760    4.4058
   14.775    4.6691
   14.790    4.8798
   14.805    4.9324
   14.820    5.2133
   14.835    4.9500
   14.850    4.9149
   14.865    4.4585
   14.880    4.6516
   14.895    4.8973
   14.910    4.6516
   14.925    4.6165
   14.940    4.5989
   14.955    4.6691
   14.970    4.7569
   14.985    5.0904
   15.000    5.4064
   15.015    4.7569
   15.030    4.5111
   15.045    4.8973
   15.060    4.9324
   15.075    4.8973
   15.090    5.1606
   15.105    5.4239
   15.120    5.1080
   15.135    5.1782
   15.150    5.0202
   15.165    5.1782
   15.180    5.1782
   15.195    4.5989
   15.210    4.4234
   15.225    4.6691
   15.240    4.9324
   15.255    4.5287
   15.270    4.6516
   15.285    4.7920
   15.300    3.9846
   15.315    4.3356
   15.330    4.4234
   15.345    4.4760
   15.360    4.1601
   15.375    4.3707
   15.390    4.8973
   15.405    4.6867
   15.420    4.6165
   15.435    4.4058
   15.450    4.5814
   15.465    4.7393
   15.480    4.1776
   15.495    4.1776
   15.510    4.6867
   15.525    4.1425
   15.540    4.3883
   15.555    4.6867
   15.570    4.4936
   15.585    4.0548
   15.600    4.4936
   15.615    4.5814
   15.630    4.4585
   15.645    4.6340
   15.660    5.0904
   15.675    4.3005
   15.690    4.6165
   15.705    4.2830
   15.720    4.2303
   15.735    4.6340
   15.750    4.9149
   15.765    4.5638
   15.780    4.5814
   15.795    4.6340
   15.810    5.0553
   15.825    4.7569
   15.840    4.2478
   15.855    4.6165
   15.870    4.4058
   15.885    4.3181
   15.900    4.3181
   15.915    4.5287
   15.930    4.9500
   15.945    5.0553
   15.960    5.3010
   15.975    4.7042
   15.990    4.7042
   16.005    4.7042
   16.020    4.9149
   16.035    4.6691
   16.050    4.7569
   16.065    4.8095
   16.080    4.9675
   16.095    4.8973
   16.110    4.9675
   16.125    5.2835
   16.140    5.3361
   16.155    5.0553
   16.170    5.0377
   16.185    5.0553
   16.200    4.5287
   16.215    4.6691
   16.230    5.1080
   16.245    4.7920
   16.260    4.7042
   16.275    4.2478
   16.290    4.2830
   16.305    4.7393
   16.320    4.5989
   16.335    4.3181
   16.350    4.7920
   16.365    4.7920
   16.380    4.7569
   16.395    4.3532
   16.410    4.6340
   16.425    4.5638
   16.440    4.4760
   16.455    4.4409
   16.470    4.6691
   16.485    4.7744
   16.500    4.5287
   16.515    4.5814
   16.530    4.7920
   16.545    4.7393
   16.560    4.5638
   16.575    5.0904
   16.590    5.5292
   16.605    5.6697
   16.620    5.1255
   16.635    4.6165
   16.650    4.6165
   16.665    4.9324
   16.680    4.7744
   16.695    4.6165
   16.710    4.1425
   16.725    4.3532
   16.740    4.5287
   16.755    4.8447
   16.770    4.5111
   16.785    4.6691
   16.800    5.0728
   16.815    4.6340
   16.830    5.0026
   16.845    4.3883
   16.860    4.3707
   16.875    4.4409
   16.890    4.2654
   16.905    4.5463
   16.920    4.7920
   16.935    4.5463
   16.950    4.6867
   16.965    4.9324
   16.980    5.2835
   16.995    5.0904
   17.010    5.2659
   17.025    5.7048
   17.040    6.2489
   17.055    6.3191
   17.070    6.1085
   17.085    6.1611
   17.100    6.1962
   17.115    5.3537
   17.130    4.8973
   17.145    4.6691
   17.160    4.3005
   17.175    4.6867
   17.190    4.4936
   17.205    4.6691
   17.220    5.0377
   17.235    4.3532
   17.250    4.3532
   17.265    4.3707
   17.280    4.2478
   17.295    4.8973
   17.310    5.1431
   17.325    4.3005
   17.340    4.0899
   17.355    4.3356
   17.370    4.4585
   17.385    4.3707
   17.400    4.7218
   17.415    4.9500
   17.430    4.4760
   17.445    4.4936
   17.460    4.5287
   17.475    4.8622
   17.490    4.8622
   17.505    5.0026
   17.520    5.0026
   17.535    4.4234
   17.550    4.7042
   17.565    4.7218
   17.580    4.4760
   17.595    4.8271
   17.610    4.8798
   17.625    4.9324
   17.640    4.5463
   17.655    4.4234
   17.670    4.4058
   17.685    4.4936
   17.700    4.4760
   17.715    4.6516
   17.730    4.5111
   17.745    4.4585
   17.760    4.3532
   17.775    4.3532
   17.790    4.4936
   17.805    4.3883
   17.820    4.1601
   17.835    4.5287
   17.850    4.3181
   17.865    4.3707
   17.880    4.6516
   17.895    4.4585
   17.910    4.7569
   17.925    5.3186
   17.940    4.7393
   17.955    4.7218
   17.970    5.1431
   17.985    5.3010
   18.000    4.5814
   18.015    4.1776
   18.030    4.4585
   18.045    4.5814
   18.060    4.0899
   18.075    4.0548
   18.090    4.5111
   18.105    4.4936
   18.120    4.6340
   18.135    4.5287
   18.150    4.5111
   18.165    4.3356
   18.180    4.4585
   18.195    4.5814
   18.210    4.9149
   18.225    4.1425
   18.240    4.2830
   18.255    4.2303
   18.270    4.2478
   18.285    4.3181
   18.300    4.8973
   18.315    4.8798
   18.330    4.9851
   18.345    4.9500
   18.360    4.6691
   18.375    4.6516
   18.390    5.2133
   18.405    4.8798
   18.420    4.5463
   18.435    4.5989
   18.450    4.5638
   18.465    4.5111
   18.480    4.4409
   18.495    4.6867
   18.510    4.1425
   18.525    4.4234
   18.540    4.7393
   18.555    4.2303
   18.570    4.4760
   18.585    4.4409
   18.600    4.5638
   18.615    4.5814
   18.630    4.8095
   18.645    4.0899
   18.660    4.3181
   18.675    4.4936
   18.690    4.5111
   18.705    4.3707
   18.720    4.0021
   18.735    4.2830
   18.750    4.1601
   18.765    4.5989
   18.780    4.5989
   18.795    4.3707
   18.810    4.4585
   18.825    4.5814
   18.840    4.1250
   18.855    4.3356
   18.870    4.5989
   18.885    4.4058
   18.900    4.3707
   18.915    4.2830
   18.930    4.2478
   18.945    4.8447
   18.960    4.5989
   18.975    4.5638
   18.990    4.7042
   19.005    4.9149
   19.020    4.4936
   19.035    4.7744
   19.050    4.3532
   19.065    4.4409
   19.080    4.4760
   19.095    3.9319
   19.110    4.2303
   19.125    4.2127
   19.140    4.0723
   19.155    4.0197
   19.170    4.3532
   19.185    5.0377
   19.200    4.7920
   19.215    4.4058
   19.230    4.1074
   19.245    4.4760
   19.260    4.2478
   19.275    4.5814
   19.290    4.0723
   19.305    4.1074
   19.320    4.0372
   19.335    4.1601
   19.350    4.5287
   19.365    4.3356
   19.380    4.3707
   19.395    4.5111
   19.410    3.8617
   19.425    3.9319
   19.440    4.0723
   19.455    3.8090
   19.470    4.0021
   19.485    4.2478
   19.500    4.2127
   19.515    4.3883
   19.530    4.3532
   19.545    4.1425
   19.560    4.7920
   19.575    5.2133
   19.590    5.3361
   19.605    4.9324
   19.620    5.1957
   19.635    4.7744
   19.650    4.3181
   19.665    4.2478
   19.680    3.9846
   19.695    4.5638
   19.710    4.5638
   19.725    4.4409
   19.740    4.2478
   19.755    4.2303
   19.770    4.2830
   19.785    3.8792
   19.800    4.1952
   19.815    4.1776
   19.830    4.4234
   19.845    4.5111
   19.860    4.2478
   19.875    4.0899
   19.890    4.1601
   19.905    4.4936
   19.920    4.7042
   19.935    4.3356
   19.950    4.1601
   19.965    4.2654
   19.980    4.5638
   19.995    4.5111
   20.010    4.2478
   20.025    4.2654
   20.040    4.1601
   20.055    4.3005
   20.070    4.0021
   20.085    4.2303
   20.100    3.8441
   20.115    4.0372
   20.130    4.3356
   20.145    4.4936
   20.160    4.4409
   20.175    4.0197
   20.190    4.3005
   20.205    4.3005
   20.220    4.1776
   20.235    4.2654
   20.250    4.3883
   20.265    4.4409
   20.280    4.2127
   20.295    4.1250
   20.310    4.3707
   20.325    4.8973
   20.340    5.4064
   20.355    5.3537
   20.370    6.0558
   20.385    5.8276
   20.400    6.1260
   20.415    5.5994
   20.430    5.0377
   20.445    4.4585
   20.460    4.3532
   20.475    4.0197
   20.490    4.1074
   20.505    4.0372
   20.520    3.7564
   20.535    4.3532
   20.550    4.1776
   20.565    4.1250
   20.580    4.1074
   20.595    3.9143
   20.610    3.7739
   20.625    4.5111
   20.640    4.2830
   20.655    3.7564
   20.670    3.8968
   20.685    3.8617
   20.700    3.9143
   20.715    4.2478
   20.730    4.0021
   20.745    4.0372
   20.760    4.2303
   20.775    4.1425
   20.790    3.7564
   20.805    4.5463
   20.820    4.5287
   20.835    4.3005
   20.850    4.2478
   20.865    3.9143
   20.880    3.8617
   20.895    4.0723
   20.910    3.9143
   20.925    4.1776
   20.940    4.0372
   20.955    4.2478
   20.970    3.9143
   20.985    3.6510
   21.000    3.7213
   21.015    3.9319
   21.030    4.3181
   21.045    4.2830
   21.060    4.1952
   21.075    4.1601
   21.090    3.7739
   21.105    4.0899
   21.120    3.8266
   21.135    3.8441
   21.150    3.8266
   21.165    3.8090
   21.180    3.8090
   21.195    4.0548
   21.210    3.9670
   21.225    4.0372
   21.240    4.1601
   21.255    4.1425
   21.270    4.1250
   21.285    3.8617
   21.300    4.4234
   21.315    4.2127
   21.330    4.4234
   21.345    4.6867
   21.360    4.2654
   21.375    3.9494
   21.390    4.2478
   21.405    4.0372
   21.420    4.0899
   21.435    4.0372
   21.450    4.2303
   21.465    4.1074
   21.480    4.2127
   21.495    4.2654
   21.510    4.1601
   21.525    4.1074
   21.540    4.0723
   21.555    4.1776
   21.570    3.5457
   21.585    3.9143
   21.600    3.6686
   21.615    3.8617
   21.630    3.7388
   21.645    3.7739
   21.660    3.9670
   21.675    3.9143
   21.690    4.1074
   21.705    4.0548
   21.720    3.8441
   21.735    3.9143
   21.750    4.1601
   21.765    4.1425
   21.780    4.0021
   21.795    4.0021
   21.810    4.3181
   21.825    4.2303
   21.840    4.7569
   21.855    4.7744
   21.870    4.5463
   21.885    4.7218
   21.900    4.4234
   21.915    4.3883
   21.930    4.2830
   21.945    4.0372
   21.960    4.2654
   21.975    3.7213
   21.990    4.0899
   22.005    4.3181
   22.020    3.8968
   22.035    3.3702
   22.050    4.1776
   22.065    4.0197
   22.080    4.0021
   22.095    4.0021
   22.110    4.1074
   22.125    3.8266
   22.140    3.4931
   22.155    4.1250
   22.170    4.3181
   22.185    4.3532
   22.200    4.3707
   22.215    4.6340
   22.230    4.5111
   22.245    4.5989
   22.260    4.3883
   22.275    4.1776
   22.290    3.8090
   22.305    3.6510
   22.320    4.0197
   22.335    3.5984
   22.350    3.8441
   22.365    3.8090
   22.380    3.9319
   22.395    4.0021
   22.410    3.6686
   22.425    3.6159
   22.440    3.8792
   22.455    4.0548
   22.470    4.1776
   22.485    4.2830
   22.500    4.4585
   22.515    4.9500
   22.530    5.3712
   22.545    5.4941
   22.560    5.7574
   22.575    5.8101
   22.590    5.4590
   22.605    5.3712
   22.620    4.7920
   22.635    4.5111
   22.650    4.1425
   22.665    4.0021
   22.680    4.0372
   22.695    3.8617
   22.710    4.2127
   22.725    3.8617
   22.740    3.8441
   22.755    4.4936
   22.770    4.5463
   22.785    3.9143
   22.800    3.9494
   22.815    3.9494
   22.830    3.9670
   22.845    4.5638
   22.860    4.5638
   22.875    5.1957
   22.890    5.5819
   22.905    5.5819
   22.920    5.5117
   22.935    5.1606
   22.950    5.0202
   22.965    4.9324
   22.980    4.7393
   22.995    4.1776
   23.010    3.7564
   23.025    3.9319
   23.040    4.1250
   23.055    3.9143
   23.070    3.9670
   23.085    4.0021
   23.100    4.0021
   23.115    3.9319
   23.130    3.7564
   23.145    3.7915
   23.160    3.8617
   23.175    4.0021
   23.190    3.8792
   23.205    4.1952
   23.220    4.1250
   23.235    4.0372
   23.250    4.2654
   23.265    4.1250
   23.280    3.9143
   23.295    4.0372
   23.310    3.6335
   23.325    4.0021
   23.340    3.4229
   23.355    3.8090
   23.370    3.8792
   23.385    3.7037
   23.400    3.6335
   23.415    3.4404
   23.430    3.3351
   23.445    3.4931
   23.460    3.7564
   23.475    3.9494
   23.490    4.0899
   23.505    4.2654
   23.520    3.8968
   23.535    3.8792
   23.550    4.0372
   23.565    3.9670
   23.580    4.0899
   23.595    4.1952
   23.610    3.8441
   23.625    3.5808
   23.640    3.7739
   23.655    3.7388
   23.670    3.3175
   23.685    3.6510
   23.700    3.7213
   23.715    3.8441
   23.730    3.1771
   23.745    3.3000
   23.760    3.4931
   23.775    3.6159
   23.790    3.6159
   23.805    3.6862
   23.820    3.5457
   23.835    3.6159
   23.850    3.4931
   23.865    3.9670
   23.880    3.7564
   23.895    3.9143
   23.910    3.9319
   23.925    3.8968
   23.940    4.3005
   23.955    4.0899
   23.970    4.3181
   23.985    3.6686
   24.000    3.4580
   24.015    3.5984
   24.030    3.5808
   24.045    3.7739
   24.060    3.3877
   24.075    3.4580
   24.090    3.7388
   24.105    3.5633
   24.120    3.5457
   24.135    3.5808
   24.150    3.6335
   24.165    3.3702
   24.180    3.7564
   24.195    3.5808
   24.210    3.7037
   24.225    3.7564
   24.240    3.3351
   24.255    3.3175
   24.270    3.6335
   24.285    3.4053
   24.300    3.1245
   24.315    3.0718
   24.330    3.1947
   24.345    3.1245
   24.360    3.7564
   24.375    3.7739
   24.390    3.7388
   24.405    3.8266
   24.420    3.8090
   24.435    3.6510
   24.450    3.2649
   24.465    3.2649
   24.480    3.0191
   24.495    3.5106
   24.510    3.5457
   24.525    3.7388
   24.540    3.5457
   24.555    4.1776
   24.570    3.7564
   24.585    4.0548
   24.600    3.9319
   24.615    3.7037
   24.630    3.1771
   24.645    3.5282
   24.660    3.7564
   24.675    3.2298
   24.690    3.0893
   24.705    3.3702
   24.720    3.5808
   24.735    3.3877
   24.750    3.6510
   24.765    3.8090
   24.780    3.6159
   24.795    3.7037
   24.810    3.3702
   24.825    3.2473
   24.840    3.9670
   24.855    3.8090
   24.870    3.6686
   24.885    3.8617
   24.900    3.6510
   24.915    3.9143
   24.930    3.5633
   24.945    3.6686
   24.960    3.5808
   24.975    3.4755
   24.990    3.2649
   25.005    3.3877
   25.020    3.2473
   25.035    3.8090
   25.050    3.4580
   25.065    3.3702
   25.080    3.2649
   25.095    3.3877
   25.110    2.9840
   25.125    3.1947
   25.140    3.8968
   25.155    3.5106
   25.170    3.8090
   25.185    3.8792
   25.200    3.4580
   25.215    3.5282
   25.230    3.5106
   25.245    3.6159
   25.260    3.7213
   25.275    3.6159
   25.290    3.9494
   25.305    3.5282
   25.320    3.3351
   25.335    3.3000
   25.350    3.5808
   25.365    3.4580
   25.380    3.5282
   25.395    3.0542
   25.410    3.4053
   25.425    3.7037
   25.440    3.6510
   25.455    3.7037
   25.470    4.2127
   25.485    4.1250
   25.500    3.7564
   25.515    3.6335
   25.530    4.0372
   25.545    3.7037
   25.560    3.3702
   25.575    3.5282
   25.590    3.5633
   25.605    3.3877
   25.620    3.6862
   25.635    3.1947
   25.650    3.6510
   25.665    3.2298
   25.680    3.3175
   25.695    3.0893
   25.710    3.6335
   25.725    3.6159
   25.740    3.5633
   25.755    3.3877
   25.770    4.1776
   25.785    4.1776
   25.800    4.5287
   25.815    4.9324
   25.830    4.8622
   25.845    4.5463
   25.860    4.3181
   25.875    4.2830
   25.890    3.9846
   25.905    3.5808
   25.920    3.4931
   25.935    3.7564
   25.950    3.7037
   25.965    3.3351
   25.980    3.5457
   25.995    3.4931
   26.010    3.5457
   26.025    3.6159
   26.040    3.3702
   26.055    3.3351
   26.070    3.5633
   26.085    3.4404
   26.100    3.4755
   26.115    3.5457
   26.130    3.5106
   26.145    3.5282
   26.160    3.6862
   26.175    3.2649
   26.190    3.5106
   26.205    3.1245
   26.220    3.1420
   26.235    3.2122
   26.250    3.3175
   26.265    3.3000
   26.280    3.3000
   26.295    3.3000
   26.310    3.5808
   26.325    3.5633
   26.340    3.5457
   26.355    3.3000
   26.370    3.4404
   26.385    3.6159
   26.400    4.0021
   26.415    3.7388
   26.430    3.4229
   26.445    3.1771
   26.460    3.6686
   26.475    3.7915
   26.490    3.4229
   26.505    3.8090
   26.520    3.3000
   26.535    3.3000
   26.550    3.4931
   26.565    3.6159
   26.580    3.4053
   26.595    3.3702
   26.610    3.5106
   26.625    3.0718
   26.640    3.0893
   26.655    3.2473
   26.670    3.2649
   26.685    3.0893
   26.700    3.1245
   26.715    3.4404
   26.730    3.3526
   26.745    3.3351
   26.760    3.3702
   26.775    3.1947
   26.790    3.3000
   26.805    3.3877
   26.820    3.5282
   26.835    3.3000
   26.850    3.0718
   26.865    3.1420
   26.880    3.1420
   26.895    3.1245
   26.910    3.4404
   26.925    3.2649
   26.940    3.5282
   26.955    3.4404
   26.970    3.2473
   26.985    3.3175
   27.000    3.8266
   27.015    4.0197
   27.030    4.0548
   27.045    4.0723
   27.060    3.7739
   27.075    3.7915
   27.090    3.2122
   27.105    3.2824
   27.120    3.0016
   27.135    2.9489
   27.150    3.1245
   27.165    3.3526
   27.180    3.1771
   27.195    2.7558
   27.210    3.1069
   27.225    2.9489
   27.240    3.0191
   27.255    3.2473
   27.270    3.3526
   27.285    2.8787
   27.300    2.8436
   27.315    3.4229
   27.330    3.2122
   27.345    3.1947
   27.360    3.0367
   27.375    3.4931
   27.390    2.9489
   27.405    3.1771
   27.420    3.0893
   27.435    2.9489
   27.450    3.2298
   27.465    3.3000
   27.480    3.3877
   27.495    3.2298
   27.510    2.8260
   27.525    3.3526
   27.540    3.2473
   27.555    3.4229
   27.570    3.8266
   27.585    3.5633
   27.600    3.6862
   27.615    3.4931
   27.630    3.5106
   27.645    3.1596
   27.660    3.0893
   27.675    3.3175
   27.690    3.1420
   27.705    3.2473
   27.720    3.1947
   27.735    3.2122
   27.750    3.0367
   27.765    3.1771
   27.780    3.2473
   27.795    3.1069
   27.810    2.8436
   27.825    3.0367
   27.840    3.2473
   27.855    3.2122
   27.870    3.5633
   27.885    3.2298
   27.900    3.3000
   27.915    3.2649
   27.930    3.2473
   27.945    3.3000
   27.960    3.0718
   27.975    3.1245
   27.990    3.0893
   28.005    3.2122
   28.020    3.0016
   28.035    2.9665
   28.050    2.5276
   28.065    3.2824
   28.080    2.9665
   28.095    2.9489
   28.110    3.2122
   28.125    3.3351
   28.140    3.3877
   28.155    3.7564
   28.170    3.5457
   28.185    3.3000
   28.200    3.8968
   28.215    3.8090
   28.230    3.3351
   28.245    3.2122
   28.260    2.9489
   28.275    3.2122
   28.290    2.7734
   28.305    2.7207
   28.320    2.9314
   28.335    2.7558
   28.350    2.8612
   28.365    3.0893
   28.380    3.2473
   28.395    3.1069
   28.410    2.8963
   28.425    3.0367
   28.440    3.1947
   28.455    3.6510
   28.470    3.5808
   28.485    3.7213
   28.500    3.3526
   28.515    3.0542
   28.530    3.1245
   28.545    3.2298
   28.560    2.6154
   28.575    2.5628
   28.590    2.8963
   28.605    3.0718
   28.620    3.2473
   28.635    3.3000
   28.650    3.4053
   28.665    3.0718
   28.680    3.0542
   28.695    3.0191
   28.710    3.0016
   28.725    2.7734
   28.740    3.0016
   28.755    3.0367
   28.770    3.1771
   28.785    3.0718
   28.800    3.3175
   28.815    3.0542
   28.830    3.0367
   28.845    2.7558
   28.860    2.9840
   28.875    3.3877
   28.890    2.7032
   28.905    3.1245
   28.920    3.2473
   28.935    3.0191
   28.950    3.0367
   28.965    2.8963
   28.980    3.1596
   28.995    3.3877
   29.010    3.2649
   29.025    3.4229
   29.040    3.6510
   29.055    3.2122
   29.070    3.1947
   29.085    3.1947
   29.100    3.3526
   29.115    3.1420
   29.130    3.0191
   29.145    3.1420
   29.160    3.3526
   29.175    3.3000
   29.190    3.4404
   29.205    3.6335
   29.220    3.2122
   29.235    3.0542
   29.250    3.1596
   29.265    3.0718
   29.280    3.4755
   29.295    3.8266
   29.310    3.3351
   29.325    3.3000
   29.340    3.1771
   29.355    2.9840
   29.370    2.6856
   29.385    2.8612
   29.400    2.8436
   29.415    3.2824
   29.430    2.9138
   29.445    2.7032
   29.460    2.9840
   29.475    3.0016
   29.490    2.8963
   29.505    2.3697
   29.520    2.5803
   29.535    2.5452
   29.550    2.6154
   29.565    2.6856
   29.580    2.5803
   29.595    2.7734
   29.610    2.6505
   29.625    2.7558
   29.640    2.5276
   29.655    2.7734
   29.670    2.8260
   29.685    2.7032
   29.700    2.9489
   29.715    2.5979
   29.730    2.7207
   29.745    2.7558
   29.760    2.8085
   29.775    2.8436
   29.790    2.9314
   29.805    3.1947
   29.820    2.9314
   29.835    3.0893
   29.850    3.3175
   29.865    3.1069
   29.880    2.7909
   29.895    2.8436
   29.910    2.9138
   29.925    2.8436
   29.940    2.7383
   29.955    2.6154
   29.970    2.9314
   29.985    2.8436
   30.000    2.8436
   30.015    2.4574
   30.030    2.9665
   30.045    3.1069
   30.060    2.8436
   30.075    2.5628
   30.090    2.8085
   30.105    2.8085
   30.120    2.5979
   30.135    2.8963
   30.150    2.9840
   30.165    2.6856
   30.180    2.7032
   30.195    3.0367
   30.210    2.9665
   30.225    3.1420
   30.240    2.6856
   30.255    2.5452
   30.270    2.6856
   30.285    2.7558
   30.300    2.8436
   30.315    2.7032
   30.330    2.2995
   30.345    2.9138
   30.360    3.1947
   30.375    2.5628
   30.390    2.7207
   30.405    2.7207
   30.420    2.7909
   30.435    2.7734
   30.450    2.7032
   30.465    2.6681
   30.480    2.7558
   30.495    2.7383
   30.510    3.0367
   30.525    2.5628
   30.540    2.7032
   30.555    2.5276
   30.570    2.5101
   30.585    2.4574
   30.600    2.7909
   30.615    2.9138
   30.630    2.7383
   30.645    2.9840
   30.660    2.5803
   30.675    2.7207
   30.690    2.6505
   30.705    2.7558
   30.720    2.5276
   30.735    2.5101
   30.750    2.8787
   30.765    2.5276
   30.780    2.3521
   30.795    2.4048
   30.810    2.8260
   30.825    2.7734
   30.840    2.6505
   30.855    2.6154
   30.870    2.7734
   30.885    2.7383
   30.900    2.5628
   30.915    2.3346
   30.930    2.4925
   30.945    2.8612
   30.960    2.6681
   30.975    2.5803
   30.990    2.3872
   31.005    2.7383
   31.020    2.4399
   31.035    2.3697
   31.050    2.4750
   31.065    2.4048
   31.080    2.7383
   31.095    2.5276
   31.110    2.5803
   31.125    2.9138
   31.140    2.9489
   31.155    2.5452
   31.170    2.6154
   31.185    2.8085
   31.200    2.5803
   31.215    2.4399
   31.230    2.2117
   31.245    2.2643
   31.260    2.7734
   31.275    2.7032
   31.290    2.4925
   31.305    2.3697
   31.320    2.7734
   31.335    2.5276
   31.350    2.7207
   31.365    2.6330
   31.380    2.6856
   31.395    2.9489
   31.410    2.9665
   31.425    3.0016
   31.440    3.1947
   31.455    2.8436
   31.470    2.6330
   31.485    2.6154
   31.500    2.8260
   31.515    2.6505
   31.530    2.4925
   31.545    2.7909
   31.560    2.7207
   31.575    2.6505
   31.590    2.4925
   31.605    2.7734
   31.620    2.5276
   31.635    2.2292
   31.650    2.6505
   31.665    2.8085
   31.680    2.7032
   31.695    2.8260
   31.710    2.9489
   31.725    3.0542
   31.740    3.0191
   31.755    3.3175
   31.770    3.3000
   31.785    3.0542
   31.800    3.0718
   31.815    3.3526
   31.830    3.3702
   31.845    2.5452
   31.860    2.8612
   31.875    2.8260
   31.890    2.6330
   31.905    2.4574
   31.920    2.6856
   31.935    2.5803
   31.950    2.2468
   31.965    2.5276
   31.980    2.5452
   31.995    2.6856
   32.010    2.7207
   32.025    2.7734
   32.040    2.5101
   32.055    2.4223
   32.070    2.4399
   32.085    2.6856
   32.100    2.5979
   32.115    2.4223
   32.130    2.7383
   32.145    2.7734
   32.160    2.6330
   32.175    2.6681
   32.190    2.6154
   32.205    2.4048
   32.220    2.3170
   32.235    2.3872
   32.250    2.5803
   32.265    2.1941
   32.280    2.0186
   32.295    2.2643
   32.310    2.5803
   32.325    2.6154
   32.340    2.6856
   32.355    2.4048
   32.370    2.2292
   32.385    2.5452
   32.400    2.6154
   32.415    2.4925
   32.430    2.5101
   32.445    2.1941
   32.460    2.6505
   32.475    2.4925
   32.490    2.3872
   32.505    2.3521
   32.520    2.3872
   32.535    2.4574
   32.550    2.6505
   32.565    2.3170
   32.580    2.5628
   32.595    2.4399
   32.610    2.2117
   32.625    2.4223
   32.640    2.6330
   32.655    2.5803
   32.670    2.2995
   32.685    2.3872
   32.700    2.6505
   32.715    2.5803
   32.730    2.8436
   32.745    2.3697
   32.760    2.2292
   32.775    2.4223
   32.790    2.5979
   32.805    2.4750
   32.820    2.6856
   32.835    2.6856
   32.850    2.5101
   32.865    2.5979
   32.880    2.4925
   32.895    2.8787
   32.910    2.8787
   32.925    2.7383
   32.940    2.5452
   32.955    2.6856
   32.970    2.2995
   32.985    2.5276
   33.000    2.7032
   33.015    2.2117
   33.030    2.4574
   33.045    2.4223
   33.060    2.4399
   33.075    2.3521
   33.090    2.3872
   33.105    2.3521
   33.120    2.4223
   33.135    2.6154
   33.150    2.2819
   33.165    2.1064
   33.180    2.3521
   33.195    2.0011
   33.210    2.4925
   33.225    2.2468
   33.240    2.5628
   33.255    2.4399
   33.270    2.3170
   33.285    2.4574
   33.300    2.1590
   33.315    2.1766
   33.330    2.2292
   33.345    2.4223
   33.360    2.1590
   33.375    2.2819
   33.390    2.3872
   33.405    2.4399
   33.420    2.2292
   33.435    2.5101
   33.450    2.4925
   33.465    2.1239
   33.480    2.3346
   33.495    2.5101
   33.510    2.4048
   33.525    2.3872
   33.540    2.3346
   33.555    2.6330
   33.570    2.4048
   33.585    2.3872
   33.600    2.5628
   33.615    2.4048
   33.630    2.4399
   33.645    2.4223
   33.660    2.5276
   33.675    2.5628
   33.690    2.4574
   33.705    2.3872
   33.720    2.3170
   33.735    2.3170
   33.750    2.4399
   33.765    2.3521
   33.780    2.2819
   33.795    2.3346
   33.810    2.4750
   33.825    2.7207
   33.840    3.1596
   33.855    2.7734
   33.870    2.7032
   33.885    2.8085
   33.900    2.7734
   33.915    2.7734
   33.930    2.6154
   33.945    2.8085
   33.960    2.6681
   33.975    2.4925
   33.990    2.5276
   34.005    2.4223
   34.020    2.5803
   34.035    2.4750
   34.050    2.5628
   34.065    2.2468
   34.080    2.3346
   34.095    2.2819
   34.110    2.4048
   34.125    2.4399
   34.140    2.4750
   34.155    2.4750
   34.170    2.2995
   34.185    2.4048
   34.200    2.4925
   34.215    2.2819
   34.230    2.2995
   34.245    2.2468
   34.260    2.2995
   34.275    2.4750
   34.290    2.4925
   34.305    2.5276
   34.320    2.3346
   34.335    2.5276
   34.350    2.3521
   34.365    2.3170
   34.380    2.5101
   34.395    2.2819
   34.410    2.0888
   34.425    2.2117
   34.440    2.2643
   34.455    2.3697
   34.470    2.4750
   34.485    2.2643
   34.500    1.9835
   34.515    2.0888
   34.530    2.4223
   34.545    2.4750
   34.560    2.3521
   34.575    2.2819
   34.590    2.4574
   34.605    2.1590
   34.620    2.4223
   34.635    2.8436
   34.650    2.4048
   34.665    2.0186
   34.680    2.2995
   34.695    2.1415
   34.710    2.0362
   34.725    2.0011
   34.740    2.0713
   34.755    2.3697
   34.770    2.3872
   34.785    2.5628
   34.800    2.5452
   34.815    2.5452
   34.830    2.3170
   34.845    2.1590
   34.860    2.2643
   34.875    2.2117
   34.890    2.3170
   34.905    2.4048
   34.920    2.0186
   34.935    2.2292
   34.950    2.4925
   34.965    2.1239
   34.980    1.8431
   34.995    2.0888
   35.010    2.1941
   35.025    2.1766
   35.040    2.1766
   35.055    2.3521
   35.070    2.5276
   35.085    2.1064
   35.100    1.9308
   35.115    2.2117
   35.130    2.2468
   35.145    2.0186
   35.160    1.9659
   35.175    2.1239
   35.190    2.5101
   35.205    2.5979
   35.220    2.7383
   35.235    2.3697
   35.250    2.4925
   35.265    2.5101
   35.280    2.1590
   35.295    2.1064
   35.310    2.1941
   35.325    2.7207
   35.340    2.3697
   35.355    1.9484
   35.370    2.3521
   35.385    2.2995
   35.400    2.3697
   35.415    2.2292
   35.430    2.1239
   35.445    2.3346
   35.460    2.3521
   35.475    1.9835
   35.490    2.0713
   35.505    2.1766
   35.520    2.0186
   35.535    2.1239
   35.550    2.1239
   35.565    2.1064
   35.580    2.2468
   35.595    2.4750
   35.610    2.0713
   35.625    2.2995
   35.640    2.1941
   35.655    2.1415
   35.670    2.1941
   35.685    2.1239
   35.700    2.3872
   35.715    1.9133
   35.730    2.2292
   35.745    2.4750
   35.760    2.6330
   35.775    2.5979
   35.790    2.1590
   35.805    2.0011
   35.820    1.8782
   35.835    1.7729
   35.850    2.0362
   35.865    2.2117
   35.880    2.0011
   35.895    2.1415
   35.910    2.4223
   35.925    2.2468
   35.940    2.2643
   35.955    2.2995
   35.970    2.1064
   35.985    2.0362
   36.000    2.1239
   36.015    2.4750
   36.030    2.1590
   36.045    2.0186
   36.060    2.2117
   36.075    1.9835
   36.090    2.3872
   36.105    2.1766
   36.120    2.4048
   36.135    2.2292
   36.150    2.4574
   36.165    2.6330
   36.180    2.4750
   36.195    2.3697
   36.210    2.4399
   36.225    2.4223
   36.240    2.3697
   36.255    2.1239
   36.270    2.2117
   36.285    2.4925
   36.300    2.1941
   36.315    2.0537
   36.330    2.2819
   36.345    2.1766
   36.360    2.2643
   36.375    2.1415
   36.390    2.0713
   36.405    2.3521
   36.420    2.4750
   36.435    2.2995
   36.450    2.3872
   36.465    2.4574
   36.480    2.2995
   36.495    2.4048
   36.510    2.2117
   36.525    2.3872
   36.540    2.2819
   36.555    2.6856
   36.570    2.3521
   36.585    2.4574
   36.600    2.1239
   36.615    2.0186
   36.630    2.1415
   36.645    2.6330
   36.660    2.4223
   36.675    2.3521
   36.690    2.3346
   36.705    2.1590
   36.720    2.2117
   36.735    2.1941
   36.750    2.2468
   36.765    2.3346
   36.780    1.9835
   36.795    2.3872
   36.810    2.4925
   36.825    2.2643
   36.840    2.1415
   36.855    2.1415
   36.870    2.3697
   36.885    2.3872
   36.900    1.9659
   36.915    2.3346
   36.930    2.1590
   36.945    2.0713
   36.960    2.0537
   36.975    2.1239
   36.990    2.4750
   37.005    2.4223
   37.020    2.4223
   37.035    2.2643
   37.050    2.2468
   37.065    2.3697
   37.080    2.5803
   37.095    2.6505
   37.110    2.4399
   37.125    2.5803
   37.140    2.3346
   37.155    2.3170
   37.170    2.1239
   37.185    2.5628
   37.200    2.0713
   37.215    2.1064
   37.230    1.9659
   37.245    2.2292
   37.260    2.1941
   37.275    2.2117
   37.290    2.1064
   37.305    2.1239
   37.320    2.3697
   37.335    2.1941
   37.350    2.2643
   37.365    2.2995
   37.380    2.2643
   37.395    2.0713
   37.410    2.2292
   37.425    2.3697
   37.440    2.0537
   37.455    2.0186
   37.470    2.0186
   37.485    2.3170
   37.500    2.2995
   37.515    2.0888
   37.530    2.2819
   37.545    2.2819
   37.560    2.6154
   37.575    2.2292
   37.590    2.0888
   37.605    2.3170
   37.620    2.2117
   37.635    2.4048
   37.650    2.3521
   37.665    2.3872
   37.680    2.0888
   37.695    2.2995
   37.710    2.5101
   37.725    2.5452
   37.740    2.3697
   37.755    2.4750
   37.770    2.7207
   37.785    2.2995
   37.800    2.1941
   37.815    2.3697
   37.830    2.2819
   37.845    2.2468
   37.860    2.0888
   37.875    2.4399
   37.890    2.3170
   37.905    2.4925
   37.920    2.0362
   37.935    2.3521
   37.950    2.5803
   37.965    2.3521
   37.980    2.4574
   37.995    2.0011
   38.010    2.4399
   38.025    2.2819
   38.040    2.3872
   38.055    2.3872
   38.070    2.3521
   38.085    2.1766
   38.100    2.1941
   38.115    2.2643
   38.130    2.0011
   38.145    2.1415
   38.160    2.0537
   38.175    2.0186
   38.190    2.4574
   38.205    2.2643
   38.220    2.2292
   38.235    2.3872
   38.250    2.3521
   38.265    2.3346
   38.280    2.3170
   38.295    2.4048
   38.310    2.1766
   38.325    2.0011
   38.340    2.0713
   38.355    2.0362
   38.370    2.2292
   38.385    2.2292
   38.400    2.3346
   38.415    2.0888
   38.430    1.8255
   38.445    1.9133
   38.460    2.0186
   38.475    2.4399
   38.490    2.0888
   38.505    1.8782
   38.520    2.0888
   38.535    2.0186
   38.550    2.0713
   38.565    2.3170
   38.580    2.1415
   38.595    2.0011
   38.610    2.1064
   38.625    2.2468
   38.640    2.2643
   38.655    2.1941
   38.670    2.2117
   38.685    2.0537
   38.700    1.9133
   38.715    2.3170
   38.730    2.1239
   38.745    1.8606
   38.760    2.0186
   38.775    1.9659
   38.790    2.0888
   38.805    2.1941
   38.820    2.4048
   38.835    2.1415
   38.850    2.1415
   38.865    2.2643
   38.880    2.0537
   38.895    2.2117
   38.910    1.9308
   38.925    1.9133
   38.940    2.0713
   38.955    2.0713
   38.970    2.0713
   38.985    1.9308
   39.000    1.8957
   39.015    2.0362
   39.030    2.1415
   39.045    2.1064
   39.060    2.0537
   39.075    2.0888
   39.090    2.1415
   39.105    2.0888
   39.120    2.1590
   39.135    2.2292
   39.150    2.2643
   39.165    2.1064
   39.180    2.1239
   39.195    2.3872
   39.210    2.2643
   39.225    2.0888
   39.240    2.1590
   39.255    1.8957
   39.270    2.0362
   39.285    1.9308
   39.300    2.0186
   39.315    1.9308
   39.330    2.3170
   39.345    2.1766
   39.360    2.1590
   39.375    2.3697
   39.390    2.0537
   39.405    2.0713
   39.420    2.2995
   39.435    2.1941
   39.450    2.1941
   39.465    2.1590
   39.480    2.1590
   39.495    1.9308
   39.510    2.2117
   39.525    2.0186
   39.540    2.1415
   39.555    1.9484
   39.570    1.8957
   39.585    1.9484
   39.600    2.1239
   39.615    2.3346
   39.630    2.0186
   39.645    2.2995
   39.660    2.2117
   39.675    2.2819
   39.690    2.1766
   39.705    2.2643
   39.720    2.0537
   39.735    2.2292
   39.750    2.1239
   39.765    2.0186
   39.780    2.0186
   39.795    2.1590
   39.810    1.9484
   39.825    2.0362
   39.840    2.1239
   39.855    2.2117
   39.870    2.1064
   39.885    2.0537
   39.900    2.0537
   39.915    1.8606
   39.930    1.7553
   39.945    2.0186
   39.960    2.1064
   39.975    2.1590
   39.990    1.9133
