    1.500   14.7973
    1.515   14.7657
    1.530   14.8183
    1.545   14.5550
    1.560   14.4497
    1.575   13.8494
    1.590   13.2807
    1.605   13.0174
    1.620   12.6277
    1.635   12.7857
    1.650   12.6066
    1.665   12.1116
    1.680   11.8905
    1.695   11.4165
    1.710   11.4692
    1.725   10.9742
    1.740   10.6056
    1.755   10.8057
    1.770    9.9842
    1.785   10.1843
    1.800   10.0369
    1.815   10.2896
    1.830    9.6893
    1.845    9.6156
    1.860    9.4892
    1.875    9.4365
    1.890    9.3102
    1.905    9.3523
    1.920    8.8046
    1.935    9.2575
    1.950    8.3202
    1.965    8.6256
    1.980    8.2675
    1.995    7.8252
    2.010    7.9516
    2.025    8.1201
    2.040    7.8252
    2.055    8.1938
    2.070    8.0253
    2.085    7.6883
    2.100    7.6251
    2.115    7.6145
    2.130    7.4776
    2.145    7.0248
    2.160    6.9932
    2.175    7.0563
    2.190    6.8141
    2.205    6.6351
    2.220    6.7509
    2.235    6.5508
    2.250    6.3612
    2.265    6.8984
    2.280    6.5929
    2.295    6.2665
    2.310    6.2770
    2.325    6.7299
    2.340    6.7615
    2.355    6.4244
    2.370    6.5298
    2.385    6.2243
    2.400    6.1822
    2.415    5.7715
    2.430    5.7820
    2.445    5.9926
    2.460    5.6767
    2.475    5.8452
    2.490    5.8557
    2.505    5.8662
    2.520    5.6977
    2.535    5.5714
    2.550    5.5819
    2.565    5.3923
    2.580    5.2554
    2.595    5.5924
    2.610    5.7715
    2.625    5.8347
    2.640    5.5924
    2.655    5.3397
    2.670    5.4766
    2.685    5.4555
    2.700    5.4766
    2.715    5.3607
    2.730    5.3712
    2.745    5.3818
    2.760    5.0764
    2.775    5.1922
    2.790    5.4871
    2.805    5.2554
    2.820    5.2449
    2.835    5.2554
    2.850    5.4239
    2.865    5.0974
    2.880    5.2027
    2.895    5.3818
    2.910    5.3923
    2.925    5.0974
    2.940    5.2975
    2.955    5.2238
    2.970    5.3712
    2.985    5.1185
    3.000    5.3186
    3.015    5.2554
    3.030    5.0764
    3.045    4.8447
    3.060    5.0658
    3.075    5.3923
    3.090    5.2449
    3.105    5.1185
    3.120    5.0658
    3.135    5.4555
    3.150    5.7083
    3.165    5.5398
    3.180    5.6661
    3.195    5.7504
    3.210    5.3186
    3.225    5.5292
    3.240    5.6135
    3.255    5.1290
    3.270    5.4976
    3.285    5.6345
    3.300    5.6767
    3.315    5.5082
    3.330    5.4871
    3.345    5.6767
    3.360    5.6767
    3.375    5.5503
    3.390    6.1822
    3.405    6.1085
    3.420    6.1190
    3.435    5.9084
    3.450    5.6556
    3.465    6.0453
    3.480    5.8768
    3.495    5.8873
    3.510    6.2770
    3.525    6.3928
    3.540    6.2243
    3.555    6.2665
    3.570    6.5719
    3.585    6.1401
    3.600    6.2981
    3.615    6.1401
    3.630    6.2770
    3.645    6.2033
    3.660    6.2243
    3.675    5.8452
    3.690    5.9716
    3.705    5.7925
    3.720    6.0453
    3.735    5.6872
    3.750    5.4344
    3.765    5.4344
    3.780    5.3607
    3.795    5.5819
    3.810    5.4976
    3.825    5.5924
    3.840    5.2554
    3.855    5.0658
    3.870    4.9921
    3.885    5.0553
    3.900    5.3502
    3.915    4.9289
    3.930    5.0237
    3.945    4.8447
    3.960    5.1185
    3.975    4.7709
    3.990    4.7077
    4.005    4.4971
    4.020    4.9184
    4.035    4.5392
    4.050    4.9289
    4.065    4.8447
    4.080    4.6972
    4.095    4.7183
    4.110    4.7499
    4.125    4.8131
    4.140    4.5392
    4.155    4.5814
    4.170    4.5182
    4.185    4.3497
    4.200    4.5603
    4.215    4.5498
    4.230    4.5919
    4.245    4.3813
    4.260    4.7709
    4.275    4.5814
    4.290    4.3813
    4.305    4.4023
    4.320    4.3602
    4.335    4.3497
    4.350    4.4444
    4.365    4.0758
    4.380    4.0442
    4.395    4.1601
    4.410    4.5919
    4.425    4.3181
    4.440    4.4444
    4.455    4.3918
    4.470    4.6235
    4.485    4.4971
    4.500    4.6445
    4.515    4.2654
    4.530    4.2970
    4.545    4.3918
    4.560    4.2233
    4.575    4.0021
    4.590    3.9179
    4.605    4.1706
    4.620    4.1706
    4.635    4.2127
    4.650    4.4866
    4.665    4.4866
    4.680    4.3391
    4.695    4.3497
    4.710    4.2654
    4.725    4.1180
    4.740    3.8968
    4.755    3.9284
    4.770    4.1074
    4.785    4.0337
    4.800    4.0758
    4.815    4.1390
    4.830    4.1390
    4.845    4.0758
    4.860    4.3181
    4.875    4.3075
    4.890    4.3391
    4.905    4.2549
    4.920    3.9600
    4.935    4.1390
    4.950    4.2127
    4.965    4.4128
    4.980    4.4866
    4.995    4.1390
    5.010    4.1917
    5.025    4.3707
    5.040    4.0126
    5.055    3.9916
    5.070    4.2865
    5.085    4.2127
    5.100    4.0969
    5.115    4.0021
    5.130    4.2022
    5.145    4.3286
    5.160    4.0548
    5.175    3.9705
    5.190    4.1601
    5.205    3.8336
    5.220    4.2338
    5.235    4.0864
    5.250    4.2759
    5.265    4.4866
    5.280    4.1601
    5.295    3.8441
    5.310    4.4760
    5.325    4.1180
    5.340    4.0442
    5.355    4.0232
    5.370    4.4655
    5.385    4.1917
    5.400    4.1706
    5.415    4.4128
    5.430    4.0021
    5.445    4.4444
    5.460    4.3813
    5.475    4.4234
    5.490    4.0758
    5.505    3.7599
    5.520    3.9916
    5.535    4.1706
    5.550    4.1601
    5.565    4.3707
    5.580    4.2654
    5.595    4.2549
    5.610    4.2338
    5.625    4.2127
    5.640    4.2022
    5.655    3.9389
    5.670    3.9810
    5.685    4.1601
    5.700    4.0758
    5.715    4.0969
    5.730    4.0548
    5.745    3.9389
    5.760    3.8968
    5.775    4.0864
    5.790    4.0442
    5.805    4.0232
    5.820    3.7493
    5.835    3.6967
    5.850    3.9179
    5.865    3.9179
    5.880    3.8968
    5.895    3.8441
    5.910    4.1390
    5.925    3.7809
    5.940    3.8336
    5.955    4.0126
    5.970    4.1390
    5.985    3.8547
    6.000    4.0653
    6.015    3.8968
    6.030    3.7388
    6.045    4.2759
    6.060    4.2338
    6.075    4.0653
    6.090    4.1074
    6.105    3.9600
    6.120    3.7072
    6.135    4.0548
    6.150    4.3181
    6.165    4.1180
    6.180    4.1180
    6.195    3.9600
    6.210    4.0337
    6.225    4.0653
    6.240    3.9810
    6.255    3.7283
    6.270    3.8020
    6.285    3.9916
    6.300    3.7493
    6.315    3.8757
    6.330    3.8231
    6.345    4.0653
    6.360    3.8441
    6.375    4.0337
    6.390    3.9810
    6.405    3.8231
    6.420    3.8125
    6.435    3.8336
    6.450    4.3181
    6.465    3.8863
    6.480    4.1074
    6.495    3.8231
    6.510    4.0232
    6.525    3.8968
    6.540    3.9073
    6.555    3.8757
    6.570    3.9073
    6.585    3.9600
    6.600    4.3391
    6.615    4.0442
    6.630    3.7704
    6.645    4.1601
    6.660    4.2654
    6.675    3.8231
    6.690    3.7493
    6.705    3.9284
    6.720    4.0548
    6.735    4.2970
    6.750    4.4234
    6.765    4.4339
    6.780    4.4760
    6.795    4.0758
    6.810    4.4866
    6.825    4.2970
    6.840    4.5708
    6.855    4.4128
    6.870    4.5498
    6.885    4.5708
    6.900    4.6024
    6.915    4.6235
    6.930    4.3181
    6.945    4.5498
    6.960    4.5708
    6.975    4.8552
    6.990    4.7604
    7.005    4.8025
    7.020    4.6867
    7.035    4.8236
    7.050    4.5708
    7.065    4.6761
    7.080    4.7920
    7.095    4.9710
    7.110    5.0448
    7.125    4.7499
    7.140    4.8868
    7.155    4.9605
    7.170    4.7077
    7.185    4.7709
    7.200    5.0553
    7.215    5.2027
    7.230    4.9500
    7.245    5.0132
    7.260    5.5503
    7.275    5.2975
    7.290    5.0658
    7.305    5.4766
    7.320    5.3291
    7.335    5.0764
    7.350    5.3397
    7.365    5.3186
    7.380    5.0553
    7.395    4.8552
    7.410    5.0448
    7.425    5.1817
    7.440    5.4028
    7.455    5.4344
    7.470    5.1080
    7.485    4.9921
    7.500    5.4976
    7.515    5.2554
    7.530    4.8131
    7.545    5.0869
    7.560    5.0342
    7.575    5.1606
    7.590    5.0026
    7.605    5.3397
    7.620    5.2027
    7.635    5.1080
    7.650    4.9289
    7.665    5.1395
    7.680    5.0764
    7.695    4.9078
    7.710    4.8341
    7.725    4.9078
    7.740    4.7288
    7.755    4.9289
    7.770    4.9078
    7.785    4.3813
    7.800    4.4128
    7.815    4.5498
    7.830    4.6551
    7.845    4.4866
    7.860    4.4971
    7.875    4.5287
    7.890    4.4760
    7.905    4.3181
    7.920    4.2549
    7.935    4.5392
    7.950    4.4655
    7.965    4.2865
    7.980    4.3918
    7.995    4.1811
    8.010    3.9600
    8.025    4.2865
    8.040    4.4128
    8.055    4.3181
    8.070    4.5498
    8.085    4.0864
    8.100    3.9073
    8.115    3.9284
    8.130    3.6335
    8.145    3.7177
    8.160    4.1601
    8.175    3.8020
    8.190    4.0864
    8.205    3.8863
    8.220    3.8757
    8.235    3.7072
    8.250    3.3386
    8.265    4.0548
    8.280    3.7809
    8.295    3.6967
    8.310    4.0021
    8.325    3.9389
    8.340    3.5598
    8.355    3.7704
    8.370    3.6546
    8.385    3.7493
    8.400    3.5176
    8.415    3.4123
    8.430    3.2438
    8.445    3.4966
    8.460    3.2649
    8.475    3.5387
    8.490    3.4650
    8.505    3.6019
    8.520    3.5176
    8.535    3.3070
    8.550    3.3913
    8.565    3.6124
    8.580    3.5176
    8.595    3.6440
    8.610    3.4334
    8.625    3.2543
    8.640    3.0437
    8.655    3.3597
    8.670    3.5282
    8.685    3.4334
    8.700    3.2227
    8.715    3.3175
    8.730    3.3702
    8.745    3.4439
    8.760    3.2438
    8.775    3.6124
    8.790    3.4860
    8.805    3.3597
    8.820    3.2965
    8.835    3.6862
    8.850    3.4755
    8.865    3.3386
    8.880    3.4229
    8.895    3.5598
    8.910    3.5492
    8.925    3.3175
    8.940    3.3386
    8.955    3.6019
    8.970    3.7177
    8.985    3.5282
    9.000    3.6230
    9.015    3.4123
    9.030    3.4123
    9.045    3.5808
    9.060    3.3070
    9.075    3.4544
    9.090    3.6440
    9.105    3.4018
    9.120    3.2543
    9.135    3.2754
    9.150    3.2227
    9.165    3.3913
    9.180    3.2649
    9.195    3.2017
    9.210    3.2122
    9.225    3.1596
    9.240    3.3175
    9.255    3.7177
    9.270    3.3491
    9.285    3.4229
    9.300    3.5176
    9.315    3.3913
    9.330    3.0858
    9.345    3.0016
    9.360    3.2754
    9.375    3.5071
    9.390    3.4755
    9.405    3.4334
    9.420    3.4334
    9.435    3.2649
    9.450    3.1280
    9.465    3.3491
    9.480    3.0121
    9.495    2.9173
    9.510    3.2333
    9.525    3.1490
    9.540    3.4334
    9.555    3.1490
    9.570    3.3597
    9.585    3.4439
    9.600    3.4650
    9.615    3.2122
    9.630    3.2333
    9.645    3.2965
    9.660    3.6230
    9.675    3.2965
    9.690    3.2754
    9.705    3.0753
    9.720    3.0121
    9.735    3.4123
    9.750    3.2649
    9.765    2.9910
    9.780    3.1596
    9.795    3.2333
    9.810    3.2543
    9.825    3.1701
    9.840    3.3281
    9.855    3.4334
    9.870    3.3070
    9.885    3.7704
    9.900    3.7493
    9.915    3.4334
    9.930    3.3281
    9.945    3.3702
    9.960    3.3175
    9.975    3.2438
    9.990    2.9700
   10.005    3.2965
   10.020    3.3913
   10.035    3.3491
   10.050    3.0964
   10.065    3.2122
   10.080    3.0226
   10.095    3.3386
   10.110    3.4334
   10.125    3.4334
   10.140    3.5914
   10.155    3.3702
   10.170    2.8963
   10.185    2.7172
   10.200    3.5071
   10.215    3.2438
   10.230    3.1912
   10.245    3.0964
   10.260    3.2227
   10.275    3.0858
   10.290    3.4860
   10.305    3.4439
   10.320    3.2017
   10.335    3.1490
   10.350    3.2333
   10.365    3.2965
   10.380    3.2333
   10.395    3.1174
   10.410    3.2333
   10.425    3.0121
   10.440    3.1174
   10.455    3.2859
   10.470    3.1701
   10.485    3.2227
   10.500    3.3070
   10.515    3.1174
   10.530    3.2438
   10.545    3.0437
   10.560    3.3386
   10.575    3.6230
   10.590    3.2754
   10.605    3.4650
   10.620    3.6124
   10.635    3.4229
   10.650    3.5492
   10.665    3.5071
   10.680    3.7493
   10.695    3.2333
   10.710    3.2017
   10.725    3.1069
   10.740    3.1174
   10.755    3.2754
   10.770    3.3913
   10.785    3.4439
   10.800    3.4966
   10.815    3.2122
   10.830    3.3281
   10.845    3.4334
   10.860    3.4544
   10.875    3.3913
   10.890    3.4755
   10.905    3.4650
   10.920    3.1596
   10.935    3.8441
   10.950    3.2965
   10.965    3.2227
   10.980    3.2754
   10.995    3.1385
   11.010    2.9279
   11.025    3.1385
   11.040    3.3807
   11.055    3.3913
   11.070    3.2859
   11.085    3.5071
   11.100    3.6862
   11.115    3.4439
   11.130    3.5071
   11.145    3.6230
   11.160    3.5387
   11.175    3.4334
   11.190    3.5703
   11.205    3.1280
   11.220    3.2122
   11.235    3.5282
   11.250    3.5282
   11.265    3.8968
   11.280    3.7915
   11.295    3.3597
   11.310    3.4860
   11.325    3.8441
   11.340    3.7072
   11.355    3.5176
   11.370    3.5703
   11.385    3.4544
   11.400    3.5282
   11.415    3.5492
   11.430    3.5071
   11.445    3.5598
   11.460    3.7809
   11.475    3.7599
   11.490    3.6756
   11.505    3.3175
   11.520    3.4018
   11.535    3.6440
   11.550    3.6124
   11.565    3.6124
   11.580    3.3597
   11.595    3.2649
   11.610    3.5071
   11.625    3.5598
   11.640    3.2649
   11.655    3.2859
   11.670    3.4439
   11.685    3.3702
   11.700    3.6651
   11.715    3.6019
   11.730    3.4544
   11.745    3.2543
   11.760    3.5703
   11.775    3.4755
   11.790    3.3491
   11.805    3.4860
   11.820    3.2017
   11.835    3.2438
   11.850    3.4439
   11.865    3.4334
   11.880    3.4860
   11.895    3.2859
   11.910    3.2438
   11.925    3.1806
   11.940    3.1701
   11.955    3.1912
   11.970    2.9700
   11.985    3.3070
   12.000    3.4544
   12.015    3.3491
   12.030    3.3175
   12.045    3.6862
   12.060    3.3070
   12.075    3.5282
   12.090    3.3597
   12.105    3.1701
   12.120    3.6440
   12.135    3.3281
   12.150    3.2543
   12.165    3.3807
   12.180    3.4229
   12.195    3.2438
   12.210    3.4018
   12.225    3.3175
   12.240    3.6019
   12.255    3.4123
   12.270    3.5598
   12.285    3.5071
   12.300    3.4018
   12.315    3.5492
   12.330    3.6440
   12.345    3.3702
   12.360    3.4018
   12.375    3.4123
   12.390    3.4018
   12.405    3.4755
   12.420    3.5387
   12.435    3.6967
   12.450    3.7177
   12.465    3.8020
   12.480    3.4860
   12.495    3.4439
   12.510    3.6230
   12.525    3.3491
   12.540    3.3597
   12.555    3.5808
   12.570    3.5387
   12.585    3.6546
   12.600    3.2965
   12.615    3.2227
   12.630    3.2122
   12.645    3.1490
   12.660    3.3913
   12.675    3.5808
   12.690    3.4439
   12.705    3.2543
   12.720    3.3386
   12.735    3.1490
   12.750    3.4860
   12.765    3.2333
   12.780    3.1806
   12.795    3.2965
   12.810    3.3175
   12.825    3.1174
   12.840    3.1701
   12.855    2.9384
   12.870    3.3175
   12.885    3.6124
   12.900    3.1912
   12.915    3.5176
   12.930    3.1385
   12.945    3.1174
   12.960    3.4860
   12.975    3.2965
   12.990    3.1174
   13.005    3.3491
   13.020    3.3386
   13.035    3.4018
   13.050    3.2017
   13.065    3.1701
   13.080    3.1174
   13.095    3.2859
   13.110    3.5282
   13.125    3.4860
   13.140    3.4544
   13.155    3.1385
   13.170    3.3913
   13.185    3.2333
   13.200    3.4229
   13.215    3.2754
   13.230    3.2649
   13.245    3.4650
   13.260    3.3281
   13.275    3.1280
   13.290    3.0542
   13.305    3.2227
   13.320    3.3386
   13.335    3.3070
   13.350    3.1701
   13.365    3.2543
   13.380    3.2017
   13.395    3.1385
   13.410    3.4755
   13.425    3.4439
   13.440    3.2965
   13.455    3.2017
   13.470    3.2859
   13.485    3.2965
   13.500    3.1912
   13.515    2.8963
   13.530    3.2122
   13.545    3.3491
   13.560    3.2017
   13.575    3.4229
   13.590    3.2859
   13.605    3.2017
   13.620    3.3491
   13.635    3.2122
   13.650    3.1280
   13.665    3.1596
   13.680    3.0964
   13.695    3.4650
   13.710    3.4018
   13.725    3.2122
   13.740    3.0226
   13.755    3.3281
   13.770    3.2965
   13.785    3.2965
   13.800    3.1280
   13.815    3.3070
   13.830    3.5071
   13.845    3.3281
   13.860    3.1701
   13.875    3.4229
   13.890    3.3070
   13.905    3.0542
   13.920    3.0648
   13.935    3.1596
   13.950    3.3070
   13.965    3.2649
   13.980    3.2227
   13.995    3.1701
   14.010    3.1385
   14.025    3.1912
   14.040    3.0542
   14.055    3.1385
   14.070    3.0332
   14.085    3.3070
   14.100    3.2227
   14.115    3.0332
   14.130    2.9173
   14.145    3.2122
   14.160    3.3913
   14.175    3.6019
   14.190    3.4439
   14.205    3.2754
   14.220    3.4018
   14.235    3.5387
   14.250    3.4966
   14.265    3.3807
   14.280    3.3702
   14.295    3.1912
   14.310    3.2859
   14.325    3.0753
   14.340    3.3281
   14.355    3.1385
   14.370    3.2438
   14.385    3.1701
   14.400    3.4334
   14.415    3.5808
   14.430    3.0437
   14.445    3.4755
   14.460    3.2754
   14.475    3.2965
   14.490    3.3491
   14.505    3.4334
   14.520    3.2438
   14.535    3.3070
   14.550    3.4755
   14.565    3.5071
   14.580    3.4650
   14.595    3.5492
   14.610    3.4439
   14.625    3.7283
   14.640    3.5808
   14.655    3.1174
   14.670    3.3807
   14.685    3.1806
   14.700    3.5282
   14.715    3.3597
   14.730    3.4544
   14.745    3.4439
   14.760    3.4544
   14.775    3.8441
   14.790    3.4123
   14.805    3.1912
   14.820    3.1490
   14.835    3.4650
   14.850    3.3386
   14.865    3.3386
   14.880    3.4544
   14.895    3.7809
   14.910    3.5387
   14.925    3.6440
   14.940    3.4439
   14.955    3.2122
   14.970    3.2438
   14.985    3.2438
   15.000    3.2965
   15.015    3.2754
   15.030    3.0858
   15.045    3.3175
   15.060    3.5071
   15.075    3.4439
   15.090    3.4966
   15.105    3.7283
   15.120    3.8125
   15.135    3.5176
   15.150    3.5071
   15.165    3.4229
   15.180    3.2965
   15.195    3.3281
   15.210    3.3597
   15.225    3.4229
   15.240    3.3070
   15.255    3.4755
   15.270    3.4334
   15.285    3.4123
   15.300    3.6862
   15.315    3.2227
   15.330    3.0332
   15.345    3.2438
   15.360    3.3386
   15.375    3.6124
   15.390    3.0964
   15.405    3.2122
   15.420    3.2227
   15.435    3.4650
   15.450    3.3702
   15.465    3.2227
   15.480    3.2649
   15.495    3.2649
   15.510    3.3070
   15.525    3.3386
   15.540    3.4860
   15.555    3.3913
   15.570    3.3913
   15.585    3.4018
   15.600    3.2543
   15.615    3.2227
   15.630    3.2227
   15.645    3.3386
   15.660    3.3913
   15.675    3.2965
   15.690    3.5387
   15.705    3.4334
   15.720    3.4439
   15.735    3.3175
   15.750    3.5492
   15.765    3.1806
   15.780    3.3491
   15.795    3.2017
   15.810    3.2017
   15.825    3.0964
   15.840    3.5598
   15.855    3.2227
   15.870    3.4544
   15.885    3.4860
   15.900    3.4966
   15.915    3.8020
   15.930    3.4860
   15.945    3.5387
   15.960    3.1490
   15.975    3.2649
   15.990    3.4334
   16.005    3.5703
   16.020    3.6124
   16.035    3.5808
   16.050    3.3070
   16.065    3.4650
   16.080    3.6335
   16.095    3.4334
   16.110    3.5071
   16.125    3.6967
   16.140    3.8125
   16.155    3.5176
   16.170    3.1912
   16.185    3.6651
   16.200    3.5914
   16.215    3.3597
   16.230    3.2227
   16.245    3.5808
   16.260    3.4018
   16.275    3.5808
   16.290    3.3597
   16.305    3.4334
   16.320    3.3386
   16.335    3.6440
   16.350    3.7809
   16.365    3.5282
   16.380    3.2122
   16.395    3.7177
   16.410    3.6124
   16.425    3.2227
   16.440    3.4334
   16.455    3.5387
   16.470    3.4650
   16.485    3.4018
   16.500    3.4544
   16.515    3.2859
   16.530    3.3913
   16.545    3.6440
   16.560    3.5387
   16.575    3.3491
   16.590    3.4966
   16.605    3.3702
   16.620    3.4229
   16.635    3.3597
   16.650    3.2649
   16.665    3.2543
   16.680    3.4544
   16.695    3.2122
   16.710    3.3807
   16.725    3.3702
   16.740    3.3281
   16.755    3.4966
   16.770    3.3913
   16.785    3.0964
   16.800    3.2543
   16.815    3.4860
   16.830    3.3386
   16.845    3.4123
   16.860    3.4860
   16.875    3.1912
   16.890    3.3702
   16.905    3.1701
   16.920    3.3913
   16.935    3.3807
   16.950    3.4860
   16.965    3.6124
   16.980    3.4650
   16.995    3.1912
   17.010    3.4123
   17.025    3.2017
   17.040    3.3175
   17.055    3.3386
   17.070    3.6862
   17.085    3.3702
   17.100    3.4544
   17.115    3.0332
   17.130    3.6862
   17.145    3.4544
   17.160    3.2438
   17.175    3.3175
   17.190    3.3175
   17.205    3.3597
   17.220    3.3702
   17.235    3.1596
   17.250    3.6230
   17.265    3.5598
   17.280    3.2965
   17.295    3.2859
   17.310    3.4966
   17.325    3.6756
   17.340    3.5071
   17.355    3.4544
   17.370    3.3491
   17.385    3.4334
   17.400    3.4966
   17.415    3.2859
   17.430    3.2965
   17.445    3.5598
   17.460    3.6335
   17.475    3.3070
   17.490    3.4439
   17.505    3.6124
   17.520    3.4544
   17.535    3.4334
   17.550    3.4229
   17.565    3.4860
   17.580    3.5914
   17.595    3.6335
   17.610    3.4755
   17.625    3.4860
   17.640    3.5387
   17.655    3.7704
   17.670    3.6440
   17.685    3.5387
   17.700    3.5914
   17.715    3.8231
   17.730    3.8336
   17.745    3.7809
   17.760    3.7072
   17.775    3.8547
   17.790    3.4755
   17.805    3.7283
   17.820    3.9073
   17.835    3.7283
   17.850    3.7809
   17.865    3.5492
   17.880    3.7072
   17.895    3.6124
   17.910    3.7809
   17.925    3.9284
   17.940    4.1496
   17.955    3.8336
   17.970    3.7493
   17.985    3.8125
   18.000    3.7915
   18.015    3.7704
   18.030    4.0548
   18.045    4.3391
   18.060    4.2022
   18.075    4.3075
   18.090    4.0021
   18.105    3.9916
   18.120    4.2127
   18.135    4.1390
   18.150    3.9179
   18.165    3.8441
   18.180    4.2759
   18.195    4.1074
   18.210    3.8020
   18.225    3.8441
   18.240    4.1601
   18.255    4.1601
   18.270    4.3497
   18.285    4.0864
   18.300    3.8863
   18.315    4.1180
   18.330    4.2759
   18.345    4.0442
   18.360    4.3602
   18.375    4.1601
   18.390    4.0969
   18.405    3.9705
   18.420    3.8652
   18.435    4.0653
   18.450    3.7599
   18.465    3.7283
   18.480    3.9389
   18.495    4.1285
   18.510    3.8441
   18.525    4.0021
   18.540    3.9916
   18.555    3.8020
   18.570    3.9284
   18.585    4.0653
   18.600    3.7177
   18.615    3.8020
   18.630    3.6546
   18.645    3.8020
   18.660    3.7283
   18.675    3.8125
   18.690    4.0864
   18.705    3.7388
   18.720    3.4860
   18.735    3.6651
   18.750    3.6862
   18.765    3.8652
   18.780    3.9179
   18.795    3.7704
   18.810    3.8547
   18.825    3.5282
   18.840    4.0126
   18.855    3.8863
   18.870    3.7493
   18.885    3.5492
   18.900    3.6967
   18.915    3.9284
   18.930    3.8968
   18.945    3.7388
   18.960    3.8863
   18.975    3.6335
   18.990    3.7072
   19.005    3.9810
   19.020    3.7915
   19.035    3.9389
   19.050    3.6967
   19.065    3.8125
   19.080    3.6546
   19.095    3.8336
   19.110    3.7809
   19.125    3.7283
   19.140    4.0232
   19.155    4.1285
   19.170    3.6651
   19.185    3.8547
   19.200    4.2759
   19.215    3.8336
   19.230    4.0653
   19.245    4.1811
   19.260    3.9389
   19.275    3.8863
   19.290    3.8336
   19.305    4.1285
   19.320    3.8968
   19.335    3.8125
   19.350    3.6546
   19.365    3.8336
   19.380    3.8020
   19.395    3.6440
   19.410    3.6019
   19.425    4.2970
   19.440    3.8336
   19.455    3.8547
   19.470    4.0126
   19.485    3.9284
   19.500    3.6967
   19.515    3.9389
   19.530    3.7809
   19.545    3.9916
   19.560    3.8757
   19.575    3.5387
   19.590    3.3913
   19.605    3.6230
   19.620    3.9284
   19.635    3.8336
   19.650    3.6019
   19.665    3.8020
   19.680    3.6440
   19.695    3.5071
   19.710    3.8231
   19.725    3.8441
   19.740    3.8125
   19.755    3.7493
   19.770    3.9810
   19.785    3.9705
   19.800    3.5914
   19.815    3.6967
   19.830    3.7493
   19.845    3.9179
   19.860    3.5387
   19.875    3.6651
   19.890    3.7599
   19.905    3.8020
   19.920    3.7388
   19.935    3.2438
   19.950    3.6862
   19.965    3.7283
   19.980    3.9600
   19.995    3.7915
   20.010    3.8441
   20.025    3.7915
   20.040    3.9916
   20.055    3.7177
   20.070    3.8652
   20.085    3.8547
   20.100    3.5492
   20.115    3.6546
   20.130    3.6019
   20.145    3.7493
   20.160    3.8336
   20.175    3.6546
   20.190    3.7915
   20.205    4.0126
   20.220    3.9600
   20.235    3.6651
   20.250    3.7072
   20.265    3.6756
   20.280    3.7493
   20.295    3.8020
   20.310    3.7072
   20.325    3.5914
   20.340    4.0758
   20.355    3.8020
   20.370    3.8020
   20.385    3.8968
   20.400    3.8125
   20.415    3.8336
   20.430    3.6230
   20.445    3.7283
   20.460    3.6335
   20.475    3.8336
   20.490    3.8231
   20.505    3.5492
   20.520    3.6967
   20.535    3.7072
   20.550    3.5598
   20.565    3.5808
   20.580    3.5176
   20.595    3.8757
   20.610    4.0126
   20.625    3.6019
   20.640    3.7915
   20.655    4.1074
   20.670    3.6230
   20.685    3.9494
   20.700    3.8441
   20.715    3.8441
   20.730    3.7072
   20.745    3.8441
   20.760    4.1180
   20.775    3.5808
   20.790    3.5492
   20.805    3.4544
   20.820    3.8020
   20.835    3.8652
   20.850    3.8020
   20.865    3.7177
   20.880    3.8020
   20.895    3.9916
   20.910    4.0337
   20.925    3.7809
   20.940    3.8336
   20.955    3.7915
   20.970    3.9179
   20.985    4.2759
   21.000    3.6440
   21.015    3.8336
   21.030    3.8020
   21.045    4.0021
   21.060    3.8441
   21.075    3.6230
   21.090    3.9389
   21.105    4.0232
   21.120    3.8547
   21.135    4.1180
   21.150    3.9179
   21.165    3.7388
   21.180    3.9284
   21.195    3.8547
   21.210    3.9073
   21.225    3.9284
   21.240    3.7809
   21.255    3.8547
   21.270    4.1285
   21.285    3.8441
   21.300    3.8441
   21.315    3.9600
   21.330    3.9705
   21.345    3.7283
   21.360    4.0653
   21.375    4.0021
   21.390    3.7704
   21.405    3.8020
   21.420    4.0969
   21.435    4.1706
   21.450    3.6124
   21.465    3.8020
   21.480    3.7283
   21.495    3.8336
   21.510    3.8652
   21.525    3.8757
   21.540    3.9916
   21.555    3.9179
   21.570    3.8547
   21.585    3.7493
   21.600    3.8336
   21.615    4.1285
   21.630    3.8231
   21.645    3.5703
   21.660    3.9705
   21.675    3.8020
   21.690    4.0442
   21.705    3.9916
   21.720    3.9705
   21.735    3.8757
   21.750    3.9073
   21.765    3.8863
   21.780    3.9284
   21.795    4.2127
   21.810    3.9494
   21.825    3.7177
   21.840    3.9494
   21.855    3.8020
   21.870    4.2022
   21.885    3.8336
   21.900    3.8968
   21.915    3.6967
   21.930    3.5808
   21.945    3.9389
   21.960    4.1601
   21.975    4.2549
   21.990    3.9284
   22.005    3.9179
   22.020    4.1074
   22.035    3.9600
   22.050    3.6019
   22.065    3.9389
   22.080    3.9389
   22.095    3.8547
   22.110    3.7493
   22.125    3.8652
   22.140    3.8231
   22.155    4.1180
   22.170    3.9073
   22.185    3.8441
   22.200    3.7072
   22.215    3.8547
   22.230    3.5492
   22.245    3.8125
   22.260    3.7177
   22.275    3.7493
   22.290    3.5598
   22.305    3.7809
   22.320    4.0021
   22.335    3.8231
   22.350    3.8863
   22.365    3.9179
   22.380    3.8020
   22.395    3.9916
   22.410    3.8441
   22.425    3.9389
   22.440    3.5176
   22.455    3.5703
   22.470    4.1706
   22.485    3.9600
   22.500    3.7283
   22.515    3.6335
   22.530    3.7704
   22.545    3.8125
   22.560    3.4966
   22.575    3.7072
   22.590    3.6862
   22.605    3.8652
   22.620    3.8547
   22.635    3.6335
   22.650    3.6230
   22.665    3.6651
   22.680    3.4439
   22.695    3.7388
   22.710    3.6862
   22.725    3.8652
   22.740    3.6019
   22.755    3.6967
   22.770    3.6967
   22.785    3.7915
   22.800    3.6440
   22.815    3.5914
   22.830    3.6651
   22.845    3.5387
   22.860    3.7493
   22.875    3.8336
   22.890    3.7072
   22.905    3.4966
   22.920    3.4229
   22.935    3.5703
   22.950    3.6335
   22.965    3.6019
   22.980    3.8863
   22.995    3.4755
   23.010    3.7493
   23.025    3.9179
   23.040    3.6546
   23.055    3.4229
   23.070    3.4544
   23.085    3.5808
   23.100    3.4755
   23.115    3.5914
   23.130    3.2859
   23.145    3.5914
   23.160    3.4229
   23.175    3.8125
   23.190    3.8336
   23.205    3.5071
   23.220    3.6019
   23.235    3.6230
   23.250    3.8441
   23.265    3.6862
   23.280    3.7809
   23.295    3.7493
   23.310    3.7388
   23.325    3.6230
   23.340    3.5808
   23.355    3.4229
   23.370    3.6440
   23.385    3.4334
   23.400    3.6967
   23.415    3.8231
   23.430    3.8020
   23.445    3.7915
   23.460    3.9179
   23.475    3.6651
   23.490    3.6651
   23.505    3.6335
   23.520    3.6440
   23.535    3.6756
   23.550    3.6546
   23.565    3.7388
   23.580    3.9600
   23.595    3.9073
   23.610    3.8968
   23.625    3.8547
   23.640    3.9600
   23.655    3.8652
   23.670    3.7809
   23.685    3.7599
   23.700    3.7809
   23.715    3.6862
   23.730    4.0021
   23.745    3.7915
   23.760    3.5808
   23.775    3.6440
   23.790    4.0758
   23.805    3.7915
   23.820    3.6862
   23.835    3.7177
   23.850    3.6862
   23.865    3.9073
   23.880    3.7915
   23.895    4.0232
   23.910    3.8968
   23.925    3.9179
   23.940    3.7283
   23.955    3.8968
   23.970    3.5598
   23.985    3.5598
   24.000    3.9179
   24.015    3.8547
   24.030    3.5808
   24.045    3.4334
   24.060    3.5282
   24.075    3.6862
   24.090    3.5492
   24.105    3.3807
   24.120    3.6124
   24.135    3.6546
   24.150    3.4439
   24.165    3.7599
   24.180    3.7599
   24.195    3.6124
   24.210    3.6546
   24.225    3.7072
   24.240    3.5282
   24.255    3.5703
   24.270    4.0126
   24.285    3.9494
   24.300    3.7283
   24.315    3.6756
   24.330    3.7283
   24.345    3.6440
   24.360    3.6546
   24.375    3.7493
   24.390    3.9494
   24.405    3.8125
   24.420    3.9810
   24.435    3.6967
   24.450    3.5176
   24.465    3.5703
   24.480    3.5071
   24.495    4.0337
   24.510    3.6230
   24.525    3.6019
   24.540    3.5282
   24.555    3.5071
   24.570    3.5703
   24.585    3.5492
   24.600    3.3281
   24.615    3.4544
   24.630    3.6230
   24.645    3.6230
   24.660    3.7704
   24.675    3.6651
   24.690    3.5282
   24.705    3.5492
   24.720    3.5176
   24.735    3.6335
   24.750    3.7493
   24.765    3.6335
   24.780    3.6967
   24.795    3.7177
   24.810    3.5914
   24.825    3.6230
   24.840    3.8020
   24.855    3.9073
   24.870    3.5071
   24.885    3.6756
   24.900    3.5071
   24.915    3.4650
   24.930    3.6756
   24.945    3.5598
   24.960    3.6651
   24.975    3.5492
   24.990    3.6546
   25.005    3.3281
   25.020    3.4439
   25.035    3.6019
   25.050    3.5071
   25.065    3.6651
   25.080    3.5808
   25.095    3.7388
   25.110    3.4650
   25.125    3.5492
   25.140    3.2859
   25.155    3.4018
   25.170    3.4544
   25.185    3.6440
   25.200    3.7072
   25.215    3.8652
   25.230    3.5914
   25.245    3.6440
   25.260    3.5071
   25.275    3.7704
   25.290    3.4755
   25.305    3.4018
   25.320    3.4229
   25.335    3.6862
   25.350    3.5808
   25.365    3.5071
   25.380    3.7809
   25.395    3.7177
   25.410    3.6335
   25.425    3.3702
   25.440    3.3702
   25.455    3.3597
   25.470    3.2965
   25.485    3.2649
   25.500    3.1385
   25.515    3.3175
   25.530    3.2965
   25.545    3.2859
   25.560    3.3386
   25.575    3.3807
   25.590    3.1385
   25.605    3.2754
   25.620    3.5071
   25.635    3.6651
   25.650    3.5387
   25.665    3.4229
   25.680    3.6124
   25.695    3.4860
   25.710    3.3597
   25.725    3.1806
   25.740    3.3913
   25.755    3.6335
   25.770    3.0964
   25.785    3.2754
   25.800    3.4966
   25.815    3.3070
   25.830    3.6230
   25.845    3.4334
   25.860    3.3702
   25.875    3.3386
   25.890    3.6440
   25.905    3.6230
   25.920    3.4650
   25.935    3.3281
   25.950    3.5282
   25.965    3.3386
   25.980    3.2333
   25.995    3.5176
   26.010    3.5808
   26.025    3.4755
   26.040    3.4018
   26.055    3.4439
   26.070    3.5492
   26.085    3.5808
   26.100    3.3281
   26.115    3.3702
   26.130    3.1701
   26.145    3.3070
   26.160    3.2122
   26.175    3.1596
   26.190    3.3281
   26.205    3.2859
   26.220    3.5808
   26.235    3.4334
   26.250    3.3491
   26.265    3.3702
   26.280    3.2333
   26.295    3.0648
   26.310    3.2333
   26.325    3.3807
   26.340    3.3702
   26.355    3.2543
   26.370    3.3281
   26.385    3.3070
   26.400    3.4650
   26.415    3.7177
   26.430    3.5492
   26.445    3.3281
   26.460    3.1280
   26.475    3.2333
   26.490    3.2965
   26.505    3.2438
   26.520    2.9805
   26.535    3.1490
   26.550    3.0332
   26.565    3.0753
   26.580    3.2333
   26.595    3.3913
   26.610    3.3175
   26.625    3.4544
   26.640    3.5282
   26.655    3.1490
   26.670    3.1596
   26.685    3.2649
   26.700    3.2649
   26.715    3.1174
   26.730    3.0648
   26.745    3.2859
   26.760    3.3597
   26.775    3.2122
   26.790    3.0542
   26.805    3.0226
   26.820    3.0437
   26.835    3.1280
   26.850    3.2859
   26.865    3.2227
   26.880    3.0648
   26.895    3.0332
   26.910    3.1385
   26.925    3.1806
   26.940    3.0437
   26.955    3.0753
   26.970    3.5282
   26.985    3.4650
   27.000    3.1806
   27.015    3.0542
   27.030    3.1701
   27.045    3.1385
   27.060    3.0753
   27.075    2.9489
   27.090    3.0753
   27.105    2.9805
   27.120    2.9595
   27.135    3.3070
   27.150    2.9173
   27.165    3.3913
   27.180    3.0332
   27.195    3.2017
   27.210    2.8647
   27.225    3.0858
   27.240    3.0753
   27.255    3.0332
   27.270    3.1385
   27.285    3.0121
   27.300    3.0648
   27.315    3.2754
   27.330    3.2859
   27.345    3.2122
   27.360    3.2543
   27.375    3.0016
   27.390    3.0121
   27.405    2.9700
   27.420    2.9910
   27.435    3.2438
   27.450    3.2122
   27.465    3.2543
   27.480    3.1174
   27.495    3.0542
   27.510    3.0016
   27.525    2.9489
   27.540    2.8752
   27.555    2.9489
   27.570    3.2017
   27.585    3.1385
   27.600    3.2227
   27.615    3.0753
   27.630    3.2017
   27.645    3.3281
   27.660    3.0858
   27.675    2.8436
   27.690    3.0016
   27.705    3.1280
   27.720    2.8541
   27.735    3.2227
   27.750    3.2017
   27.765    3.0121
   27.780    2.9068
   27.795    2.9805
   27.810    3.0226
   27.825    3.0226
   27.840    3.0016
   27.855    3.2333
   27.870    3.1912
   27.885    2.9068
   27.900    2.9595
   27.915    3.1490
   27.930    3.2333
   27.945    2.9279
   27.960    2.9805
   27.975    2.8857
   27.990    3.1596
   28.005    3.0753
   28.020    3.1280
   28.035    2.8225
   28.050    3.0016
   28.065    2.9700
   28.080    3.0121
   28.095    2.8120
   28.110    2.6751
   28.125    2.9805
   28.140    3.2122
   28.155    2.8857
   28.170    3.1280
   28.185    3.3913
   28.200    2.9384
   28.215    2.9700
   28.230    2.6646
   28.245    3.0226
   28.260    3.0016
   28.275    2.8436
   28.290    2.7488
   28.305    3.1174
   28.320    3.2017
   28.335    3.0542
   28.350    3.0226
   28.365    2.9700
   28.380    2.9279
   28.395    2.8857
   28.410    2.9489
   28.425    2.8436
   28.440    3.2649
   28.455    2.9595
   28.470    3.0226
   28.485    2.9910
   28.500    2.9384
   28.515    2.9700
   28.530    2.9173
   28.545    2.8857
   28.560    2.9068
   28.575    2.9384
   28.590    2.6962
   28.605    2.8963
   28.620    2.8225
   28.635    2.7593
   28.650    2.8647
   28.665    2.8963
   28.680    2.7593
   28.695    2.9384
   28.710    2.9910
   28.725    3.2122
   28.740    2.8436
   28.755    2.7067
   28.770    2.9805
   28.785    2.9910
   28.800    3.0753
   28.815    2.8436
   28.830    2.9068
   28.845    2.9384
   28.860    2.8857
   28.875    2.9700
   28.890    3.0016
   28.905    2.7804
   28.920    2.9279
   28.935    2.8752
   28.950    2.8963
   28.965    2.8541
   28.980    2.9805
   28.995    2.8752
   29.010    2.7488
   29.025    2.8225
   29.040    3.0226
   29.055    3.3175
   29.070    2.8752
   29.085    2.8752
   29.100    2.8752
   29.115    2.8963
   29.130    2.8331
   29.145    2.9595
   29.160    2.6856
   29.175    3.0016
   29.190    2.8331
   29.205    2.9279
   29.220    2.8331
   29.235    2.5487
   29.250    2.7804
   29.265    3.0332
   29.280    2.9805
   29.295    2.8541
   29.310    2.8963
   29.325    2.7172
   29.340    2.8120
   29.355    2.9279
   29.370    2.9279
   29.385    2.7699
   29.400    2.8752
   29.415    2.8120
   29.430    2.7172
   29.445    2.8331
   29.460    2.8647
   29.475    2.7383
   29.490    3.1596
   29.505    2.7909
   29.520    2.7909
   29.535    2.7067
   29.550    2.6856
   29.565    3.0226
   29.580    2.9068
   29.595    2.8436
   29.610    2.6014
   29.625    2.6330
   29.640    2.7909
   29.655    2.6540
   29.670    2.4645
   29.685    2.8331
   29.700    2.8436
   29.715    2.7383
   29.730    2.8647
   29.745    2.9595
   29.760    2.8331
   29.775    2.7593
   29.790    2.7909
   29.805    2.9595
   29.820    3.1596
   29.835    2.8015
   29.850    2.7804
   29.865    2.8752
   29.880    2.8647
   29.895    2.9279
   29.910    2.6119
   29.925    2.6224
   29.940    2.8331
   29.955    2.7804
   29.970    2.9173
   29.985    2.6856
   30.000    2.8015
   30.015    2.9489
   30.030    2.8752
   30.045    3.0332
   30.060    2.7909
   30.075    2.7699
   30.090    2.7593
   30.105    2.6119
   30.120    2.8225
   30.135    2.8436
   30.150    2.8857
   30.165    2.7172
   30.180    2.6435
   30.195    2.6751
   30.210    2.8963
   30.225    2.4645
   30.240    2.6330
   30.255    2.7488
   30.270    2.7593
   30.285    2.7804
   30.300    2.5592
   30.315    2.5698
   30.330    2.8225
   30.345    2.8120
   30.360    2.6224
   30.375    2.7278
   30.390    2.6330
   30.405    2.7067
   30.420    2.7383
   30.435    2.7172
   30.450    2.4539
   30.465    2.6856
   30.480    2.7699
   30.495    2.9068
   30.510    2.8436
   30.525    2.8015
   30.540    2.6435
   30.555    2.6646
   30.570    2.4539
   30.585    2.6435
   30.600    2.7488
   30.615    2.6540
   30.630    2.7278
   30.645    2.8752
   30.660    2.6540
   30.675    2.6962
   30.690    2.8963
   30.705    2.6751
   30.720    2.6224
   30.735    2.7067
   30.750    2.6751
   30.765    2.4961
   30.780    2.4223
   30.795    2.6330
   30.810    2.5698
   30.825    2.4539
   30.840    2.3591
   30.855    2.4855
   30.870    2.3802
   30.885    2.7909
   30.900    2.2854
   30.915    2.5487
   30.930    2.5487
   30.945    2.4013
   30.960    2.6330
   30.975    2.4855
   30.990    2.7593
   31.005    2.6962
   31.020    2.6540
   31.035    2.6856
   31.050    2.6224
   31.065    2.5803
   31.080    2.2854
   31.095    2.5276
   31.110    2.6856
   31.125    2.4645
   31.140    2.4750
   31.155    2.5803
   31.170    2.6014
   31.185    2.6014
   31.200    2.5592
   31.215    2.6014
   31.230    2.6224
   31.245    2.3907
   31.260    2.4645
   31.275    2.3697
   31.290    2.5066
   31.305    2.5698
   31.320    2.5066
   31.335    2.3486
   31.350    2.3591
   31.365    2.2328
   31.380    2.3802
   31.395    2.5276
   31.410    2.5066
   31.425    2.4434
   31.440    2.5698
   31.455    2.7278
   31.470    2.3802
   31.485    2.5066
   31.500    2.5908
   31.515    2.4855
   31.530    2.6435
   31.545    2.3275
   31.560    2.7699
   31.575    2.5382
   31.590    2.6646
   31.605    2.5803
   31.620    2.3275
   31.635    2.4118
   31.650    2.3065
   31.665    2.7593
   31.680    2.5487
   31.695    2.4118
   31.710    2.4961
   31.725    2.3275
   31.740    2.2538
   31.755    2.4645
   31.770    2.4223
   31.785    2.4223
   31.800    2.3591
   31.815    2.1380
   31.830    2.3591
   31.845    2.4223
   31.860    2.5276
   31.875    2.5276
   31.890    2.5803
   31.905    2.4118
   31.920    2.4223
   31.935    2.4329
   31.950    2.2959
   31.965    2.2959
   31.980    2.6014
   31.995    2.5171
   32.010    2.4961
   32.025    2.2959
   32.040    2.2433
   32.055    2.1380
   32.070    2.3170
   32.085    2.4645
   32.100    2.1801
   32.115    2.2117
   32.130    2.2117
   32.145    2.3591
   32.160    2.3907
   32.175    2.5592
   32.190    2.5382
   32.205    2.4750
   32.220    2.5276
   32.235    2.1064
   32.250    2.0958
   32.265    2.1485
   32.280    2.1169
   32.295    2.1169
   32.310    2.4118
   32.325    2.4118
   32.340    2.3381
   32.355    1.9905
   32.370    2.4750
   32.385    2.3591
   32.400    2.4539
   32.415    2.0958
   32.430    2.3381
   32.445    2.1590
   32.460    2.1590
   32.475    2.2959
   32.490    2.2328
   32.505    2.2538
   32.520    2.1590
   32.535    2.3907
   32.550    2.3697
   32.565    2.1169
   32.580    2.3275
   32.595    2.3170
   32.610    2.2117
   32.625    1.9379
   32.640    2.0853
   32.655    2.1590
   32.670    2.2117
   32.685    2.2854
   32.700    2.4118
   32.715    2.3591
   32.730    2.1801
   32.745    2.2222
   32.760    2.1380
   32.775    2.3591
   32.790    2.1274
   32.805    2.0537
   32.820    2.2117
   32.835    2.4118
   32.850    2.1906
   32.865    2.2222
   32.880    2.2012
   32.895    2.2433
   32.910    1.9168
   32.925    2.1906
   32.940    2.4855
   32.955    2.2117
   32.970    2.0642
   32.985    2.1274
   33.000    2.0537
   33.015    2.1274
   33.030    2.2749
   33.045    2.1696
   33.060    2.2433
   33.075    2.1696
   33.090    2.2117
   33.105    2.3065
   33.120    2.3065
   33.135    2.3381
   33.150    2.2222
   33.165    2.3065
   33.180    2.0958
   33.195    2.2643
   33.210    2.2012
   33.225    2.0537
   33.240    2.1696
   33.255    2.2643
   33.270    2.2012
   33.285    2.1274
   33.300    2.0432
   33.315    2.2012
   33.330    2.0958
   33.345    2.1801
   33.360    2.0432
   33.375    2.3486
   33.390    2.0326
   33.405    2.1906
   33.420    1.9273
   33.435    2.2222
   33.450    1.9800
   33.465    2.0748
   33.480    2.0642
   33.495    2.0642
   33.510    2.1590
   33.525    2.1274
   33.540    2.0221
   33.555    1.9800
   33.570    2.1064
   33.585    1.9589
   33.600    2.0221
   33.615    1.8957
   33.630    1.8747
   33.645    1.8325
   33.660    2.0642
   33.675    2.0432
   33.690    1.8957
   33.705    2.0326
   33.720    2.0221
   33.735    1.9168
   33.750    1.9905
   33.765    2.0011
   33.780    2.0116
   33.795    2.0853
   33.810    2.0326
   33.825    2.2012
   33.840    2.1064
   33.855    2.0326
   33.870    2.1169
   33.885    2.0326
   33.900    1.7694
   33.915    1.8325
   33.930    1.9484
   33.945    1.8220
   33.960    2.0432
   33.975    2.1696
   33.990    2.1064
   34.005    1.7694
   34.020    2.1485
   34.035    2.1169
   34.050    2.0326
   34.065    2.0537
   34.080    1.9379
   34.095    1.9273
   34.110    1.7904
   34.125    1.9168
   34.140    2.0221
   34.155    2.1274
   34.170    1.9695
   34.185    1.9695
   34.200    2.1485
   34.215    1.9800
   34.230    1.8431
   34.245    2.0748
   34.260    2.0326
   34.275    1.7272
   34.290    1.8009
   34.305    2.0326
   34.320    2.0853
   34.335    1.8957
   34.350    1.8852
   34.365    1.8115
   34.380    1.8852
   34.395    1.9589
   34.410    2.0958
   34.425    1.8220
   34.440    1.9589
   34.455    1.8325
   34.470    1.5692
   34.485    1.9063
   34.500    2.0011
   34.515    2.0432
   34.530    1.9905
   34.545    1.8325
   34.560    1.9063
   34.575    1.8641
   34.590    2.0011
   34.605    1.6956
   34.620    1.8325
   34.635    1.6746
   34.650    2.0221
   34.665    1.7904
   34.680    1.7062
   34.695    1.8747
   34.710    1.8957
   34.725    2.1169
   34.740    1.9589
   34.755    2.1064
   34.770    1.8220
   34.785    1.8115
   34.800    1.8115
   34.815    1.8325
   34.830    1.8852
   34.845    1.7588
   34.860    1.7378
   34.875    1.8641
   34.890    1.8852
   34.905    1.7694
   34.920    1.8641
   34.935    1.8957
   34.950    1.8747
   34.965    1.9168
   34.980    1.7588
   34.995    1.5692
   35.010    1.6640
   35.025    1.8115
   35.040    1.9168
   35.055    1.8325
   35.070    1.7799
   35.085    1.6324
   35.100    1.8641
   35.115    1.9168
   35.130    1.7694
   35.145    1.8957
   35.160    1.9063
   35.175    1.8536
   35.190    1.7167
   35.205    1.6746
   35.220    1.7694
   35.235    1.7694
   35.250    1.8641
   35.265    1.8431
   35.280    2.1064
   35.295    1.7799
   35.310    1.7694
   35.325    1.6851
   35.340    1.8009
   35.355    1.9273
   35.370    1.7588
   35.385    1.7272
   35.400    1.8536
   35.415    1.8115
   35.430    1.8325
   35.445    1.7694
   35.460    1.8115
   35.475    1.7588
   35.490    1.6008
   35.505    1.7167
   35.520    1.5377
   35.535    1.7799
   35.550    1.7272
   35.565    1.5798
   35.580    1.8536
   35.595    1.5903
   35.610    1.6008
   35.625    1.5482
   35.640    1.5271
   35.655    1.6956
   35.670    1.7167
   35.685    1.6219
   35.700    1.6324
   35.715    1.7378
   35.730    1.7272
   35.745    1.9168
   35.760    1.7167
   35.775    1.6535
   35.790    1.7799
   35.805    1.6430
   35.820    1.8115
   35.835    1.9063
   35.850    1.7167
   35.865    1.5692
   35.880    1.3270
   35.895    1.5482
   35.910    1.5692
   35.925    1.7904
   35.940    1.8431
   35.955    1.8325
   35.970    1.8115
   35.985    1.6324
   36.000    1.6114
   36.015    1.6535
   36.030    1.6008
   36.045    1.6956
   36.060    1.7588
   36.075    1.7272
   36.090    1.7167
   36.105    1.5482
   36.120    1.5692
   36.135    1.7483
   36.150    1.7167
   36.165    1.8957
   36.180    1.6430
   36.195    1.5061
   36.210    1.4955
   36.225    1.6851
   36.240    1.8009
   36.255    1.7694
   36.270    1.7167
   36.285    1.5587
   36.300    1.7167
   36.315    1.6956
   36.330    1.7483
   36.345    1.6430
   36.360    1.7799
   36.375    1.7167
   36.390    1.6851
   36.405    1.7378
   36.420    1.6535
   36.435    1.5587
   36.450    1.6219
   36.465    1.7588
   36.480    1.6640
   36.495    1.6640
   36.510    1.7167
   36.525    1.7588
   36.540    1.6851
   36.555    1.3902
   36.570    1.5798
   36.585    1.5271
   36.600    1.5798
   36.615    1.4218
   36.630    1.4218
   36.645    1.7062
   36.660    1.6640
   36.675    1.5587
   36.690    1.4534
   36.705    1.4534
   36.720    1.3691
   36.735    1.5798
   36.750    1.7062
   36.765    1.5692
   36.780    1.5061
   36.795    1.4955
   36.810    1.5377
   36.825    1.9273
   36.840    1.6430
   36.855    1.5692
   36.870    1.3691
   36.885    1.6640
   36.900    1.8220
   36.915    1.5271
   36.930    1.5692
   36.945    1.6640
   36.960    1.4745
   36.975    1.4850
   36.990    1.5798
   37.005    1.7272
   37.020    1.5271
   37.035    1.5798
   37.050    1.5271
   37.065    1.6008
   37.080    1.4218
   37.095    1.4534
   37.110    1.7378
   37.125    1.4534
   37.140    1.5377
   37.155    1.4007
   37.170    1.5798
   37.185    1.3902
   37.200    1.5587
   37.215    1.4429
   37.230    1.4007
   37.245    1.5482
   37.260    1.4218
   37.275    1.6324
   37.290    1.4639
   37.305    1.4850
   37.320    1.4955
   37.335    1.6008
   37.350    1.4955
   37.365    1.4429
   37.380    1.3902
   37.395    1.4429
   37.410    1.5061
   37.425    1.3691
   37.440    1.3586
   37.455    1.4218
   37.470    1.4429
   37.485    1.5798
   37.500    1.5271
   37.515    1.6535
   37.530    1.6219
   37.545    1.4534
   37.560    1.3902
   37.575    1.5692
   37.590    1.5798
   37.605    1.6640
   37.620    1.4955
   37.635    1.4429
   37.650    1.6114
   37.665    1.4007
   37.680    1.4850
   37.695    1.4218
   37.710    1.3902
   37.725    1.4745
   37.740    1.3586
   37.755    1.4639
   37.770    1.4429
   37.785    1.4850
   37.800    1.1901
   37.815    1.4850
   37.830    1.7167
   37.845    1.4429
   37.860    1.4323
   37.875    1.4955
   37.890    1.2954
   37.905    1.2954
   37.920    1.3375
   37.935    1.5692
   37.950    1.5692
   37.965    1.4113
   37.980    1.4323
   37.995    1.2849
   38.010    1.3165
   38.025    1.3375
   38.040    1.4429
   38.055    1.3060
   38.070    1.2954
   38.085    1.2744
   38.100    1.4745
   38.115    1.4639
   38.130    1.4534
   38.145    1.4323
   38.160    1.3691
   38.175    1.5166
   38.190    1.2744
   38.205    1.3375
   38.220    1.4113
   38.235    1.3691
   38.250    1.3165
   38.265    1.2954
   38.280    1.6746
   38.295    1.4639
   38.310    1.5587
   38.325    1.5482
   38.340    1.3902
   38.355    1.3586
   38.370    1.3902
   38.385    1.5692
   38.400    1.6219
   38.415    1.8325
   38.430    1.4850
   38.445    1.2533
   38.460    1.5377
   38.475    1.5166
   38.490    1.4745
   38.505    1.4007
   38.520    1.6324
   38.535    1.4639
   38.550    1.4534
   38.565    1.2533
   38.580    1.4745
   38.595    1.4534
   38.610    1.3270
   38.625    1.5798
   38.640    1.5903
   38.655    1.5798
   38.670    1.3902
   38.685    1.4113
   38.700    1.2849
   38.715    1.3481
   38.730    1.5798
   38.745    1.4218
   38.760    1.3270
   38.775    1.2849
   38.790    1.3375
   38.805    1.4429
   38.820    1.6430
   38.835    1.4218
   38.850    1.4850
   38.865    1.3060
   38.880    1.4534
   38.895    1.4218
   38.910    1.5166
   38.925    1.3481
   38.940    1.2533
   38.955    1.3902
   38.970    1.4534
   38.985    1.4955
   39.000    1.5061
   39.015    1.4323
   39.030    1.3375
   39.045    1.5482
   39.060    1.4429
   39.075    1.3902
   39.090    1.4007
   39.105    1.4113
   39.120    1.4745
   39.135    1.2322
   39.150    1.4955
   39.165    1.4850
   39.180    1.4323
   39.195    1.4850
   39.210    1.4955
   39.225    1.3902
   39.240    1.4323
   39.255    1.4639
   39.270    1.5166
   39.285    1.5587
   39.300    1.3797
   39.315    1.4429
   39.330    1.2638
   39.345    1.4007
   39.360    1.5482
   39.375    1.4429
   39.390    1.3797
   39.405    1.4323
   39.420    1.4429
   39.435    1.3797
   39.450    1.4113
   39.465    1.2006
   39.480    1.2322
   39.495    1.4534
   39.510    1.4113
   39.525    1.3481
   39.540    1.2849
   39.555    1.3797
   39.570    1.3586
   39.585    1.4218
   39.600    1.2744
   39.615    1.2744
   39.630    1.3691
   39.645    1.3586
   39.660    1.2849
   39.675    1.4218
   39.690    1.4007
   39.705    1.4745
   39.720    1.3481
   39.735    1.5692
   39.750    1.4745
   39.765    1.2849
   39.780    1.3165
   39.795    1.2954
   39.810    1.4639
   39.825    1.3691
   39.840    1.2533
   39.855    1.3797
   39.870    1.2322
   39.885    1.3270
   39.900    1.2849
   39.915    1.2744
   39.930    1.4007
   39.945    1.4323
   39.960    1.2954
   39.975    1.3797
   39.990    1.3270
