    1.500    6.4946
    1.515    6.2138
    1.530    6.7755
    1.545    6.8106
    1.560    6.0032
    1.575    5.9681
    1.590    6.3893
    1.605    5.7574
    1.620    5.7574
    1.635    5.7223
    1.650    5.7399
    1.665    5.8627
    1.680    6.0734
    1.695    5.3888
    1.710    5.5819
    1.725    5.6872
    1.740    5.9154
    1.755    5.5117
    1.770    5.6872
    1.785    5.4590
    1.800    5.9505
    1.815    5.7750
    1.830    5.3186
    1.845    6.0207
    1.860    5.5819
    1.875    5.7048
    1.890    5.8276
    1.905    5.2484
    1.920    5.1782
    1.935    5.4239
    1.950    5.4064
    1.965    5.4766
    1.980    5.8101
    1.995    5.3712
    2.010    4.9500
    2.025    5.3712
    2.040    6.0032
    2.055    5.7925
    2.070    5.4064
    2.085    5.4415
    2.100    5.5292
    2.115    4.8973
    2.130    5.2659
    2.145    4.8973
    2.160    5.3010
    2.175    5.1255
    2.190    5.4064
    2.205    5.4941
    2.220    5.1080
    2.235    5.1957
    2.250    5.0728
    2.265    4.8095
    2.280    4.7569
    2.295    4.8447
    2.310    4.8095
    2.325    5.2133
    2.340    5.0553
    2.355    4.9851
    2.370    5.4239
    2.385    5.1080
    2.400    5.3186
    2.415    5.5117
    2.430    4.8798
    2.445    4.4585
    2.460    5.5468
    2.475    5.1080
    2.490    4.6165
    2.505    5.1431
    2.520    4.9675
    2.535    4.8973
    2.550    5.1606
    2.565    4.7569
    2.580    4.9149
    2.595    4.9149
    2.610    5.1255
    2.625    4.9324
    2.640    5.4064
    2.655    5.5994
    2.670    5.1431
    2.685    5.1782
    2.700    5.0553
    2.715    5.2308
    2.730    5.0728
    2.745    5.4415
    2.760    4.8973
    2.775    5.4064
    2.790    5.4590
    2.805    5.2659
    2.820    4.9500
    2.835    4.8095
    2.850    4.7569
    2.865    4.9500
    2.880    4.9149
    2.895    5.1957
    2.910    5.2484
    2.925    5.0026
    2.940    4.9324
    2.955    5.1606
    2.970    4.8973
    2.985    4.7393
    3.000    4.8798
    3.015    4.5287
    3.030    5.1957
    3.045    5.1431
    3.060    4.7920
    3.075    5.3537
    3.090    5.0377
    3.105    4.8973
    3.120    4.9149
    3.135    5.3712
    3.150    5.0553
    3.165    5.2308
    3.180    5.0377
    3.195    5.1255
    3.210    5.1255
    3.225    5.0728
    3.240    5.2133
    3.255    5.1782
    3.270    5.0026
    3.285    4.6165
    3.300    4.7218
    3.315    4.9851
    3.330    4.8271
    3.345    5.0026
    3.360    4.8622
    3.375    5.1431
    3.390    5.5117
    3.405    5.4064
    3.420    5.2308
    3.435    4.8973
    3.450    5.4415
    3.465    5.0553
    3.480    5.1255
    3.495    4.9675
    3.510    5.4064
    3.525    5.2484
    3.540    5.2484
    3.555    5.2484
    3.570    5.1782
    3.585    5.5994
    3.600    5.6872
    3.615    5.3888
    3.630    5.0728
    3.645    5.4064
    3.660    5.7048
    3.675    5.6345
    3.690    5.4064
    3.705    5.3186
    3.720    5.2835
    3.735    5.1080
    3.750    5.3010
    3.765    5.5292
    3.780    5.6170
    3.795    5.6170
    3.810    5.7223
    3.825    5.5994
    3.840    5.7574
    3.855    5.6872
    3.870    5.2659
    3.885    5.4590
    3.900    5.5994
    3.915    5.5819
    3.930    5.3537
    3.945    5.2835
    3.960    5.6170
    3.975    5.8101
    3.990    5.4239
    4.005    5.5819
    4.020    5.5994
    4.035    5.5643
    4.050    5.5819
    4.065    5.6170
    4.080    5.3888
    4.095    5.2133
    4.110    5.3361
    4.125    5.0904
    4.140    5.3361
    4.155    5.2308
    4.170    5.4415
    4.185    5.1431
    4.200    5.1782
    4.215    5.3888
    4.230    5.3186
    4.245    5.5292
    4.260    5.2308
    4.275    5.1606
    4.290    5.0904
    4.305    5.4064
    4.320    5.4415
    4.335    5.6345
    4.350    5.3361
    4.365    5.3010
    4.380    5.2659
    4.395    5.3361
    4.410    5.5117
    4.425    5.8627
    4.440    5.0553
    4.455    5.1957
    4.470    4.7569
    4.485    5.6170
    4.500    5.4415
    4.515    4.9500
    4.530    5.3712
    4.545    5.3888
    4.560    5.1957
    4.575    5.3010
    4.590    5.8627
    4.605    6.0558
    4.620    5.9681
    4.635    5.9329
    4.650    5.9329
    4.665    5.2659
    4.680    5.5994
    4.695    5.8627
    4.710    5.3361
    4.725    5.3888
    4.740    5.8627
    4.755    5.6697
    4.770    5.3712
    4.785    5.7925
    4.800    5.6345
    4.815    5.7223
    4.830    5.6521
    4.845    5.9329
    4.860    6.3016
    4.875    6.1611
    4.890    6.3016
    4.905    5.8452
    4.920    6.1611
    4.935    5.9681
    4.950    6.0734
    4.965    5.7574
    4.980    5.7925
    4.995    6.0383
    5.010    5.9329
    5.025    5.5292
    5.040    5.6521
    5.055    6.2138
    5.070    5.8276
    5.085    5.2484
    5.100    5.8803
    5.115    5.8452
    5.130    6.1787
    5.145    5.9681
    5.160    6.0383
    5.175    6.0909
    5.190    5.8978
    5.205    5.8803
    5.220    5.7223
    5.235    5.6872
    5.250    5.9505
    5.265    6.5649
    5.280    6.4069
    5.295    6.4946
    5.310    6.4771
    5.325    5.7750
    5.340    6.0734
    5.355    5.9154
    5.370    5.7574
    5.385    5.8276
    5.400    6.1611
    5.415    6.3367
    5.430    5.9154
    5.445    6.0032
    5.460    5.8452
    5.475    5.7750
    5.490    5.7750
    5.505    6.5473
    5.520    6.0909
    5.535    5.7223
    5.550    6.0383
    5.565    5.9154
    5.580    6.3016
    5.595    5.9505
    5.610    6.1611
    5.625    5.5819
    5.640    6.1436
    5.655    5.8978
    5.670    6.0207
    5.685    6.5649
    5.700    6.3542
    5.715    6.3016
    5.730    5.7925
    5.745    5.6345
    5.760    5.2835
    5.775    5.5994
    5.790    5.3537
    5.805    5.6170
    5.820    5.4590
    5.835    5.6872
    5.850    5.5468
    5.865    6.0734
    5.880    5.6345
    5.895    5.8101
    5.910    5.5292
    5.925    5.6345
    5.940    5.2133
    5.955    5.5819
    5.970    5.7399
    5.985    5.5994
    6.000    5.7399
    6.015    5.3888
    6.030    5.4064
    6.045    5.2308
    6.060    5.1255
    6.075    5.1080
    6.090    4.9851
    6.105    5.1606
    6.120    4.9675
    6.135    5.4766
    6.150    5.3361
    6.165    5.4941
    6.180    5.1255
    6.195    4.8095
    6.210    5.0553
    6.225    5.1957
    6.240    5.4239
    6.255    5.4941
    6.270    5.2835
    6.285    5.1606
    6.300    5.1782
    6.315    5.1957
    6.330    4.9324
    6.345    5.2835
    6.360    5.5468
    6.375    5.1606
    6.390    5.2484
    6.405    5.1080
    6.420    5.1255
    6.435    5.1957
    6.450    5.1606
    6.465    5.1255
    6.480    4.8447
    6.495    5.1606
    6.510    5.1431
    6.525    4.9675
    6.540    5.0553
    6.555    4.7218
    6.570    4.8095
    6.585    5.1957
    6.600    5.4064
    6.615    5.0728
    6.630    4.7393
    6.645    5.3361
    6.660    5.3888
    6.675    5.0728
    6.690    4.9500
    6.705    4.6867
    6.720    4.7042
    6.735    5.0728
    6.750    4.8271
    6.765    4.7920
    6.780    4.8798
    6.795    4.8622
    6.810    4.8271
    6.825    4.8973
    6.840    4.9675
    6.855    4.9149
    6.870    5.0377
    6.885    4.7920
    6.900    5.4590
    6.915    5.4590
    6.930    4.8447
    6.945    4.6867
    6.960    4.7920
    6.975    5.1957
    6.990    5.0904
    7.005    5.0904
    7.020    4.8622
    7.035    5.0904
    7.050    5.2308
    7.065    5.4941
    7.080    5.1606
    7.095    4.3532
    7.110    4.7569
    7.125    4.8798
    7.140    5.3186
    7.155    5.2133
    7.170    4.9500
    7.185    4.5463
    7.200    4.6867
    7.215    5.1255
    7.230    4.8271
    7.245    4.4760
    7.260    4.5463
    7.275    5.0377
    7.290    4.9149
    7.305    4.8798
    7.320    4.7744
    7.335    5.2484
    7.350    5.0728
    7.365    4.8095
    7.380    4.9149
    7.395    4.7393
    7.410    4.7042
    7.425    4.6867
    7.440    4.9149
    7.455    4.6691
    7.470    4.8622
    7.485    4.8798
    7.500    4.8973
    7.515    4.6165
    7.530    4.2830
    7.545    4.6516
    7.560    4.6867
    7.575    4.4936
    7.590    4.6867
    7.605    4.5287
    7.620    4.9675
    7.635    4.6340
    7.650    4.5463
    7.665    5.0728
    7.680    4.6340
    7.695    4.4058
    7.710    4.8271
    7.725    4.6516
    7.740    4.7744
    7.755    4.7569
    7.770    4.5814
    7.785    4.8798
    7.800    5.3361
    7.815    4.9324
    7.830    4.6691
    7.845    4.8973
    7.860    5.1606
    7.875    4.9851
    7.890    4.9675
    7.905    4.6516
    7.920    4.7218
    7.935    4.8973
    7.950    4.9324
    7.965    4.7920
    7.980    4.7218
    7.995    4.6691
    8.010    4.5111
    8.025    4.6516
    8.040    4.7920
    8.055    4.7218
    8.070    4.7569
    8.085    4.8973
    8.100    4.4234
    8.115    4.7569
    8.130    4.5463
    8.145    4.8271
    8.160    4.6516
    8.175    4.5989
    8.190    4.5814
    8.205    4.9324
    8.220    4.7393
    8.235    4.9500
    8.250    4.6340
    8.265    4.6867
    8.280    4.5287
    8.295    4.3005
    8.310    4.7042
    8.325    4.8271
    8.340    4.9500
    8.355    4.8271
    8.370    4.7218
    8.385    4.3883
    8.400    4.6516
    8.415    4.4058
    8.430    4.9324
    8.445    4.2478
    8.460    4.5111
    8.475    4.8447
    8.490    4.3005
    8.505    4.7393
    8.520    4.7744
    8.535    4.5989
    8.550    4.4409
    8.565    4.2478
    8.580    4.5638
    8.595    4.4234
    8.610    4.5111
    8.625    5.0377
    8.640    4.8622
    8.655    4.4936
    8.670    4.7920
    8.685    4.8973
    8.700    4.8798
    8.715    4.7042
    8.730    4.3005
    8.745    4.7744
    8.760    4.9324
    8.775    4.5463
    8.790    4.3883
    8.805    4.4058
    8.820    4.4585
    8.835    4.3707
    8.850    4.5287
    8.865    4.4760
    8.880    4.4585
    8.895    4.4585
    8.910    4.4234
    8.925    4.3532
    8.940    4.2478
    8.955    5.0377
    8.970    5.1080
    8.985    5.1255
    9.000    5.0728
    9.015    4.4409
    9.030    4.5989
    9.045    4.5814
    9.060    4.2830
    9.075    4.4585
    9.090    4.8271
    9.105    4.0723
    9.120    4.3532
    9.135    4.4234
    9.150    4.4760
    9.165    4.5287
    9.180    4.7920
    9.195    4.4585
    9.210    4.4936
    9.225    4.4234
    9.240    4.3005
    9.255    4.8095
    9.270    4.6340
    9.285    4.5638
    9.300    4.4760
    9.315    4.5989
    9.330    4.3181
    9.345    4.1250
    9.360    4.9500
    9.375    4.7569
    9.390    4.2127
    9.405    4.7569
    9.420    5.0202
    9.435    4.7393
    9.450    4.1250
    9.465    4.3356
    9.480    4.6340
    9.495    4.5287
    9.510    4.4234
    9.525    4.3005
    9.540    4.5814
    9.555    4.9149
    9.570    4.5989
    9.585    4.6867
    9.600    4.6691
    9.615    4.5638
    9.630    4.3005
    9.645    4.0021
    9.660    4.5463
    9.675    4.7042
    9.690    4.4409
    9.705    4.8798
    9.720    4.4234
    9.735    4.4936
    9.750    4.7744
    9.765    5.0553
    9.780    4.4234
    9.795    5.0553
    9.810    4.5989
    9.825    4.4936
    9.840    4.8973
    9.855    4.9324
    9.870    4.4234
    9.885    4.3883
    9.900    4.4936
    9.915    4.6340
    9.930    4.7042
    9.945    4.8271
    9.960    4.7042
    9.975    4.5287
    9.990    4.8095
   10.005    4.2303
   10.020    4.4936
   10.035    4.3181
   10.050    4.4585
   10.065    4.4409
   10.080    4.3532
   10.095    4.7920
   10.110    4.8271
   10.125    4.3883
   10.140    4.2830
   10.155    4.3005
   10.170    4.7569
   10.185    4.8798
   10.200    5.1080
   10.215    4.7920
   10.230    4.5111
   10.245    4.5814
   10.260    4.2478
   10.275    4.4585
   10.290    4.4409
   10.305    4.6867
   10.320    4.6165
   10.335    4.6165
   10.350    4.6867
   10.365    4.2830
   10.380    4.1776
   10.395    4.1952
   10.410    4.3356
   10.425    4.6340
   10.440    4.1425
   10.455    4.7393
   10.470    4.4409
   10.485    4.3356
   10.500    4.1250
   10.515    4.4234
   10.530    4.8622
   10.545    4.3707
   10.560    4.4234
   10.575    4.4936
   10.590    4.5111
   10.605    4.5287
   10.620    4.8095
   10.635    4.7042
   10.650    5.0728
   10.665    4.8622
   10.680    4.6516
   10.695    4.4760
   10.710    4.4760
   10.725    4.6691
   10.740    4.5638
   10.755    4.4585
   10.770    4.5463
   10.785    4.7042
   10.800    4.7218
   10.815    4.6516
   10.830    4.0197
   10.845    4.4936
   10.860    4.5814
   10.875    4.3707
   10.890    4.3883
   10.905    4.6867
   10.920    4.3883
   10.935    4.4234
   10.950    4.4058
   10.965    4.5463
   10.980    4.5287
   10.995    4.5989
   11.010    4.3883
   11.025    4.3883
   11.040    4.5638
   11.055    4.3707
   11.070    4.0021
   11.085    4.2478
   11.100    4.6516
   11.115    4.8271
   11.130    4.2654
   11.145    4.1952
   11.160    4.6340
   11.175    4.7218
   11.190    4.5989
   11.205    4.5463
   11.220    4.4585
   11.235    4.3532
   11.250    4.3883
   11.265    4.7920
   11.280    4.3356
   11.295    4.2303
   11.310    4.3883
   11.325    4.1776
   11.340    4.3532
   11.355    4.4409
   11.370    4.1425
   11.385    4.2478
   11.400    4.4760
   11.415    4.6340
   11.430    4.4760
   11.445    4.0899
   11.460    4.1776
   11.475    4.6516
   11.490    4.6165
   11.505    4.2127
   11.520    4.2478
   11.535    4.3005
   11.550    4.0372
   11.565    4.5463
   11.580    4.8447
   11.595    4.2127
   11.610    4.3883
   11.625    4.3181
   11.640    4.1601
   11.655    4.4234
   11.670    4.4058
   11.685    4.2303
   11.700    4.5111
   11.715    4.3532
   11.730    4.1601
   11.745    4.3005
   11.760    4.3707
   11.775    4.0197
   11.790    4.2127
   11.805    4.1776
   11.820    4.4585
   11.835    4.4585
   11.850    4.2127
   11.865    4.2478
   11.880    4.3883
   11.895    4.2830
   11.910    4.1776
   11.925    4.3005
   11.940    4.0372
   11.955    4.1425
   11.970    4.0021
   11.985    4.2830
   12.000    4.1776
   12.015    3.9846
   12.030    4.0899
   12.045    4.6165
   12.060    4.3883
   12.075    4.4058
   12.090    4.2127
   12.105    4.0899
   12.120    3.9319
   12.135    4.3707
   12.150    4.4936
   12.165    4.2127
   12.180    4.2303
   12.195    3.9494
   12.210    4.2654
   12.225    4.4936
   12.240    4.5638
   12.255    4.6516
   12.270    4.0372
   12.285    4.2654
   12.300    4.1601
   12.315    4.1250
   12.330    4.0723
   12.345    4.0548
   12.360    4.1601
   12.375    4.2478
   12.390    4.1425
   12.405    4.2830
   12.420    4.3005
   12.435    4.4760
   12.450    4.2654
   12.465    4.4585
   12.480    4.1425
   12.495    4.3181
   12.510    4.5814
   12.525    4.2830
   12.540    4.5814
   12.555    4.2303
   12.570    3.9670
   12.585    4.3005
   12.600    4.3181
   12.615    4.1952
   12.630    4.0548
   12.645    4.0548
   12.660    4.4585
   12.675    4.2303
   12.690    4.2830
   12.705    4.4058
   12.720    3.9670
   12.735    4.4234
   12.750    4.3532
   12.765    4.0723
   12.780    4.0548
   12.795    4.0899
   12.810    4.1952
   12.825    4.3532
   12.840    4.0723
   12.855    4.0723
   12.870    4.7042
   12.885    4.2303
   12.900    3.8968
   12.915    4.1952
   12.930    4.3532
   12.945    4.2303
   12.960    4.1425
   12.975    4.0548
   12.990    4.2478
   13.005    3.9670
   13.020    4.1601
   13.035    3.8266
   13.050    4.0197
   13.065    4.6165
   13.080    4.5463
   13.095    4.1952
   13.110    4.2654
   13.125    4.2830
   13.140    4.4234
   13.155    4.0723
   13.170    4.1425
   13.185    4.1776
   13.200    3.8090
   13.215    3.9494
   13.230    3.9670
   13.245    3.7915
   13.260    4.0899
   13.275    4.0899
   13.290    3.9846
   13.305    4.3181
   13.320    4.2478
   13.335    4.4234
   13.350    4.1425
   13.365    4.3005
   13.380    4.3883
   13.395    4.0021
   13.410    4.5111
   13.425    4.3707
   13.440    4.1074
   13.455    4.1776
   13.470    3.8266
   13.485    4.1952
   13.500    4.0899
   13.515    4.0723
   13.530    3.7388
   13.545    4.0372
   13.560    4.1601
   13.575    4.3356
   13.590    4.2654
   13.605    4.0372
   13.620    4.1425
   13.635    3.8968
   13.650    4.3883
   13.665    4.1776
   13.680    4.3181
   13.695    3.9846
   13.710    3.7564
   13.725    4.2478
   13.740    4.1601
   13.755    4.0899
   13.770    4.2127
   13.785    4.0899
   13.800    4.1776
   13.815    3.9846
   13.830    3.7564
   13.845    4.2478
   13.860    4.2303
   13.875    4.1952
   13.890    4.1250
   13.905    4.4058
   13.920    4.0723
   13.935    3.8090
   13.950    4.4585
   13.965    4.1776
   13.980    4.1776
   13.995    4.2303
   14.010    4.3532
   14.025    4.6165
   14.040    4.5638
   14.055    4.4585
   14.070    4.3532
   14.085    4.5463
   14.100    4.6340
   14.115    4.7393
   14.130    4.5287
   14.145    4.2303
   14.160    4.2654
   14.175    4.3005
   14.190    4.3532
   14.205    4.3883
   14.220    4.1776
   14.235    4.2303
   14.250    4.0899
   14.265    4.5638
   14.280    4.5989
   14.295    4.1952
   14.310    4.0021
   14.325    4.3356
   14.340    4.1074
   14.355    4.2127
   14.370    4.2478
   14.385    4.1425
   14.400    4.2654
   14.415    4.3356
   14.430    4.4409
   14.445    4.2303
   14.460    4.1250
   14.475    4.2127
   14.490    4.1074
   14.505    4.7744
   14.520    4.9149
   14.535    4.3181
   14.550    4.2478
   14.565    4.4936
   14.580    4.4585
   14.595    4.3356
   14.610    4.3707
   14.625    4.3532
   14.640    4.1074
   14.655    4.0548
   14.670    4.1250
   14.685    3.9319
   14.700    4.2478
   14.715    4.0723
   14.730    4.3181
   14.745    3.9846
   14.760    3.8441
   14.775    4.4058
   14.790    4.0021
   14.805    3.8441
   14.820    4.4409
   14.835    4.1425
   14.850    4.6691
   14.865    4.2830
   14.880    4.5814
   14.895    4.0197
   14.910    4.0899
   14.925    4.7042
   14.940    4.3707
   14.955    4.2478
   14.970    4.4058
   14.985    4.0197
   15.000    4.0548
   15.015    3.8968
   15.030    4.3356
   15.045    4.2654
   15.060    4.6516
   15.075    4.4058
   15.090    4.0723
   15.105    4.0548
   15.120    4.5111
   15.135    4.1776
   15.150    4.1601
   15.165    3.7915
   15.180    4.2654
   15.195    4.5287
   15.210    4.1601
   15.225    3.8792
   15.240    4.0548
   15.255    4.2830
   15.270    4.0723
   15.285    3.7037
   15.300    4.0372
   15.315    4.2303
   15.330    4.1250
   15.345    3.8617
   15.360    3.9846
   15.375    4.2127
   15.390    4.0021
   15.405    4.0723
   15.420    4.1776
   15.435    4.3181
   15.450    3.9846
   15.465    4.1776
   15.480    4.2127
   15.495    4.0899
   15.510    3.8617
   15.525    4.0197
   15.540    4.0548
   15.555    4.0197
   15.570    4.0899
   15.585    4.2830
   15.600    4.1952
   15.615    4.1601
   15.630    4.1776
   15.645    3.8441
   15.660    4.2127
   15.675    3.9143
   15.690    4.0548
   15.705    4.3356
   15.720    4.1250
   15.735    4.2830
   15.750    4.1250
   15.765    4.2127
   15.780    3.9143
   15.795    4.3883
   15.810    3.9143
   15.825    3.8968
   15.840    4.1776
   15.855    3.9670
   15.870    3.6862
   15.885    4.1074
   15.900    3.9494
   15.915    3.8266
   15.930    4.2303
   15.945    3.9494
   15.960    4.1601
   15.975    3.7213
   15.990    4.1250
   16.005    4.1952
   16.020    3.9319
   16.035    4.2478
   16.050    4.3883
   16.065    3.7739
   16.080    3.9846
   16.095    4.1074
   16.110    4.0372
   16.125    4.3356
   16.140    3.8617
   16.155    4.2654
   16.170    4.0197
   16.185    4.0021
   16.200    4.0197
   16.215    4.5463
   16.230    4.1074
   16.245    4.3181
   16.260    3.6510
   16.275    3.7037
   16.290    4.3707
   16.305    4.4058
   16.320    4.2303
   16.335    4.1425
   16.350    4.2654
   16.365    4.1425
   16.380    4.2830
   16.395    3.8792
   16.410    3.7564
   16.425    4.2654
   16.440    4.5638
   16.455    4.3883
   16.470    4.3356
   16.485    4.1776
   16.500    4.1601
   16.515    4.4936
   16.530    4.0021
   16.545    3.7739
   16.560    4.0723
   16.575    4.2654
   16.590    4.5287
   16.605    4.3181
   16.620    4.1074
   16.635    3.8792
   16.650    4.2303
   16.665    4.1776
   16.680    4.1250
   16.695    4.0899
   16.710    4.0723
   16.725    4.0548
   16.740    4.0197
   16.755    3.9670
   16.770    4.3356
   16.785    4.2654
   16.800    4.3707
   16.815    4.1074
   16.830    4.5111
   16.845    3.9494
   16.860    3.9670
   16.875    3.9494
   16.890    3.9319
   16.905    4.0372
   16.920    4.0723
   16.935    4.1074
   16.950    4.3181
   16.965    4.0372
   16.980    4.1776
   16.995    4.3883
   17.010    4.4058
   17.025    3.9670
   17.040    3.9143
   17.055    3.7564
   17.070    4.1601
   17.085    4.1250
   17.100    3.9319
   17.115    3.7037
   17.130    3.7388
   17.145    4.0021
   17.160    3.9670
   17.175    3.8792
   17.190    4.2127
   17.205    4.2830
   17.220    4.3005
   17.235    3.8266
   17.250    3.8266
   17.265    4.1952
   17.280    3.6510
   17.295    4.1601
   17.310    4.7744
   17.325    4.5287
   17.340    4.2478
   17.355    3.9143
   17.370    4.2127
   17.385    4.3356
   17.400    4.2478
   17.415    4.0548
   17.430    4.1776
   17.445    3.8266
   17.460    4.0197
   17.475    3.7915
   17.490    3.8441
   17.505    4.1250
   17.520    3.9143
   17.535    3.9494
   17.550    4.3005
   17.565    3.8968
   17.580    3.8090
   17.595    3.9846
   17.610    3.9670
   17.625    3.7388
   17.640    4.2127
   17.655    3.8441
   17.670    3.7739
   17.685    3.7739
   17.700    4.2478
   17.715    4.1425
   17.730    3.9670
   17.745    3.7564
   17.760    3.5106
   17.775    4.0548
   17.790    3.7388
   17.805    4.0548
   17.820    3.9846
   17.835    3.9494
   17.850    4.3707
   17.865    4.2303
   17.880    4.3356
   17.895    4.3356
   17.910    4.2303
   17.925    4.8798
   17.940    4.1074
   17.955    3.8441
   17.970    4.7569
   17.985    4.5111
   18.000    3.8792
   18.015    3.6335
   18.030    3.9670
   18.045    4.2478
   18.060    4.0197
   18.075    4.5287
   18.090    4.2478
   18.105    3.9670
   18.120    3.9846
   18.135    4.0899
   18.150    4.2830
   18.165    3.5282
   18.180    4.1425
   18.195    4.3532
   18.210    3.9670
   18.225    3.9319
   18.240    4.4409
   18.255    4.2127
   18.270    4.2478
   18.285    3.9494
   18.300    4.2478
   18.315    4.2303
   18.330    4.2303
   18.345    4.2127
   18.360    3.8792
   18.375    4.0723
   18.390    4.5287
   18.405    4.4409
   18.420    3.9319
   18.435    3.9670
   18.450    4.2127
   18.465    4.1776
   18.480    3.9143
   18.495    3.7388
   18.510    4.2478
   18.525    3.7915
   18.540    3.8617
   18.555    4.1601
   18.570    4.5287
   18.585    4.2303
   18.600    3.8968
   18.615    3.9143
   18.630    4.2127
   18.645    4.4936
   18.660    4.1952
   18.675    3.9670
   18.690    4.0723
   18.705    3.9319
   18.720    3.9494
   18.735    4.4760
   18.750    4.1776
   18.765    3.9319
   18.780    4.4585
   18.795    4.1074
   18.810    3.8968
   18.825    4.1250
   18.840    4.4936
   18.855    4.0197
   18.870    3.7915
   18.885    4.3532
   18.900    4.7393
   18.915    4.3005
   18.930    4.3181
   18.945    4.4234
   18.960    3.9670
   18.975    3.9846
   18.990    4.5989
   19.005    4.3532
   19.020    4.0021
   19.035    3.8792
   19.050    3.8792
   19.065    3.8090
   19.080    4.1250
   19.095    3.8968
   19.110    4.2654
   19.125    4.2654
   19.140    3.8617
   19.155    4.0899
   19.170    3.8792
   19.185    3.9143
   19.200    4.0372
   19.215    3.8968
   19.230    3.8090
   19.245    4.2127
   19.260    4.3356
   19.275    4.3532
   19.290    4.2303
   19.305    4.2830
   19.320    4.0899
   19.335    4.1074
   19.350    4.1601
   19.365    4.0548
   19.380    3.8792
   19.395    4.2303
   19.410    4.2127
   19.425    4.0723
   19.440    3.5633
   19.455    4.0372
   19.470    4.3005
   19.485    3.9846
   19.500    3.9670
   19.515    4.1601
   19.530    4.2478
   19.545    4.4936
   19.560    3.9319
   19.575    4.0899
   19.590    4.3005
   19.605    4.0197
   19.620    4.2303
   19.635    4.1952
   19.650    4.1074
   19.665    4.1425
   19.680    4.6516
   19.695    4.0899
   19.710    4.0372
   19.725    3.8266
   19.740    3.8441
   19.755    3.8441
   19.770    3.6686
   19.785    4.0548
   19.800    3.8792
   19.815    4.0899
   19.830    3.8441
   19.845    4.3532
   19.860    3.9670
   19.875    3.9143
   19.890    4.1776
   19.905    3.9846
   19.920    3.7739
   19.935    4.2830
   19.950    4.3532
   19.965    3.8441
   19.980    3.6686
   19.995    3.8968
   20.010    4.1074
   20.025    4.2127
   20.040    3.7564
   20.055    3.9494
   20.070    3.4931
   20.085    3.7739
   20.100    4.4058
   20.115    4.0372
   20.130    4.0723
   20.145    3.8090
   20.160    3.8968
   20.175    4.4058
   20.190    4.5111
   20.205    4.1074
   20.220    4.0021
   20.235    4.0723
   20.250    4.3532
   20.265    4.0021
   20.280    4.2830
   20.295    3.9143
   20.310    3.7739
   20.325    3.9670
   20.340    4.2303
   20.355    4.0548
   20.370    4.1952
   20.385    3.9319
   20.400    3.9494
   20.415    3.6686
   20.430    4.0372
   20.445    4.0723
   20.460    4.3356
   20.475    4.1776
   20.490    3.7564
   20.505    3.6686
   20.520    3.8792
   20.535    3.6510
   20.550    4.1250
   20.565    4.0197
   20.580    4.2127
   20.595    4.0899
   20.610    4.0021
   20.625    4.0548
   20.640    4.2478
   20.655    4.2478
   20.670    3.9494
   20.685    4.3005
   20.700    4.0899
   20.715    3.9494
   20.730    4.0197
   20.745    4.1074
   20.760    4.1074
   20.775    4.1250
   20.790    4.1425
   20.805    4.0197
   20.820    3.8441
   20.835    4.1776
   20.850    4.5814
   20.865    4.3707
   20.880    4.0021
   20.895    4.3356
   20.910    4.0372
   20.925    3.6159
   20.940    4.2654
   20.955    4.1250
   20.970    4.4585
   20.985    3.9143
   21.000    3.6159
   21.015    3.7564
   21.030    4.2830
   21.045    4.1425
   21.060    4.2830
   21.075    3.7739
   21.090    3.5633
   21.105    3.9143
   21.120    3.8792
   21.135    4.0197
   21.150    4.0548
   21.165    4.2127
   21.180    4.1250
   21.195    4.0372
   21.210    4.0899
   21.225    4.2478
   21.240    4.1601
   21.255    3.7037
   21.270    3.9670
   21.285    4.2127
   21.300    4.2303
   21.315    4.0372
   21.330    3.8090
   21.345    3.9319
   21.360    3.8617
   21.375    3.8441
   21.390    3.9319
   21.405    4.3005
   21.420    4.0899
   21.435    3.9846
   21.450    3.6686
   21.465    4.1601
   21.480    4.0548
   21.495    4.1776
   21.510    3.9319
   21.525    3.9494
   21.540    4.0021
   21.555    3.7915
   21.570    3.6686
   21.585    3.9846
   21.600    4.3005
   21.615    4.2830
   21.630    4.2303
   21.645    4.1952
   21.660    4.1776
   21.675    4.1425
   21.690    3.9319
   21.705    3.7388
   21.720    3.7739
   21.735    3.8441
   21.750    4.0723
   21.765    3.9846
   21.780    4.3005
   21.795    3.8792
   21.810    4.0723
   21.825    3.9494
   21.840    3.7037
   21.855    3.7564
   21.870    3.8266
   21.885    4.3532
   21.900    3.8090
   21.915    4.1250
   21.930    4.0723
   21.945    4.1074
   21.960    3.7388
   21.975    3.8441
   21.990    3.8266
   22.005    3.9143
   22.020    3.6159
   22.035    3.9494
   22.050    4.1074
   22.065    3.9670
   22.080    4.0372
   22.095    3.7915
   22.110    4.3356
   22.125    3.8441
   22.140    4.0548
   22.155    3.8441
   22.170    4.0548
   22.185    3.7388
   22.200    3.7388
   22.215    3.7564
   22.230    3.4931
   22.245    3.6510
   22.260    3.8266
   22.275    3.4229
   22.290    3.5984
   22.305    4.1776
   22.320    3.8617
   22.335    4.0021
   22.350    3.8792
   22.365    4.0021
   22.380    3.8441
   22.395    3.7388
   22.410    4.2654
   22.425    4.1250
   22.440    4.0548
   22.455    3.6510
   22.470    4.0723
   22.485    4.2127
   22.500    3.7388
   22.515    4.2654
   22.530    4.2830
   22.545    3.7915
   22.560    4.3883
   22.575    3.9670
   22.590    3.6686
   22.605    3.7739
   22.620    3.6159
   22.635    3.7915
   22.650    4.0021
   22.665    3.9494
   22.680    3.4053
   22.695    4.0197
   22.710    4.3532
   22.725    4.2654
   22.740    4.0548
   22.755    3.9846
   22.770    3.8441
   22.785    3.6335
   22.800    3.8441
   22.815    4.1074
   22.830    3.8968
   22.845    4.0723
   22.860    4.1074
   22.875    3.8617
   22.890    3.5984
   22.905    3.8617
   22.920    3.8441
   22.935    4.0197
   22.950    3.8968
   22.965    4.2478
   22.980    3.4931
   22.995    3.5106
   23.010    3.2122
   23.025    3.8968
   23.040    4.1250
   23.055    3.8792
   23.070    3.6862
   23.085    3.8617
   23.100    3.6335
   23.115    3.5984
   23.130    4.3181
   23.145    3.8441
   23.160    3.8266
   23.175    3.5106
   23.190    3.4931
   23.205    3.8792
   23.220    3.9143
   23.235    3.4580
   23.250    3.7213
   23.265    4.0021
   23.280    3.6862
   23.295    3.7388
   23.310    4.2478
   23.325    4.0021
   23.340    4.0548
   23.355    4.1952
   23.370    3.7564
   23.385    3.7388
   23.400    3.8968
   23.415    3.8441
   23.430    3.7564
   23.445    3.5808
   23.460    3.6862
   23.475    3.8792
   23.490    4.0899
   23.505    3.7564
   23.520    4.2127
   23.535    4.0723
   23.550    3.7564
   23.565    3.4755
   23.580    3.5633
   23.595    3.8266
   23.610    3.7915
   23.625    4.1250
   23.640    3.9494
   23.655    3.3702
   23.670    3.8792
   23.685    3.9494
   23.700    3.7213
   23.715    3.8968
   23.730    4.0548
   23.745    4.0372
   23.760    3.4229
   23.775    3.6335
   23.790    3.2824
   23.805    4.0197
   23.820    3.9319
   23.835    3.5282
   23.850    3.5984
   23.865    3.3175
   23.880    3.8090
   23.895    3.6510
   23.910    3.8441
   23.925    3.9143
   23.940    3.7739
   23.955    3.8266
   23.970    3.7564
   23.985    3.8266
   24.000    4.1425
   24.015    3.7564
   24.030    4.0372
   24.045    3.8617
   24.060    3.8090
   24.075    3.7213
   24.090    3.8617
   24.105    3.5457
   24.120    3.9670
   24.135    3.8792
   24.150    3.3702
   24.165    3.4755
   24.180    3.7388
   24.195    3.7739
   24.210    3.3702
   24.225    3.5106
   24.240    3.6335
   24.255    3.5106
   24.270    3.8792
   24.285    3.9846
   24.300    3.6510
   24.315    3.5984
   24.330    3.7213
   24.345    3.7739
   24.360    3.5984
   24.375    3.4931
   24.390    4.0021
   24.405    3.7037
   24.420    3.7388
   24.435    3.6510
   24.450    3.6510
   24.465    3.6686
   24.480    3.9846
   24.495    3.8441
   24.510    3.5633
   24.525    3.8792
   24.540    3.6335
   24.555    3.6335
   24.570    3.4404
   24.585    3.6335
   24.600    4.0021
   24.615    3.8441
   24.630    3.6159
   24.645    3.8090
   24.660    3.7915
   24.675    3.4053
   24.690    3.6686
   24.705    3.7037
   24.720    3.7213
   24.735    3.7213
   24.750    3.6159
   24.765    3.3000
   24.780    3.7915
   24.795    3.5808
   24.810    3.4755
   24.825    3.5457
   24.840    3.7564
   24.855    3.5808
   24.870    3.5457
   24.885    3.0893
   24.900    3.4580
   24.915    3.5633
   24.930    3.4931
   24.945    3.8968
   24.960    3.7915
   24.975    3.8090
   24.990    3.6510
   25.005    3.8266
   25.020    3.7388
   25.035    3.5282
   25.050    3.6686
   25.065    3.6686
   25.080    3.4229
   25.095    3.9670
   25.110    3.8617
   25.125    3.7037
   25.140    3.7739
   25.155    3.6159
   25.170    3.6510
   25.185    3.7564
   25.200    3.6862
   25.215    3.5633
   25.230    3.3702
   25.245    3.4229
   25.260    3.5633
   25.275    3.5633
   25.290    3.9494
   25.305    3.6686
   25.320    3.7564
   25.335    3.8090
   25.350    3.8441
   25.365    3.8617
   25.380    3.7388
   25.395    3.7739
   25.410    3.5282
   25.425    3.5282
   25.440    3.2824
   25.455    3.6862
   25.470    3.5457
   25.485    3.3877
   25.500    3.4931
   25.515    3.4931
   25.530    3.4755
   25.545    3.6862
   25.560    3.2122
   25.575    3.0191
   25.590    3.4053
   25.605    3.5808
   25.620    3.4404
   25.635    3.6335
   25.650    3.8968
   25.665    3.8090
   25.680    3.6159
   25.695    3.7739
   25.710    3.7388
   25.725    3.5633
   25.740    3.7564
   25.755    3.8266
   25.770    3.7037
   25.785    3.2824
   25.800    3.3351
   25.815    3.3877
   25.830    3.6159
   25.845    3.3175
   25.860    3.6335
   25.875    3.8441
   25.890    3.1771
   25.905    3.1947
   25.920    3.5984
   25.935    3.4755
   25.950    3.3351
   25.965    3.2824
   25.980    3.3526
   25.995    3.7213
   26.010    3.5106
   26.025    3.7915
   26.040    3.4580
   26.055    3.7037
   26.070    3.8090
   26.085    3.7388
   26.100    3.9319
   26.115    3.4229
   26.130    3.5808
   26.145    3.7739
   26.160    3.7739
   26.175    3.7388
   26.190    3.3877
   26.205    3.2473
   26.220    3.5282
   26.235    3.7564
   26.250    3.2824
   26.265    3.4404
   26.280    3.6335
   26.295    3.8090
   26.310    3.6862
   26.325    3.3000
   26.340    3.3000
   26.355    3.0542
   26.370    3.3175
   26.385    3.7739
   26.400    3.5106
   26.415    3.5808
   26.430    3.4229
   26.445    3.6510
   26.460    3.3000
   26.475    3.5106
   26.490    3.3351
   26.505    3.5457
   26.520    3.4580
   26.535    3.3702
   26.550    3.2649
   26.565    3.3351
   26.580    3.6862
   26.595    3.7739
   26.610    3.5633
   26.625    3.8792
   26.640    3.4404
   26.655    3.1947
   26.670    3.1596
   26.685    3.5984
   26.700    3.7388
   26.715    3.2473
   26.730    3.4580
   26.745    3.4229
   26.760    3.1947
   26.775    3.4755
   26.790    3.2473
   26.805    3.4053
   26.820    3.1771
   26.835    3.5808
   26.850    3.3877
   26.865    3.3877
   26.880    3.5457
   26.895    3.2298
   26.910    3.2649
   26.925    3.1947
   26.940    2.9138
   26.955    3.3351
   26.970    3.5984
   26.985    3.3877
   27.000    3.2122
   27.015    3.2122
   27.030    3.3877
   27.045    3.4755
   27.060    3.4404
   27.075    3.3702
   27.090    3.2473
   27.105    3.3526
   27.120    3.7739
   27.135    3.5457
   27.150    3.5457
   27.165    3.4580
   27.180    3.2122
   27.195    3.2824
   27.210    3.2298
   27.225    3.3702
   27.240    3.2298
   27.255    3.2649
   27.270    3.3000
   27.285    3.0893
   27.300    3.1420
   27.315    3.4580
   27.330    3.5808
   27.345    3.6159
   27.360    3.4053
   27.375    3.3175
   27.390    3.5808
   27.405    3.6335
   27.420    3.6159
   27.435    3.5282
   27.450    3.5633
   27.465    3.3526
   27.480    3.2824
   27.495    2.9665
   27.510    3.0542
   27.525    3.6159
   27.540    3.0016
   27.555    3.3175
   27.570    3.8441
   27.585    3.3175
   27.600    3.8090
   27.615    3.2298
   27.630    3.2298
   27.645    3.4053
   27.660    3.4931
   27.675    3.1245
   27.690    3.0016
   27.705    3.7739
   27.720    3.4053
   27.735    3.4404
   27.750    3.3526
   27.765    3.4229
   27.780    3.3702
   27.795    3.1771
   27.810    3.2649
   27.825    3.1947
   27.840    3.6159
   27.855    3.2122
   27.870    3.3351
   27.885    3.0893
   27.900    3.1596
   27.915    3.3702
   27.930    3.5984
   27.945    3.4404
   27.960    3.4229
   27.975    3.6335
   27.990    3.1947
   28.005    3.0542
   28.020    3.5457
   28.035    3.2649
   28.050    3.5984
   28.065    3.1069
   28.080    3.1245
   28.095    3.3526
   28.110    3.5106
   28.125    3.1245
   28.140    3.4755
   28.155    3.2649
   28.170    3.1771
   28.185    3.3351
   28.200    3.7213
   28.215    3.4229
   28.230    3.3877
   28.245    2.8963
   28.260    3.4404
   28.275    3.4229
   28.290    2.9840
   28.305    3.1245
   28.320    3.3175
   28.335    3.3877
   28.350    2.9840
   28.365    3.0893
   28.380    3.6335
   28.395    3.4580
   28.410    3.3877
   28.425    2.8612
   28.440    3.4053
   28.455    3.5808
   28.470    3.3702
   28.485    3.2473
   28.500    3.2649
   28.515    3.2122
   28.530    3.1596
   28.545    3.3526
   28.560    3.2473
   28.575    3.4580
   28.590    3.5457
   28.605    3.2824
   28.620    3.3877
   28.635    3.6510
   28.650    3.3526
   28.665    3.4229
   28.680    3.3000
   28.695    3.3877
   28.710    3.4229
   28.725    3.8792
   28.740    3.2649
   28.755    3.4580
   28.770    3.3351
   28.785    3.2298
   28.800    3.3175
   28.815    3.0016
   28.830    3.0893
   28.845    3.5633
   28.860    3.3526
   28.875    3.3351
   28.890    3.0542
   28.905    3.4404
   28.920    3.6862
   28.935    3.3526
   28.950    3.1947
   28.965    3.2824
   28.980    2.8436
   28.995    3.0542
   29.010    3.0367
   29.025    3.3351
   29.040    3.4755
   29.055    3.3877
   29.070    3.3000
   29.085    3.0542
   29.100    3.2649
   29.115    3.4053
   29.130    2.9138
   29.145    3.1069
   29.160    3.3702
   29.175    3.5633
   29.190    3.2649
   29.205    3.2298
   29.220    3.1069
   29.235    3.3000
   29.250    3.2824
   29.265    3.5984
   29.280    3.1420
   29.295    3.1420
   29.310    3.5106
   29.325    3.0367
   29.340    2.9665
   29.355    3.2649
   29.370    3.4053
   29.385    3.2824
   29.400    3.2298
   29.415    2.9314
   29.430    3.3702
   29.445    3.2473
   29.460    3.0542
   29.475    3.2649
   29.490    2.9665
   29.505    3.0191
   29.520    3.0367
   29.535    3.3175
   29.550    2.8436
   29.565    3.0893
   29.580    3.4931
   29.595    3.5282
   29.610    3.0016
   29.625    3.0718
   29.640    3.1245
   29.655    3.3877
   29.670    3.0718
   29.685    3.2649
   29.700    3.2473
   29.715    2.9665
   29.730    3.3175
   29.745    3.0893
   29.760    3.2122
   29.775    3.3000
   29.790    3.2298
   29.805    3.1245
   29.820    3.4229
   29.835    3.2473
   29.850    3.1245
   29.865    3.0893
   29.880    3.2473
   29.895    3.2122
   29.910    2.8085
   29.925    2.8260
   29.940    3.2824
   29.955    3.3000
   29.970    3.1596
   29.985    3.0893
   30.000    3.1245
   30.015    2.8260
   30.030    3.0893
   30.045    2.8787
   30.060    3.0893
   30.075    2.9840
   30.090    3.2473
   30.105    3.1069
   30.120    2.9489
   30.135    3.0016
   30.150    3.0367
   30.165    2.8787
   30.180    2.7032
   30.195    2.8436
   30.210    3.0191
   30.225    3.0893
   30.240    3.1596
   30.255    3.2122
   30.270    3.2649
   30.285    3.0542
   30.300    2.8612
   30.315    3.2122
   30.330    3.1245
   30.345    3.2824
   30.360    3.0191
   30.375    2.9489
   30.390    2.9314
   30.405    2.8612
   30.420    3.2122
   30.435    3.3175
   30.450    3.0718
   30.465    3.0367
   30.480    2.7207
   30.495    3.0016
   30.510    3.1245
   30.525    3.2122
   30.540    2.9138
   30.555    2.9665
   30.570    2.8085
   30.585    3.0191
   30.600    2.9314
   30.615    3.3351
   30.630    3.1245
   30.645    3.0718
   30.660    2.9138
   30.675    3.1771
   30.690    3.0367
   30.705    2.9314
   30.720    2.8963
   30.735    3.2122
   30.750    3.1420
   30.765    2.7909
   30.780    2.7383
   30.795    2.9665
   30.810    3.0893
   30.825    2.9138
   30.840    3.4755
   30.855    3.0191
   30.870    3.2473
   30.885    3.1596
   30.900    3.0542
   30.915    3.0191
   30.930    2.9489
   30.945    3.0718
   30.960    2.7383
   30.975    3.0016
   30.990    2.9314
   31.005    3.4229
   31.020    3.1771
   31.035    3.0016
   31.050    3.3351
   31.065    2.9138
   31.080    3.1947
   31.095    3.0016
   31.110    3.0893
   31.125    3.1771
   31.140    3.0016
   31.155    2.9489
   31.170    3.0367
   31.185    3.1245
   31.200    3.0718
   31.215    3.0191
   31.230    2.7207
   31.245    3.1069
   31.260    2.7383
   31.275    3.2824
   31.290    3.3000
   31.305    3.4053
   31.320    3.2649
   31.335    2.8436
   31.350    3.1069
   31.365    2.7558
   31.380    2.4223
   31.395    2.6681
   31.410    3.0893
   31.425    3.0191
   31.440    2.8963
   31.455    2.8260
   31.470    3.1245
   31.485    2.9840
   31.500    3.2122
   31.515    2.8085
   31.530    2.6856
   31.545    3.1771
   31.560    3.0893
   31.575    3.0191
   31.590    3.1420
   31.605    3.2824
   31.620    2.8787
   31.635    2.8260
   31.650    3.1069
   31.665    3.0367
   31.680    3.0893
   31.695    3.3175
   31.710    3.1947
   31.725    3.2473
   31.740    2.8787
   31.755    2.9489
   31.770    3.1069
   31.785    2.8612
   31.800    2.7383
   31.815    3.1069
   31.830    2.9489
   31.845    2.8963
   31.860    3.1069
   31.875    2.9489
   31.890    2.5979
   31.905    2.9489
   31.920    3.1771
   31.935    2.7734
   31.950    2.8787
   31.965    3.1245
   31.980    3.0542
   31.995    3.0016
   32.010    2.9489
   32.025    3.0191
   32.040    3.0718
   32.055    2.7909
   32.070    3.0367
   32.085    3.0016
   32.100    3.0016
   32.115    3.0191
   32.130    2.8963
   32.145    2.9489
   32.160    2.7558
   32.175    2.8260
   32.190    3.1069
   32.205    2.8612
   32.220    2.8787
   32.235    3.2824
   32.250    3.0016
   32.265    3.0191
   32.280    2.9840
   32.295    3.0191
   32.310    3.2649
   32.325    3.1420
   32.340    2.8436
   32.355    2.8436
   32.370    2.8260
   32.385    2.6856
   32.400    2.8612
   32.415    2.5803
   32.430    2.8260
   32.445    2.9489
   32.460    3.1596
   32.475    3.0542
   32.490    2.7909
   32.505    2.9138
   32.520    2.6154
   32.535    2.9314
   32.550    3.1596
   32.565    3.2298
   32.580    2.9138
   32.595    2.9840
   32.610    2.8260
   32.625    2.7558
   32.640    2.7207
   32.655    2.7383
   32.670    3.1420
   32.685    2.7383
   32.700    2.7383
   32.715    3.0718
   32.730    2.8260
   32.745    2.4574
   32.760    2.8260
   32.775    2.6505
   32.790    2.6856
   32.805    2.8260
   32.820    2.7207
   32.835    2.8436
   32.850    3.0367
   32.865    3.0016
   32.880    2.9489
   32.895    3.0191
   32.910    2.7734
   32.925    2.8260
   32.940    2.6681
   32.955    2.6330
   32.970    3.0367
   32.985    3.0718
   33.000    2.7909
   33.015    2.9489
   33.030    2.8787
   33.045    3.0016
   33.060    2.7734
   33.075    2.8260
   33.090    2.6330
   33.105    3.0191
   33.120    2.9665
   33.135    2.8260
   33.150    2.9665
   33.165    2.9489
   33.180    2.9489
   33.195    2.6154
   33.210    2.8085
   33.225    2.7734
   33.240    2.9314
   33.255    3.2298
   33.270    2.9314
   33.285    2.7909
   33.300    2.7734
   33.315    2.8260
   33.330    2.9840
   33.345    2.9840
   33.360    2.7207
   33.375    2.5628
   33.390    3.1245
   33.405    2.8085
   33.420    2.5979
   33.435    2.7207
   33.450    2.6505
   33.465    2.7032
   33.480    2.7734
   33.495    3.2824
   33.510    2.5628
   33.525    2.8085
   33.540    2.7383
   33.555    2.4750
   33.570    2.7734
   33.585    2.8436
   33.600    2.7558
   33.615    2.5628
   33.630    2.8963
   33.645    2.9665
   33.660    2.6681
   33.675    2.8260
   33.690    2.7558
   33.705    2.6154
   33.720    2.8260
   33.735    2.7032
   33.750    2.7383
   33.765    2.9314
   33.780    2.9138
   33.795    2.7734
   33.810    2.6330
   33.825    2.4223
   33.840    2.7032
   33.855    2.8436
   33.870    2.8260
   33.885    2.9314
   33.900    2.9489
   33.915    2.8436
   33.930    2.8963
   33.945    2.9138
   33.960    2.8260
   33.975    2.9665
   33.990    2.7734
   34.005    2.9138
   34.020    2.7032
   34.035    2.5979
   34.050    2.9314
   34.065    2.8612
   34.080    2.8612
   34.095    2.8612
   34.110    2.8963
   34.125    2.7032
   34.140    2.4574
   34.155    2.7558
   34.170    2.9138
   34.185    2.6330
   34.200    3.2649
   34.215    3.0542
   34.230    3.1596
   34.245    2.8612
   34.260    2.7734
   34.275    2.7909
   34.290    2.7909
   34.305    2.8260
   34.320    2.7909
   34.335    2.8787
   34.350    2.8963
   34.365    2.7207
   34.380    2.5979
   34.395    2.7558
   34.410    3.3175
   34.425    2.8436
   34.440    2.8260
   34.455    2.6856
   34.470    3.1245
   34.485    2.8260
   34.500    2.6330
   34.515    3.0367
   34.530    2.7032
   34.545    2.8787
   34.560    3.1069
   34.575    2.8612
   34.590    2.7909
   34.605    2.8085
   34.620    2.8260
   34.635    3.2298
   34.650    2.4925
   34.665    2.5803
   34.680    2.7383
   34.695    3.1596
   34.710    2.9489
   34.725    2.7207
   34.740    2.7909
   34.755    2.8085
   34.770    2.8612
   34.785    2.7558
   34.800    2.6856
   34.815    2.7032
   34.830    2.7383
   34.845    2.6505
   34.860    2.5276
   34.875    2.7032
   34.890    2.7032
   34.905    2.7383
   34.920    3.0191
   34.935    2.7383
   34.950    2.8436
   34.965    2.8436
   34.980    2.4048
   34.995    2.8260
   35.010    3.0893
   35.025    3.1771
   35.040    3.0016
   35.055    2.7734
   35.070    2.8260
   35.085    2.4574
   35.100    2.7207
   35.115    2.9489
   35.130    2.9489
   35.145    2.5628
   35.160    2.6856
   35.175    2.9840
   35.190    3.0191
   35.205    3.1420
   35.220    2.5979
   35.235    2.5452
   35.250    2.7558
   35.265    2.6681
   35.280    2.7383
   35.295    2.9489
   35.310    3.0367
   35.325    2.4399
   35.340    2.7558
   35.355    3.1245
   35.370    2.8963
   35.385    3.0191
   35.400    3.1069
   35.415    2.8787
   35.430    2.7032
   35.445    2.4399
   35.460    2.8260
   35.475    2.6681
   35.490    2.6154
   35.505    3.0016
   35.520    2.9840
   35.535    2.6681
   35.550    2.7734
   35.565    2.8260
   35.580    2.5979
   35.595    2.5803
   35.610    2.7383
   35.625    3.0016
   35.640    2.7207
   35.655    2.6856
   35.670    2.8436
   35.685    2.8085
   35.700    2.5101
   35.715    2.6330
   35.730    2.7558
   35.745    3.0542
   35.760    2.8436
   35.775    2.5803
   35.790    2.7032
   35.805    2.7032
   35.820    2.6856
   35.835    2.6856
   35.850    2.6330
   35.865    3.0542
   35.880    2.7734
   35.895    2.7734
   35.910    2.5276
   35.925    2.9314
   35.940    2.7207
   35.955    2.6330
   35.970    2.8260
   35.985    3.0718
   36.000    2.6681
   36.015    2.7032
   36.030    3.0893
   36.045    3.0016
   36.060    2.9138
   36.075    2.7558
   36.090    2.7032
   36.105    2.7032
   36.120    2.5628
   36.135    2.6856
   36.150    2.4750
   36.165    2.7207
   36.180    2.9489
   36.195    2.9314
   36.210    2.7383
   36.225    2.7032
   36.240    2.7909
   36.255    2.6330
   36.270    2.6681
   36.285    2.9314
   36.300    3.0191
   36.315    2.9665
   36.330    2.9840
   36.345    2.8612
   36.360    2.8436
   36.375    2.6856
   36.390    2.7734
   36.405    2.5101
   36.420    2.9489
   36.435    2.7558
   36.450    2.7207
   36.465    2.8085
   36.480    2.7558
   36.495    2.4574
   36.510    2.9840
   36.525    3.0016
   36.540    2.9840
   36.555    2.2468
   36.570    2.5803
   36.585    2.4750
   36.600    2.9314
   36.615    3.1245
   36.630    3.2473
   36.645    2.9489
   36.660    2.8436
   36.675    2.7558
   36.690    2.7207
   36.705    2.9489
   36.720    2.8260
   36.735    3.0016
   36.750    2.7207
   36.765    2.7909
   36.780    2.5452
   36.795    2.5276
   36.810    2.5101
   36.825    2.5803
   36.840    2.8612
   36.855    2.8612
   36.870    2.6856
   36.885    2.9138
   36.900    2.6681
   36.915    2.5979
   36.930    2.9489
   36.945    2.8436
   36.960    3.1245
   36.975    2.8436
   36.990    2.5101
   37.005    2.8436
   37.020    2.8260
   37.035    2.8085
   37.050    2.7207
   37.065    3.0367
   37.080    2.9138
   37.095    2.8436
   37.110    2.7032
   37.125    3.0367
   37.140    2.7383
   37.155    2.7032
   37.170    2.4750
   37.185    2.5803
   37.200    2.5101
   37.215    2.7383
   37.230    3.0016
   37.245    2.9665
   37.260    2.8787
   37.275    2.8260
   37.290    2.6330
   37.305    2.7734
   37.320    2.7734
   37.335    2.2292
   37.350    2.6856
   37.365    2.6330
   37.380    2.9840
   37.395    2.5452
   37.410    2.4574
   37.425    2.5276
   37.440    2.6856
   37.455    2.7734
   37.470    2.8260
   37.485    3.0016
   37.500    2.7734
   37.515    2.7909
   37.530    2.6154
   37.545    2.6154
   37.560    2.8787
   37.575    2.9138
   37.590    2.9840
   37.605    2.9665
   37.620    2.7207
   37.635    2.5276
   37.650    2.8787
   37.665    2.8787
   37.680    2.8085
   37.695    2.8436
   37.710    2.6856
   37.725    2.5979
   37.740    2.6330
   37.755    2.6330
   37.770    2.8260
   37.785    2.8787
   37.800    2.5979
   37.815    3.0718
   37.830    2.8260
   37.845    2.5101
   37.860    2.6505
   37.875    2.9489
   37.890    2.6856
   37.905    2.5979
   37.920    2.4925
   37.935    2.8612
   37.950    2.8963
   37.965    2.7207
   37.980    2.4925
   37.995    2.5628
   38.010    2.8436
   38.025    2.8085
   38.040    2.6330
   38.055    2.7734
   38.070    2.4399
   38.085    2.7909
   38.100    2.5628
   38.115    2.7909
   38.130    2.7909
   38.145    2.3697
   38.160    2.7383
   38.175    2.7734
   38.190    2.6681
   38.205    2.5101
   38.220    2.9314
   38.235    2.4925
   38.250    2.6681
   38.265    2.4925
   38.280    2.6681
   38.295    3.0016
   38.310    2.9138
   38.325    2.7383
   38.340    2.6154
   38.355    2.3346
   38.370    2.9138
   38.385    2.9840
   38.400    2.7207
   38.415    2.6154
   38.430    2.8612
   38.445    2.6154
   38.460    2.7207
   38.475    2.9489
   38.490    2.6330
   38.505    2.7383
   38.520    2.5803
   38.535    2.7383
   38.550    2.8612
   38.565    3.0016
   38.580    2.7909
   38.595    2.8260
   38.610    2.9138
   38.625    2.8436
   38.640    2.7558
   38.655    3.1420
   38.670    2.8085
   38.685    2.7032
   38.700    2.8963
   38.715    2.8787
   38.730    2.3521
   38.745    2.7383
   38.760    2.7383
   38.775    2.7207
   38.790    2.6154
   38.805    2.5979
   38.820    2.5101
   38.835    2.7032
   38.850    2.8612
   38.865    2.6154
   38.880    2.7734
   38.895    2.8787
   38.910    2.7558
   38.925    2.5979
   38.940    2.9138
   38.955    2.7207
   38.970    2.2643
   38.985    2.4223
   39.000    2.6330
   39.015    2.5276
   39.030    2.5979
   39.045    2.7207
   39.060    2.7207
   39.075    2.5276
   39.090    2.4750
   39.105    2.5628
   39.120    2.5628
   39.135    2.7032
   39.150    2.5276
   39.165    2.7383
   39.180    2.7558
   39.195    2.7734
   39.210    2.6505
   39.225    2.6154
   39.240    2.7734
   39.255    2.8260
   39.270    2.5276
   39.285    2.6505
   39.300    2.9665
   39.315    2.7734
   39.330    3.0718
   39.345    2.6154
   39.360    2.6154
   39.375    2.5979
   39.390    2.7383
   39.405    2.7383
   39.420    2.4574
   39.435    2.6330
   39.450    2.8260
   39.465    2.5276
   39.480    2.4399
   39.495    2.4048
   39.510    2.5452
   39.525    2.6154
   39.540    2.9489
   39.555    2.8787
   39.570    2.9489
   39.585    2.8085
   39.600    2.5803
   39.615    2.4925
   39.630    2.5628
   39.645    2.8612
   39.660    2.7734
   39.675    2.6681
   39.690    2.6154
   39.705    2.8260
   39.720    2.4574
   39.735    2.6505
   39.750    2.8787
   39.765    2.5452
   39.780    2.4223
   39.795    2.7909
   39.810    2.9138
   39.825    2.7383
   39.840    2.5979
   39.855    2.9314
   39.870    2.7558
   39.885    2.5803
   39.900    2.5979
   39.915    2.6856
   39.930    2.9138
   39.945    2.7558
   39.960    2.8787
   39.975    2.5101
   39.990    2.7032
   40.005    2.9314
   40.020    2.9489
   40.035    2.9489
   40.050    3.0542
   40.065    2.9138
   40.080    2.6681
   40.095    2.7383
   40.110    2.6330
   40.125    3.0191
   40.140    3.0367
   40.155    2.9138
   40.170    2.7383
   40.185    2.6330
   40.200    2.6681
   40.215    2.7032
   40.230    3.0016
   40.245    2.9840
   40.260    2.4223
   40.275    2.6154
   40.290    2.4925
   40.305    2.5803
   40.320    2.6856
   40.335    2.8436
   40.350    2.9489
   40.365    2.8260
   40.380    2.7558
   40.395    2.3521
   40.410    2.9314
   40.425    2.8436
   40.440    2.6681
   40.455    3.0893
   40.470    2.6681
   40.485    2.5452
   40.500    2.3697
   40.515    2.5628
   40.530    2.7558
   40.545    2.6505
   40.560    2.5452
   40.575    2.6330
   40.590    2.5628
   40.605    2.5979
   40.620    2.7383
   40.635    2.7207
   40.650    2.4925
   40.665    2.6330
   40.680    2.6681
   40.695    2.5979
   40.710    2.6856
   40.725    2.6330
   40.740    2.4925
   40.755    2.6330
   40.770    2.5979
   40.785    2.4399
   40.800    2.5628
   40.815    2.7383
   40.830    2.3170
   40.845    2.5979
   40.860    2.7207
   40.875    2.6505
   40.890    2.4574
   40.905    2.5628
   40.920    2.7558
   40.935    2.7734
   40.950    2.7207
   40.965    2.5803
   40.980    2.9665
   40.995    2.8787
   41.010    2.9840
   41.025    2.2995
   41.040    2.3346
   41.055    2.5452
   41.070    2.6505
   41.085    2.6681
   41.100    2.5452
   41.115    2.5979
   41.130    2.3697
   41.145    2.6856
   41.160    2.8260
   41.175    2.8436
   41.190    2.5803
   41.205    2.7734
   41.220    2.7909
   41.235    2.9489
   41.250    2.8260
   41.265    2.7558
   41.280    2.8260
   41.295    2.6154
   41.310    2.7032
   41.325    2.6330
   41.340    2.7558
   41.355    2.5803
   41.370    2.5628
   41.385    2.7558
   41.400    2.8260
   41.415    2.5979
   41.430    2.6856
   41.445    2.7032
   41.460    2.6154
   41.475    2.4399
   41.490    2.5452
   41.505    2.6505
   41.520    2.8612
   41.535    2.8612
   41.550    2.5979
   41.565    2.5276
   41.580    2.8612
   41.595    2.7558
   41.610    2.6330
   41.625    2.7032
   41.640    2.3872
   41.655    2.5979
   41.670    2.8260
   41.685    2.7558
   41.700    2.5979
   41.715    2.6856
   41.730    2.7734
   41.745    2.4574
   41.760    2.5628
   41.775    2.4925
   41.790    2.9665
   41.805    2.7734
   41.820    2.8085
   41.835    2.8436
   41.850    2.7207
   41.865    2.3697
   41.880    2.4048
   41.895    2.5979
   41.910    2.4048
   41.925    2.9665
   41.940    3.0191
   41.955    2.7032
   41.970    2.7207
   41.985    2.6505
   42.000    2.4750
   42.015    2.8787
   42.030    2.6681
   42.045    2.5101
   42.060    3.0191
   42.075    2.7909
   42.090    2.6505
   42.105    2.7032
   42.120    2.8787
   42.135    2.5101
   42.150    2.6154
   42.165    2.7383
   42.180    2.6856
   42.195    2.6505
   42.210    2.7909
   42.225    2.4574
   42.240    2.5452
   42.255    2.6681
   42.270    2.7032
   42.285    3.0016
   42.300    2.5979
   42.315    2.7558
   42.330    2.8963
   42.345    2.7032
   42.360    2.9314
   42.375    2.7909
   42.390    2.7909
   42.405    2.6856
   42.420    3.0542
   42.435    3.0542
   42.450    2.5101
   42.465    2.7734
   42.480    2.8260
   42.495    2.6154
   42.510    2.5101
   42.525    2.6505
   42.540    2.5452
   42.555    2.5628
   42.570    2.3872
   42.585    2.7207
   42.600    2.5276
   42.615    2.1766
   42.630    2.5452
   42.645    2.5803
   42.660    2.2819
   42.675    2.5276
   42.690    2.7558
   42.705    2.6154
   42.720    2.4925
   42.735    2.6505
   42.750    2.7558
   42.765    2.5276
   42.780    3.0367
   42.795    2.8963
   42.810    2.6330
   42.825    2.5979
   42.840    2.6856
   42.855    2.4399
   42.870    2.5979
   42.885    2.5628
   42.900    2.7383
   42.915    3.0191
   42.930    2.7207
   42.945    2.8260
   42.960    2.4750
   42.975    2.6856
   42.990    2.7383
   43.005    2.8260
   43.020    2.5803
   43.035    2.6330
   43.050    2.4399
   43.065    2.6505
   43.080    2.6856
   43.095    2.5452
   43.110    2.7207
   43.125    2.8260
   43.140    2.6154
   43.155    2.4574
   43.170    3.0718
   43.185    3.0191
   43.200    2.9840
   43.215    2.4925
   43.230    2.5803
   43.245    2.5101
   43.260    2.4399
   43.275    2.3872
   43.290    2.6154
   43.305    2.6505
   43.320    2.6681
   43.335    2.7558
   43.350    3.0542
   43.365    2.5276
   43.380    2.6154
   43.395    2.9489
   43.410    2.7734
   43.425    2.8963
   43.440    2.5979
   43.455    2.4399
   43.470    2.5452
   43.485    2.6505
   43.500    2.8436
   43.515    2.8963
   43.530    2.7032
   43.545    2.4750
   43.560    2.4048
   43.575    2.6330
   43.590    3.2122
   43.605    2.8085
   43.620    2.6681
   43.635    2.4925
   43.650    2.4048
   43.665    2.7909
   43.680    2.7909
   43.695    2.7383
   43.710    2.7032
   43.725    2.7909
   43.740    3.0367
   43.755    3.0542
   43.770    2.8787
   43.785    2.8085
   43.800    2.5452
   43.815    2.8085
   43.830    2.6154
   43.845    2.4399
   43.860    2.7383
   43.875    2.6330
   43.890    2.5803
   43.905    2.7207
   43.920    2.4574
   43.935    2.4574
   43.950    2.7207
   43.965    2.6330
   43.980    2.8436
   43.995    2.6681
   44.010    2.4925
   44.025    2.2819
   44.040    2.7383
   44.055    2.7207
   44.070    2.4399
   44.085    2.7032
   44.100    2.8787
   44.115    2.8787
   44.130    2.7734
   44.145    2.5276
   44.160    2.5803
   44.175    2.6330
   44.190    2.6681
   44.205    2.7909
   44.220    2.7734
   44.235    2.6505
   44.250    2.6154
   44.265    2.5452
   44.280    2.8085
   44.295    2.6681
   44.310    2.6330
   44.325    2.7909
   44.340    2.5276
   44.355    2.5452
   44.370    2.8085
   44.385    2.6154
   44.400    2.5276
   44.415    2.6505
   44.430    2.7383
   44.445    2.7558
   44.460    2.4750
   44.475    2.5628
   44.490    2.7909
   44.505    2.8787
   44.520    2.8260
   44.535    2.8963
   44.550    2.8436
   44.565    2.8612
   44.580    2.7207
   44.595    2.7032
   44.610    2.7207
   44.625    2.6856
   44.640    2.7558
   44.655    2.7207
   44.670    2.6330
   44.685    2.6681
   44.700    2.8612
   44.715    2.7032
   44.730    2.5628
   44.745    2.6154
   44.760    2.5803
   44.775    2.6505
   44.790    2.7909
   44.805    2.3872
   44.820    2.5803
   44.835    2.5101
   44.850    2.6154
   44.865    2.7032
   44.880    2.7032
   44.895    2.6681
   44.910    2.6505
   44.925    2.5628
   44.940    2.5803
   44.955    2.4925
   44.970    2.6856
   44.985    2.6154
   45.000    2.3346
   45.015    2.6330
   45.030    2.3170
   45.045    2.5276
   45.060    2.7734
   45.075    2.7207
   45.090    2.5803
   45.105    2.5979
   45.120    2.5803
   45.135    2.7558
   45.150    2.5276
   45.165    2.5101
   45.180    2.3521
   45.195    2.7383
   45.210    2.6505
   45.225    2.5276
   45.240    2.6505
   45.255    2.4399
   45.270    2.6330
   45.285    2.8260
   45.300    2.7383
   45.315    2.8260
   45.330    2.4048
   45.345    2.4574
   45.360    2.4750
   45.375    2.4925
   45.390    2.4048
   45.405    2.5628
   45.420    2.7383
   45.435    2.6856
   45.450    2.7032
   45.465    2.3521
   45.480    2.7207
   45.495    2.7207
   45.510    2.5276
   45.525    2.6154
   45.540    2.4925
   45.555    2.5101
   45.570    2.5979
   45.585    2.7032
   45.600    2.6154
   45.615    2.4574
   45.630    2.2468
   45.645    2.7558
   45.660    2.5276
   45.675    2.5101
   45.690    2.5101
   45.705    2.5628
   45.720    2.4750
   45.735    2.3170
   45.750    2.3697
   45.765    2.5979
   45.780    2.4925
   45.795    2.6681
   45.810    2.6154
   45.825    2.5452
   45.840    2.3872
   45.855    2.3346
   45.870    2.5803
   45.885    2.2292
   45.900    2.2292
   45.915    2.6330
   45.930    2.5979
   45.945    2.3697
   45.960    2.4399
   45.975    2.6330
   45.990    2.4399
   46.005    2.3521
   46.020    2.1941
   46.035    2.3346
   46.050    2.4048
   46.065    2.3872
   46.080    2.4399
   46.095    2.4048
   46.110    2.5979
   46.125    2.8787
   46.140    2.5276
   46.155    2.5628
   46.170    2.5979
   46.185    2.4925
   46.200    2.6856
   46.215    2.7032
   46.230    2.4048
   46.245    2.1590
   46.260    2.4048
   46.275    2.6154
   46.290    2.7383
   46.305    2.5979
   46.320    2.4750
   46.335    2.4223
   46.350    2.4925
   46.365    2.7558
   46.380    2.4399
   46.395    2.5628
   46.410    2.6505
   46.425    2.6330
   46.440    2.6330
   46.455    2.3521
   46.470    2.3346
   46.485    2.3346
   46.500    2.8260
   46.515    2.6154
   46.530    2.4925
   46.545    2.7558
   46.560    2.8787
   46.575    2.8612
   46.590    2.7558
   46.605    2.5276
   46.620    2.4750
   46.635    2.5452
   46.650    2.5101
   46.665    2.3170
   46.680    2.7383
   46.695    2.4223
   46.710    2.7558
   46.725    2.6505
   46.740    2.6505
   46.755    2.4223
   46.770    2.8612
   46.785    2.5452
   46.800    2.6505
   46.815    2.4048
   46.830    2.5276
   46.845    2.5979
   46.860    2.8787
   46.875    2.4223
   46.890    2.4925
   46.905    2.4223
   46.920    2.4223
   46.935    2.8085
   46.950    2.5101
   46.965    2.2995
   46.980    2.6856
   46.995    2.6505
   47.010    2.4399
   47.025    2.4750
   47.040    2.6154
   47.055    2.7207
   47.070    2.5979
   47.085    2.7207
   47.100    2.7207
   47.115    2.4223
   47.130    2.4925
   47.145    2.3872
   47.160    2.5276
   47.175    2.7383
   47.190    2.6856
   47.205    2.6330
   47.220    2.4574
   47.235    2.3346
   47.250    2.4223
   47.265    2.4399
   47.280    2.4223
   47.295    2.6505
   47.310    2.9138
   47.325    2.5979
   47.340    2.5276
   47.355    2.5979
   47.370    2.4925
   47.385    2.1941
   47.400    2.4399
   47.415    2.3170
   47.430    2.4574
   47.445    2.5452
   47.460    2.6505
   47.475    2.6856
   47.490    2.8612
   47.505    2.5452
   47.520    2.5276
   47.535    2.3521
   47.550    2.5803
   47.565    2.5628
   47.580    1.9484
   47.595    2.5803
   47.610    2.5628
   47.625    2.4750
   47.640    2.4223
   47.655    2.2643
   47.670    2.2819
   47.685    2.6505
   47.700    2.2995
   47.715    2.7558
   47.730    2.3521
   47.745    2.3170
   47.760    2.2995
   47.775    2.4223
   47.790    2.6330
   47.805    2.4750
   47.820    2.5101
   47.835    2.6505
   47.850    2.4048
   47.865    2.4925
   47.880    2.2292
   47.895    2.3521
   47.910    2.5628
   47.925    2.5276
   47.940    2.4574
   47.955    2.4574
   47.970    2.1239
   47.985    2.5101
   48.000    2.3872
   48.015    2.4223
   48.030    2.2819
   48.045    2.6330
   48.060    2.7558
   48.075    2.6330
   48.090    2.6681
   48.105    2.7032
   48.120    2.3346
   48.135    2.4223
   48.150    2.4223
   48.165    2.7383
   48.180    2.6681
   48.195    2.5628
   48.210    2.3521
   48.225    2.4574
   48.240    2.4048
   48.255    2.4925
   48.270    2.5979
   48.285    2.3170
   48.300    2.4048
   48.315    2.2819
   48.330    2.4223
   48.345    2.5803
   48.360    2.4925
   48.375    2.4750
   48.390    2.2643
   48.405    2.3170
   48.420    2.7032
   48.435    2.4399
   48.450    2.3697
   48.465    2.2468
   48.480    2.5979
   48.495    2.5101
   48.510    2.6505
   48.525    2.5452
   48.540    2.4223
   48.555    2.3872
   48.570    2.3346
   48.585    2.5628
   48.600    2.4048
   48.615    2.5452
   48.630    2.8963
   48.645    2.5628
   48.660    2.4048
   48.675    2.3170
   48.690    2.3170
   48.705    2.4399
   48.720    2.1064
   48.735    2.3697
   48.750    2.5452
   48.765    2.5628
   48.780    2.6154
   48.795    2.5803
   48.810    2.1590
   48.825    2.4750
   48.840    2.4925
   48.855    2.6154
   48.870    2.3521
   48.885    2.4750
   48.900    2.5452
   48.915    2.7383
   48.930    2.2468
   48.945    2.5101
   48.960    2.1064
   48.975    2.3346
   48.990    2.4399
   49.005    2.4399
   49.020    2.2643
   49.035    2.2819
   49.050    2.4925
   49.065    2.4750
   49.080    2.1766
   49.095    2.2995
   49.110    2.5101
   49.125    2.5803
   49.140    2.6154
   49.155    2.4750
   49.170    2.4750
   49.185    2.7032
   49.200    2.5803
   49.215    2.6330
   49.230    2.7558
   49.245    2.2819
   49.260    2.2468
   49.275    2.2292
   49.290    2.3521
   49.305    2.2643
   49.320    2.4223
   49.335    2.5803
   49.350    2.4048
   49.365    2.3346
   49.380    2.4574
   49.395    2.8260
   49.410    2.5276
   49.425    2.5452
   49.440    2.4048
   49.455    2.3697
   49.470    2.5276
   49.485    2.7383
   49.500    2.5276
   49.515    2.6330
   49.530    2.9314
   49.545    2.5979
   49.560    2.0888
   49.575    2.2819
   49.590    2.5452
   49.605    2.7383
   49.620    2.5628
   49.635    2.3872
   49.650    2.4574
   49.665    2.3521
   49.680    2.5979
   49.695    2.3346
   49.710    2.1941
   49.725    2.2995
   49.740    2.4750
   49.755    2.3346
   49.770    2.3346
   49.785    2.1766
   49.800    2.0888
   49.815    2.3697
   49.830    2.5979
   49.845    2.2819
   49.860    2.4574
   49.875    2.5452
   49.890    2.6330
   49.905    2.2819
   49.920    2.2643
   49.935    2.4925
   49.950    2.5628
   49.965    2.3521
   49.980    2.6681
