    1.500    7.9410
    1.515    7.9410
    1.530    7.9305
    1.545    7.8462
    1.560    7.8778
    1.575    8.1201
    1.590    7.5408
    1.605    7.9200
    1.620    7.5619
    1.635    7.2565
    1.650    6.9089
    1.665    7.4460
    1.680    7.2880
    1.695    7.2986
    1.710    7.2459
    1.725    6.7720
    1.740    7.0458
    1.755    7.0458
    1.770    6.5613
    1.785    6.8984
    1.800    6.8141
    1.815    6.3928
    1.830    6.4455
    1.845    6.0558
    1.860    6.6877
    1.875    6.0137
    1.890    6.3296
    1.905    6.1927
    1.920    5.8978
    1.935    5.8873
    1.950    6.2349
    1.965    6.0242
    1.980    5.8136
    1.995    5.9189
    2.010    5.8241
    2.025    5.8557
    2.040    5.7188
    2.055    5.7715
    2.070    5.9294
    2.085    5.8347
    2.100    5.8768
    2.115    5.3607
    2.130    5.7609
    2.145    5.6451
    2.160    5.6661
    2.175    5.3607
    2.190    5.4976
    2.205    5.5608
    2.220    5.8136
    2.235    5.2343
    2.250    5.2659
    2.265    5.3712
    2.280    5.6872
    2.295    5.7925
    2.310    5.8768
    2.325    5.4134
    2.340    5.5714
    2.355    5.5292
    2.370    5.5292
    2.385    5.8031
    2.400    5.5924
    2.415    5.6556
    2.430    5.4871
    2.445    5.5503
    2.460    5.5503
    2.475    5.5503
    2.490    5.7188
    2.505    6.0453
    2.520    5.7925
    2.535    5.7399
    2.550    5.8031
    2.565    5.8452
    2.580    6.0664
    2.595    6.5719
    2.610    5.7925
    2.625    6.1085
    2.640    6.1822
    2.655    6.6877
    2.670    6.5403
    2.685    6.8352
    2.700    6.9826
    2.715    7.5935
    2.730    7.2038
    2.745    7.1617
    2.760    7.9937
    2.775    8.2149
    2.790    8.0885
    2.805    8.3728
    2.820    8.4992
    2.835    8.6045
    2.850    8.9415
    2.865    9.3312
    2.880    9.5840
    2.895   10.2686
    2.910   10.5529
    2.925   10.8583
    2.940   11.1111
    2.955   12.1011
    2.970   12.1538
    2.985   13.2175
    3.000   13.4597
    3.015   13.7230
    3.030   14.1969
    3.045   15.1132
    3.060   15.5556
    3.075   16.0716
    3.090   17.3038
    3.105   18.5045
    3.120   18.7256
    3.135   20.4213
    3.150   21.2006
    3.165   22.4434
    3.180   23.7388
    3.195   25.6451
    3.210   27.1511
    3.225   28.1095
    3.240   30.5529
    3.255   31.8694
    3.270   34.1338
    3.285   37.4618
    3.300   39.3786
    3.315   42.0748
    3.330   47.0669
    3.345   51.0795
    3.360   54.3760
    3.375   58.4624
    3.390   63.9705
    3.405   69.1943
    3.420   74.9658
    3.435   80.1896
    3.450   81.8641
    3.465   83.1174
    3.480   78.7783
    3.495   72.5434
    3.510   64.1180
    3.525   53.9126
    3.540   44.7709
    3.555   36.4613
    3.570   30.8794
    3.585   25.5608
    3.600   22.1906
    3.615   20.5582
    3.630   19.4629
    3.645   17.8831
    3.660   17.9568
    3.675   17.3776
    3.690   16.7035
    3.705   16.5561
    3.720   16.9984
    3.735   17.8304
    3.750   18.0305
    3.765   18.2622
    3.780   18.4097
    3.795   18.6414
    3.810   19.4418
    3.825   21.0005
    3.840   21.0848
    3.855   21.6008
    3.870   22.9489
    3.885   24.0653
    3.900   25.1080
    3.915   26.6351
    3.930   27.4460
    3.945   27.6251
    3.960   28.8994
    3.975   29.6051
    3.990   30.2264
    4.005   32.0063
    4.020   32.5329
    4.035   32.4276
    4.050   32.3749
    4.065   33.6809
    4.080   32.8383
    4.095   33.4702
    4.110   33.7020
    4.125   31.9431
    4.140   32.1538
    4.155   31.7641
    4.170   29.8368
    4.185   28.7414
    4.200   28.5413
    4.215   27.7409
    4.230   25.1080
    4.245   23.8863
    4.260   22.1801
    4.275   20.8952
    4.290   18.9258
    4.305   17.8515
    4.320   16.2717
    4.335   14.6814
    4.350   13.7230
    4.365   13.0068
    4.380   11.6798
    4.395   10.0685
    4.410   10.3949
    4.425    8.9310
    4.440    7.5935
    4.455    7.6251
    4.470    7.0985
    4.485    6.7509
    4.500    6.5508
    4.515    6.1190
    4.530    6.1190
    4.545    5.9716
    4.560    5.6872
    4.575    5.4555
    4.590    4.9816
    4.605    5.0553
    4.620    4.7920
    4.635    4.8341
    4.650    4.2443
    4.665    4.1811
    4.680    4.1811
    4.695    4.4023
    4.710    4.2127
    4.725    4.3181
    4.740    3.9389
    4.755    4.3286
    4.770    3.9179
    4.785    4.2022
    4.800    4.1601
    4.815    3.8863
    4.830    3.7493
    4.845    3.4966
    4.860    3.9705
    4.875    3.7493
    4.890    3.5703
    4.905    3.5914
    4.920    3.4860
    4.935    3.6230
    4.950    3.5492
    4.965    3.5808
    4.980    3.4755
    4.995    3.5808
    5.010    3.5071
    5.025    3.5492
    5.040    3.5808
    5.055    3.6019
    5.070    3.4018
    5.085    3.5492
    5.100    3.6124
    5.115    3.3702
    5.130    3.5071
    5.145    3.3386
    5.160    3.4966
    5.175    3.1596
    5.190    3.3807
    5.205    3.2333
    5.220    3.1069
    5.235    3.5914
    5.250    3.3386
    5.265    3.4966
    5.280    3.3386
    5.295    3.4123
    5.310    3.3281
    5.325    3.1701
    5.340    3.2754
    5.355    3.2649
    5.370    3.5387
    5.385    3.2859
    5.400    3.2965
    5.415    3.2017
    5.430    3.3175
    5.445    3.3597
    5.460    3.5176
    5.475    3.1490
    5.490    3.1490
    5.505    3.0332
    5.520    3.0858
    5.535    2.8857
    5.550    2.9489
    5.565    3.2122
    5.580    2.9279
    5.595    3.0226
    5.610    3.0437
    5.625    2.9384
    5.640    3.0332
    5.655    2.9595
    5.670    3.0542
    5.685    2.9700
    5.700    3.0542
    5.715    2.7804
    5.730    2.9805
    5.745    3.0016
    5.760    2.8541
    5.775    2.9279
    5.790    3.0753
    5.805    2.9173
    5.820    2.8120
    5.835    2.8647
    5.850    2.8225
    5.865    2.9700
    5.880    3.0121
    5.895    3.0226
    5.910    2.8541
    5.925    2.9068
    5.940    3.0964
    5.955    2.9700
    5.970    2.9279
    5.985    2.9173
    6.000    2.8752
    6.015    2.8120
    6.030    2.5276
    6.045    2.5276
    6.060    3.0542
    6.075    3.0542
    6.090    2.9068
    6.105    2.7909
    6.120    2.9173
    6.135    2.8225
    6.150    2.9279
    6.165    2.6646
    6.180    2.8752
    6.195    2.8225
    6.210    2.7278
    6.225    2.7593
    6.240    2.9173
    6.255    2.9700
    6.270    2.7909
    6.285    2.8331
    6.300    2.8436
    6.315    2.8541
    6.330    2.9279
    6.345    2.7909
    6.360    2.8436
    6.375    2.8015
    6.390    2.9173
    6.405    2.9068
    6.420    2.7172
    6.435    2.6119
    6.450    2.7699
    6.465    2.7278
    6.480    2.6224
    6.495    3.1701
    6.510    3.1596
    6.525    3.1701
    6.540    3.1280
    6.555    3.1174
    6.570    3.3070
    6.585    3.1490
    6.600    3.1596
    6.615    3.1174
    6.630    3.4334
    6.645    3.4334
    6.660    3.4018
    6.675    3.7177
    6.690    3.8863
    6.705    3.9600
    6.720    4.2022
    6.735    4.6235
    6.750    4.4760
    6.765    4.5076
    6.780    4.9289
    6.795    4.8868
    6.810    5.5292
    6.825    5.6977
    6.840    6.5298
    6.855    7.1301
    6.870    7.3512
    6.885    7.9831
    6.900    8.9100
    6.915    9.6156
    6.930    9.8157
    6.945   10.2370
    6.960   11.2586
    6.975   10.4687
    6.990    9.8262
    7.005    8.8046
    7.020    8.0358
    7.035    7.0563
    7.050    6.3612
    7.065    5.4766
    7.080    4.9921
    7.095    4.7709
    7.110    4.3497
    7.125    3.9810
    7.140    3.8020
    7.155    3.6862
    7.170    3.6651
    7.185    3.4966
    7.200    3.3175
    7.215    3.2543
    7.230    3.4439
    7.245    3.3281
    7.260    3.0437
    7.275    3.0542
    7.290    3.1069
    7.305    3.3386
    7.320    3.1806
    7.335    2.9068
    7.350    2.9068
    7.365    3.1912
    7.380    3.1385
    7.395    3.0226
    7.410    3.2017
    7.425    3.2227
    7.440    2.9384
    7.455    2.7909
    7.470    2.9700
    7.485    2.8015
    7.500    2.8225
    7.515    3.0226
    7.530    3.0964
    7.545    3.1806
    7.560    3.2754
    7.575    3.1912
    7.590    3.0226
    7.605    3.2543
    7.620    3.3175
    7.635    3.1596
    7.650    3.1806
    7.665    3.3386
    7.680    3.0858
    7.695    3.0016
    7.710    3.3913
    7.725    3.2649
    7.740    3.3491
    7.755    3.3702
    7.770    3.0332
    7.785    3.4860
    7.800    3.8547
    7.815    3.6862
    7.830    3.5282
    7.845    3.6440
    7.860    3.4966
    7.875    3.8125
    7.890    3.8652
    7.905    3.9389
    7.920    3.9705
    7.935    3.7704
    7.950    3.9705
    7.965    4.4234
    7.980    4.4444
    7.995    4.3813
    8.010    4.4128
    8.025    4.3181
    8.040    4.7815
    8.055    4.6024
    8.070    4.3918
    8.085    4.4234
    8.100    4.5603
    8.115    4.7183
    8.130    4.5182
    8.145    4.7393
    8.160    4.9184
    8.175    4.8763
    8.190    4.9500
    8.205    4.9500
    8.220    5.0237
    8.235    5.1185
    8.250    5.0974
    8.265    5.0869
    8.280    5.1080
    8.295    5.1080
    8.310    4.8763
    8.325    4.9500
    8.340    5.2027
    8.355    4.9710
    8.370    4.8657
    8.385    4.8341
    8.400    5.0974
    8.415    4.7499
    8.430    4.9500
    8.445    4.8868
    8.460    4.5708
    8.475    4.3497
    8.490    4.7815
    8.505    4.7393
    8.520    4.3918
    8.535    4.2759
    8.550    4.2759
    8.565    4.6235
    8.580    4.2759
    8.595    4.0864
    8.610    4.0442
    8.625    4.1285
    8.640    3.9916
    8.655    3.9705
    8.670    3.6651
    8.685    3.6967
    8.700    3.8336
    8.715    3.6335
    8.730    3.4966
    8.745    3.3386
    8.760    3.4018
    8.775    3.4860
    8.790    3.4650
    8.805    3.3597
    8.820    3.1912
    8.835    2.9384
    8.850    2.9700
    8.865    3.2754
    8.880    2.8541
    8.895    3.0964
    8.910    3.0121
    8.925    3.0016
    8.940    2.9910
    8.955    2.8120
    8.970    2.8857
    8.985    3.1490
    9.000    2.9805
    9.015    2.9805
    9.030    2.9173
    9.045    2.5592
    9.060    2.7383
    9.075    2.6856
    9.090    2.7593
    9.105    2.5171
    9.120    2.5803
    9.135    2.7067
    9.150    2.6856
    9.165    2.6751
    9.180    2.5592
    9.195    2.6646
    9.210    2.6330
    9.225    2.7593
    9.240    2.8752
    9.255    2.6856
    9.270    2.5487
    9.285    2.6330
    9.300    2.7172
    9.315    2.7804
    9.330    2.8647
    9.345    2.7593
    9.360    2.4645
    9.375    2.5171
    9.390    2.7699
    9.405    2.6224
    9.420    2.6646
    9.435    2.5698
    9.450    2.5698
    9.465    3.0226
    9.480    2.7909
    9.495    2.6540
    9.510    2.8963
    9.525    2.5803
    9.540    2.5276
    9.555    2.6435
    9.570    3.0121
    9.585    2.8015
    9.600    2.6856
    9.615    2.6435
    9.630    2.4329
    9.645    2.2854
    9.660    2.4223
    9.675    2.6962
    9.690    2.4434
    9.705    2.6435
    9.720    2.6540
    9.735    2.5908
    9.750    2.6646
    9.765    2.6119
    9.780    2.5698
    9.795    2.5171
    9.810    2.7909
    9.825    2.6646
    9.840    2.2012
    9.855    2.4329
    9.870    2.5908
    9.885    2.5066
    9.900    2.6119
    9.915    2.8120
    9.930    2.7488
    9.945    2.3907
    9.960    2.4539
    9.975    2.5592
    9.990    2.5487
   10.005    2.6119
   10.020    2.4013
   10.035    2.8541
   10.050    2.4223
   10.065    2.4539
   10.080    2.5382
   10.095    2.4434
   10.110    2.4645
   10.125    2.4855
   10.140    2.4645
   10.155    2.6330
   10.170    2.5592
   10.185    2.6962
   10.200    2.6856
   10.215    2.6962
   10.230    2.6856
   10.245    2.5276
   10.260    2.6435
   10.275    2.7593
   10.290    2.6962
   10.305    2.6330
   10.320    2.6224
   10.335    2.7593
   10.350    2.9805
   10.365    2.9489
   10.380    2.9700
   10.395    3.1069
   10.410    2.9700
   10.425    3.0858
   10.440    3.4018
   10.455    3.0121
   10.470    2.8752
   10.485    2.9384
   10.500    3.1490
   10.515    2.8541
   10.530    2.7172
   10.545    2.8225
   10.560    3.0437
   10.575    2.9173
   10.590    2.9173
   10.605    2.7172
   10.620    2.8647
   10.635    2.8120
   10.650    2.5698
   10.665    2.7278
   10.680    2.8120
   10.695    2.5908
   10.710    2.8436
   10.725    2.7593
   10.740    2.6119
   10.755    2.2854
   10.770    2.6646
   10.785    2.4961
   10.800    2.6646
   10.815    2.5592
   10.830    2.6224
   10.845    2.4223
   10.860    2.5908
   10.875    2.8331
   10.890    2.5382
   10.905    2.8015
   10.920    2.7593
   10.935    2.5276
   10.950    2.3591
   10.965    2.5171
   10.980    2.5592
   10.995    2.2643
   11.010    2.4013
   11.025    2.4434
   11.040    2.4434
   11.055    2.2538
   11.070    2.2854
   11.085    2.6751
   11.100    2.6435
   11.115    2.8647
   11.130    2.6330
   11.145    2.3591
   11.160    2.6962
   11.175    2.4329
   11.190    2.4118
   11.205    2.5908
   11.220    2.4750
   11.235    2.3697
   11.250    2.6014
   11.265    2.5698
   11.280    2.6856
   11.295    2.6119
   11.310    2.5171
   11.325    2.5066
   11.340    2.7067
   11.355    2.6540
   11.370    2.6646
   11.385    2.5698
   11.400    2.7172
   11.415    2.8015
   11.430    2.6224
   11.445    2.6330
   11.460    2.5066
   11.475    2.8015
   11.490    2.6646
   11.505    2.6014
   11.520    2.6856
   11.535    2.6962
   11.550    2.7699
   11.565    2.5698
   11.580    2.6119
   11.595    2.5908
   11.610    2.7804
   11.625    2.7278
   11.640    2.7383
   11.655    2.7593
   11.670    2.5487
   11.685    2.5803
   11.700    2.6119
   11.715    2.8225
   11.730    2.8015
   11.745    2.8225
   11.760    2.7909
   11.775    2.6540
   11.790    2.7909
   11.805    2.6962
   11.820    2.6856
   11.835    2.7699
   11.850    2.6856
   11.865    2.6330
   11.880    2.4013
   11.895    2.6751
   11.910    2.4118
   11.925    2.6119
   11.940    2.6856
   11.955    2.4961
   11.970    2.6751
   11.985    2.8225
   12.000    2.8752
   12.015    2.8541
   12.030    2.8752
   12.045    2.5908
   12.060    2.6014
   12.075    2.8963
   12.090    2.8541
   12.105    2.9173
   12.120    2.9489
   12.135    2.8963
   12.150    2.7699
   12.165    2.7278
   12.180    3.0016
   12.195    2.9489
   12.210    2.9068
   12.225    2.9910
   12.240    3.1596
   12.255    3.0753
   12.270    2.8647
   12.285    2.7488
   12.300    3.0753
   12.315    3.0226
   12.330    2.8541
   12.345    2.9595
   12.360    3.1174
   12.375    2.9700
   12.390    2.9910
   12.405    2.9279
   12.420    2.6856
   12.435    2.6119
   12.450    2.7699
   12.465    2.9068
   12.480    2.9279
   12.495    3.0332
   12.510    2.8752
   12.525    3.1174
   12.540    3.0753
   12.555    2.9595
   12.570    3.0437
   12.585    3.0858
   12.600    2.8857
   12.615    2.8436
   12.630    2.9068
   12.645    2.9805
   12.660    2.8752
   12.675    2.9173
   12.690    2.6435
   12.705    2.9489
   12.720    2.8647
   12.735    2.9489
   12.750    3.2227
   12.765    2.9805
   12.780    2.7804
   12.795    3.0648
   12.810    3.1385
   12.825    2.8120
   12.840    2.8752
   12.855    3.0121
   12.870    3.0858
   12.885    3.0332
   12.900    2.8436
   12.915    2.7278
   12.930    2.9805
   12.945    2.9595
   12.960    2.8541
   12.975    2.8015
   12.990    2.8857
   13.005    3.0437
   13.020    2.8647
   13.035    2.7488
   13.050    2.7067
   13.065    2.6224
   13.080    2.9173
   13.095    2.6540
   13.110    2.6856
   13.125    2.9279
   13.140    2.7699
   13.155    3.1174
   13.170    2.8541
   13.185    2.7593
   13.200    2.9384
   13.215    2.9700
   13.230    2.5803
   13.245    2.6224
   13.260    2.4434
   13.275    2.7278
   13.290    2.4329
   13.305    2.6751
   13.320    2.9068
   13.335    2.8015
   13.350    2.7067
   13.365    2.5803
   13.380    2.6119
   13.395    2.8436
   13.410    2.9279
   13.425    2.6224
   13.440    2.8331
   13.455    2.6751
   13.470    2.6224
   13.485    2.6540
   13.500    2.8120
   13.515    2.8647
   13.530    3.0016
   13.545    2.6751
   13.560    2.8647
   13.575    2.8752
   13.590    2.9489
   13.605    3.0858
   13.620    2.7067
   13.635    2.7909
   13.650    2.7909
   13.665    2.8857
   13.680    2.6540
   13.695    2.7699
   13.710    2.9068
   13.725    2.6856
   13.740    2.7383
   13.755    2.6540
   13.770    2.4961
   13.785    2.6330
   13.800    2.6646
   13.815    2.5382
   13.830    2.5171
   13.845    2.7172
   13.860    2.7383
   13.875    2.7278
   13.890    2.9173
   13.905    3.0648
   13.920    3.0121
   13.935    2.7909
   13.950    3.0437
   13.965    2.6330
   13.980    2.5066
   13.995    2.4855
   14.010    2.7383
   14.025    3.1385
   14.040    2.8015
   14.055    2.8541
   14.070    2.5592
   14.085    2.6751
   14.100    2.6330
   14.115    2.4434
   14.130    2.5066
   14.145    2.6962
   14.160    2.6856
   14.175    2.5803
   14.190    2.7909
   14.205    2.7593
   14.220    2.4645
   14.235    2.8120
   14.250    2.3275
   14.265    2.6330
   14.280    2.4434
   14.295    2.4855
   14.310    2.6962
   14.325    2.8225
   14.340    2.8331
   14.355    2.5592
   14.370    2.4118
   14.385    2.5276
   14.400    2.4118
   14.415    2.5276
   14.430    2.4961
   14.445    2.4750
   14.460    2.4329
   14.475    2.3170
   14.490    2.2643
   14.505    2.6014
   14.520    2.4118
   14.535    2.7699
   14.550    2.6119
   14.565    2.5698
   14.580    2.4223
   14.595    2.6962
   14.610    2.6646
   14.625    2.6646
   14.640    2.4855
   14.655    2.4855
   14.670    2.4645
   14.685    2.6119
   14.700    2.2854
   14.715    2.3486
   14.730    2.3065
   14.745    2.5066
   14.760    2.5171
   14.775    2.6540
   14.790    2.4961
   14.805    2.4750
   14.820    2.4855
   14.835    2.7067
   14.850    2.4961
   14.865    2.4961
   14.880    2.6014
   14.895    2.3065
   14.910    2.6224
   14.925    2.6014
   14.940    2.3170
   14.955    2.2328
   14.970    2.4013
   14.985    2.2328
   15.000    2.5171
   15.015    2.7067
   15.030    2.6119
   15.045    2.6646
   15.060    2.4750
   15.075    2.5276
   15.090    2.7067
   15.105    2.5066
   15.120    2.3802
   15.135    2.6330
   15.150    2.6646
   15.165    2.3697
   15.180    2.4223
   15.195    2.3591
   15.210    2.6435
   15.225    2.3591
   15.240    2.6330
   15.255    2.4750
   15.270    2.5698
   15.285    2.2749
   15.300    2.7804
   15.315    2.6330
   15.330    2.5803
   15.345    2.4434
   15.360    2.5698
   15.375    2.5803
   15.390    2.6540
   15.405    2.7699
   15.420    2.5382
   15.435    2.4539
   15.450    2.2749
   15.465    2.5908
   15.480    2.6330
   15.495    2.5592
   15.510    2.8120
   15.525    2.5171
   15.540    2.8015
   15.555    2.7172
   15.570    2.5908
   15.585    2.4645
   15.600    2.5592
   15.615    2.6014
   15.630    2.7278
   15.645    2.7909
   15.660    2.8331
   15.675    2.4645
   15.690    2.4539
   15.705    2.7488
   15.720    2.8225
   15.735    2.5592
   15.750    2.5171
   15.765    2.8225
   15.780    2.6119
   15.795    2.7488
   15.810    2.7593
   15.825    2.8331
   15.840    2.6646
   15.855    2.8647
   15.870    2.6962
   15.885    2.6856
   15.900    2.5592
   15.915    2.9173
   15.930    2.8541
   15.945    2.8541
   15.960    2.8963
   15.975    2.8647
   15.990    2.8752
   16.005    2.6856
   16.020    2.7172
   16.035    2.6856
   16.050    2.6646
   16.065    2.5487
   16.080    2.9068
   16.095    2.7172
   16.110    2.7172
   16.125    2.7488
   16.140    2.7383
   16.155    2.9910
   16.170    2.7278
   16.185    2.5276
   16.200    2.8120
   16.215    2.6962
   16.230    2.6224
   16.245    2.6962
   16.260    2.6856
   16.275    2.8015
   16.290    2.7383
   16.305    2.5592
   16.320    2.6646
   16.335    2.5803
   16.350    2.8541
   16.365    2.8120
   16.380    2.6014
   16.395    2.2433
   16.410    2.4329
   16.425    2.4013
   16.440    2.4434
   16.455    2.6224
   16.470    2.4750
   16.485    2.5171
   16.500    2.5487
   16.515    2.4539
   16.530    2.5908
   16.545    2.5276
   16.560    2.5908
   16.575    2.4223
   16.590    2.4750
   16.605    2.5698
   16.620    2.7067
   16.635    2.3065
   16.650    2.3170
   16.665    2.3381
   16.680    2.6962
   16.695    2.6224
   16.710    2.4855
   16.725    2.5171
   16.740    2.6435
   16.755    2.5487
   16.770    2.5698
   16.785    2.4223
   16.800    2.4855
   16.815    2.6751
   16.830    2.4961
   16.845    2.2433
   16.860    2.4645
   16.875    2.6540
   16.890    2.5382
   16.905    2.6646
   16.920    2.4118
   16.935    2.5698
   16.950    2.5487
   16.965    2.4855
   16.980    2.5698
   16.995    2.4961
   17.010    2.3275
   17.025    2.6435
   17.040    2.5698
   17.055    2.4539
   17.070    2.3381
   17.085    2.3275
   17.100    2.3170
   17.115    2.3275
   17.130    2.7067
   17.145    2.4961
   17.160    2.4750
   17.175    2.3381
   17.190    2.4434
   17.205    2.4750
   17.220    2.5382
   17.235    2.5908
   17.250    2.4750
   17.265    2.5066
   17.280    2.5171
   17.295    2.3802
   17.310    2.3907
   17.325    2.1906
   17.340    2.4961
   17.355    2.6540
   17.370    2.5171
   17.385    2.6330
   17.400    2.4645
   17.415    2.3802
   17.430    2.5382
   17.445    2.3802
   17.460    2.6435
   17.475    2.5908
   17.490    2.5803
   17.505    2.5276
   17.520    2.5487
   17.535    2.6224
   17.550    2.7488
   17.565    2.5487
   17.580    2.4961
   17.595    2.5276
   17.610    2.7278
   17.625    2.6435
   17.640    2.7172
   17.655    2.4434
   17.670    2.4855
   17.685    2.6119
   17.700    2.7488
   17.715    2.7383
   17.730    2.7804
   17.745    2.6540
   17.760    2.5698
   17.775    2.4961
   17.790    2.5276
   17.805    2.4645
   17.820    2.4118
   17.835    2.7172
   17.850    2.8015
   17.865    2.5276
   17.880    2.4645
   17.895    2.6330
   17.910    2.7172
   17.925    2.5382
   17.940    2.5066
   17.955    2.5487
   17.970    2.7699
   17.985    2.5276
   18.000    2.4329
   18.015    2.6540
   18.030    2.4118
   18.045    2.4223
   18.060    2.7278
   18.075    2.5698
   18.090    2.8015
   18.105    2.8752
   18.120    2.7383
   18.135    2.5908
   18.150    2.5803
   18.165    2.4434
   18.180    2.6014
   18.195    2.9068
   18.210    2.6435
   18.225    2.4329
   18.240    2.6962
   18.255    2.6646
   18.270    2.4961
   18.285    2.7383
   18.300    2.9595
   18.315    2.6435
   18.330    2.6435
   18.345    2.6751
   18.360    2.7909
   18.375    2.4329
   18.390    2.4645
   18.405    2.3802
   18.420    2.6330
   18.435    2.6435
   18.450    2.5382
   18.465    2.5066
   18.480    2.6540
   18.495    2.5487
   18.510    2.6856
   18.525    2.8331
   18.540    2.5698
   18.555    2.4961
   18.570    2.4855
   18.585    2.5382
   18.600    2.6962
   18.615    2.8963
   18.630    2.6119
   18.645    2.5592
   18.660    2.6962
   18.675    2.4434
   18.690    2.3275
   18.705    2.7909
   18.720    2.4329
   18.735    2.4855
   18.750    2.3381
   18.765    2.5803
   18.780    2.6751
   18.795    2.4539
   18.810    2.8857
   18.825    2.6014
   18.840    2.5698
   18.855    2.4645
   18.870    2.8225
   18.885    2.6224
   18.900    2.8120
   18.915    2.5276
   18.930    2.3907
   18.945    2.6119
   18.960    2.7699
   18.975    2.6119
   18.990    2.2854
   19.005    2.3802
   19.020    2.6540
   19.035    2.6751
   19.050    2.5487
   19.065    2.3907
   19.080    2.5382
   19.095    2.6540
   19.110    2.6119
   19.125    2.6014
   19.140    2.4013
   19.155    2.7172
   19.170    2.7383
   19.185    2.5487
   19.200    2.5698
   19.215    2.4539
   19.230    2.4855
   19.245    2.7278
   19.260    2.5171
   19.275    2.6014
   19.290    2.7383
   19.305    2.5592
   19.320    2.5592
   19.335    2.5487
   19.350    2.5698
   19.365    2.6014
   19.380    2.6751
   19.395    2.6119
   19.410    2.5487
   19.425    2.4750
   19.440    2.8752
   19.455    2.9279
   19.470    3.1490
   19.485    2.9173
   19.500    2.8225
   19.515    2.6856
   19.530    2.8963
   19.545    2.8225
   19.560    3.1280
   19.575    2.6540
   19.590    2.6330
   19.605    2.6646
   19.620    3.0226
   19.635    2.7593
   19.650    2.8120
   19.665    2.8120
   19.680    2.6646
   19.695    2.9910
   19.710    2.6435
   19.725    2.7804
   19.740    2.8225
   19.755    2.9489
   19.770    3.1596
   19.785    2.9068
   19.800    3.0332
   19.815    3.0648
   19.830    2.6856
   19.845    2.7909
   19.860    2.8436
   19.875    2.7488
   19.890    2.8647
   19.905    2.7699
   19.920    2.9489
   19.935    3.0226
   19.950    3.1490
   19.965    2.9595
   19.980    2.8436
   19.995    2.7699
   20.010    2.8331
   20.025    3.1701
   20.040    2.7593
   20.055    2.9910
   20.070    3.0648
   20.085    2.9910
   20.100    3.0964
   20.115    2.9805
   20.130    3.0332
   20.145    3.0753
   20.160    2.9489
   20.175    2.7488
   20.190    2.9384
   20.205    2.9700
   20.220    2.8752
   20.235    2.6856
   20.250    2.9173
   20.265    3.0648
   20.280    2.7383
   20.295    2.8225
   20.310    2.9595
   20.325    2.7172
   20.340    2.7593
   20.355    2.8857
   20.370    2.7593
   20.385    2.9700
   20.400    3.1174
   20.415    2.8436
   20.430    2.9489
   20.445    2.9173
   20.460    2.9910
   20.475    2.9279
   20.490    2.9068
   20.505    2.8331
   20.520    2.8541
   20.535    2.9279
   20.550    2.9279
   20.565    3.0648
   20.580    2.9279
   20.595    2.7909
   20.610    2.8015
   20.625    3.0016
   20.640    2.8436
   20.655    2.7067
   20.670    2.9068
   20.685    2.8541
   20.700    2.6540
   20.715    2.9595
   20.730    3.0016
   20.745    2.7067
   20.760    2.7909
   20.775    2.8857
   20.790    2.9173
   20.805    2.9173
   20.820    3.0542
   20.835    2.9910
   20.850    2.8541
   20.865    2.8015
   20.880    2.7593
   20.895    2.5698
   20.910    2.9068
   20.925    2.8015
   20.940    2.8120
   20.955    2.4855
   20.970    2.9805
   20.985    3.1596
   21.000    2.9068
   21.015    2.7067
   21.030    3.0437
   21.045    3.0226
   21.060    3.1912
   21.075    2.9489
   21.090    2.9595
   21.105    3.0542
   21.120    3.0121
   21.135    2.9700
   21.150    2.9595
   21.165    3.0753
   21.180    3.0121
   21.195    3.0121
   21.210    2.8647
   21.225    2.9489
   21.240    3.0648
   21.255    2.9384
   21.270    3.0437
   21.285    2.7593
   21.300    2.8752
   21.315    2.6540
   21.330    2.6014
   21.345    2.9173
   21.360    3.1912
   21.375    2.9910
   21.390    3.0858
   21.405    2.9384
   21.420    2.7804
   21.435    2.7909
   21.450    3.1596
   21.465    2.9068
   21.480    3.0753
   21.495    2.7593
   21.510    2.7804
   21.525    2.8331
   21.540    2.8647
   21.555    3.0226
   21.570    2.7804
   21.585    2.9805
   21.600    2.8225
   21.615    3.0542
   21.630    2.9384
   21.645    2.9489
   21.660    2.7172
   21.675    2.8015
   21.690    3.1069
   21.705    3.2017
   21.720    3.0121
   21.735    2.6540
   21.750    2.9700
   21.765    3.0753
   21.780    2.9805
   21.795    2.7278
   21.810    2.7383
   21.825    2.7909
   21.840    2.7593
   21.855    2.8541
   21.870    2.8225
   21.885    2.9910
   21.900    3.0016
   21.915    2.9384
   21.930    2.8857
   21.945    2.8647
   21.960    2.9068
   21.975    2.8120
   21.990    2.8647
   22.005    2.7909
   22.020    2.8752
   22.035    2.9279
   22.050    2.8541
   22.065    3.1385
   22.080    2.8436
   22.095    2.7804
   22.110    2.9068
   22.125    2.8225
   22.140    3.0437
   22.155    3.0964
   22.170    2.9595
   22.185    2.7593
   22.200    2.6540
   22.215    2.6962
   22.230    2.6224
   22.245    2.7804
   22.260    2.7593
   22.275    2.9384
   22.290    3.0121
   22.305    3.0858
   22.320    2.8963
   22.335    2.7278
   22.350    2.8963
   22.365    2.7804
   22.380    2.6330
   22.395    2.8647
   22.410    2.8331
   22.425    2.8436
   22.440    2.7172
   22.455    2.9068
   22.470    2.8120
   22.485    2.8015
   22.500    2.9068
   22.515    2.9173
   22.530    2.8752
   22.545    2.8963
   22.560    2.6540
   22.575    2.8647
   22.590    2.8436
   22.605    2.9173
   22.620    2.8541
   22.635    2.8331
   22.650    2.8225
   22.665    2.6435
   22.680    2.5698
   22.695    2.6435
   22.710    2.5908
   22.725    2.7383
   22.740    2.8857
   22.755    2.8647
   22.770    2.9595
   22.785    2.8225
   22.800    2.8015
   22.815    2.9173
   22.830    2.7488
   22.845    2.7593
   22.860    2.8541
   22.875    2.6435
   22.890    2.7067
   22.905    2.6962
   22.920    2.8963
   22.935    2.7909
   22.950    2.7278
   22.965    2.6435
   22.980    2.8015
   22.995    2.7804
   23.010    2.9173
   23.025    3.2859
   23.040    2.8857
   23.055    2.7699
   23.070    2.9489
   23.085    2.8963
   23.100    2.7593
   23.115    2.8436
   23.130    2.8963
   23.145    2.8225
   23.160    3.0542
   23.175    2.7699
   23.190    2.4961
   23.205    2.7067
   23.220    3.0332
   23.235    2.6540
   23.250    2.8857
   23.265    2.6435
   23.280    2.6435
   23.295    2.6540
   23.310    2.5592
   23.325    2.6856
   23.340    2.6014
   23.355    2.6224
   23.370    2.6435
   23.385    2.4118
   23.400    2.7593
   23.415    2.6751
   23.430    2.7067
   23.445    2.7383
   23.460    2.7909
   23.475    2.6119
   23.490    2.4961
   23.505    2.6224
   23.520    2.7383
   23.535    2.7909
   23.550    2.8436
   23.565    2.6646
   23.580    2.7699
   23.595    2.5592
   23.610    2.6224
   23.625    2.5698
   23.640    2.7067
   23.655    2.8647
   23.670    2.7699
   23.685    2.5803
   23.700    2.7593
   23.715    2.5698
   23.730    2.6330
   23.745    2.7488
   23.760    2.7804
   23.775    2.8120
   23.790    2.9489
   23.805    2.9279
   23.820    2.9279
   23.835    2.7172
   23.850    2.7593
   23.865    2.6540
   23.880    2.7909
   23.895    2.8647
   23.910    2.7067
   23.925    2.6646
   23.940    2.6435
   23.955    2.4961
   23.970    2.9805
   23.985    2.9489
   24.000    2.4961
   24.015    2.6751
   24.030    2.6856
   24.045    2.6646
   24.060    2.6014
   24.075    2.5908
   24.090    2.7804
   24.105    2.5803
   24.120    2.8436
   24.135    2.5803
   24.150    2.6751
   24.165    2.4855
   24.180    2.7909
   24.195    2.4855
   24.210    2.4750
   24.225    2.4961
   24.240    2.6435
   24.255    2.8647
   24.270    2.5698
   24.285    2.6962
   24.300    2.8015
   24.315    2.7488
   24.330    2.5276
   24.345    2.4434
   24.360    2.4434
   24.375    2.4961
   24.390    2.5487
   24.405    2.8752
   24.420    2.7067
   24.435    2.6751
   24.450    2.5276
   24.465    2.7383
   24.480    2.6962
   24.495    2.6856
   24.510    2.6435
   24.525    2.8963
   24.540    2.7909
   24.555    2.7804
   24.570    2.8436
   24.585    2.9595
   24.600    2.8436
   24.615    2.8225
   24.630    2.8331
   24.645    2.6751
   24.660    2.7488
   24.675    2.6224
   24.690    2.7909
   24.705    2.6962
   24.720    2.7383
   24.735    2.7383
   24.750    2.6962
   24.765    2.5698
   24.780    2.6014
   24.795    2.5592
   24.810    2.6224
   24.825    2.7593
   24.840    2.5698
   24.855    2.6751
   24.870    2.6751
   24.885    2.4961
   24.900    2.6014
   24.915    2.6014
   24.930    2.4118
   24.945    2.6435
   24.960    2.6435
   24.975    2.6962
   24.990    2.5698
   25.005    2.5592
   25.020    2.5382
   25.035    2.5803
   25.050    2.6119
   25.065    2.8436
   25.080    2.3170
   25.095    2.3591
   25.110    2.3486
   25.125    2.7067
   25.140    2.5171
   25.155    2.6435
   25.170    2.8647
   25.185    2.7593
   25.200    2.8857
   25.215    2.6646
   25.230    2.8331
   25.245    2.5592
   25.260    2.6119
   25.275    2.4750
   25.290    2.6540
   25.305    2.7804
   25.320    2.4645
   25.335    2.3907
   25.350    2.6540
   25.365    2.4013
   25.380    2.7278
   25.395    2.3381
   25.410    2.6014
   25.425    2.6856
   25.440    2.6224
   25.455    2.5698
   25.470    2.8015
   25.485    2.6646
   25.500    2.5803
   25.515    2.7278
   25.530    2.3381
   25.545    2.6962
   25.560    2.5066
   25.575    2.5171
   25.590    2.3802
   25.605    2.4223
   25.620    2.3591
   25.635    2.6224
   25.650    2.7804
   25.665    2.4855
   25.680    2.6962
   25.695    2.5592
   25.710    2.5382
   25.725    2.7067
   25.740    2.5382
   25.755    2.6330
   25.770    2.4013
   25.785    2.7488
   25.800    2.7383
   25.815    2.7488
   25.830    2.3591
   25.845    2.4855
   25.860    2.3697
   25.875    2.5171
   25.890    2.6540
   25.905    2.4961
   25.920    2.4118
   25.935    2.2643
   25.950    2.5382
   25.965    2.9700
   25.980    2.6856
   25.995    2.4645
   26.010    2.6856
   26.025    2.6962
   26.040    2.5803
   26.055    2.4013
   26.070    2.3591
   26.085    2.6330
   26.100    2.3802
   26.115    2.4855
   26.130    2.4434
   26.145    2.4750
   26.160    2.3486
   26.175    2.5382
   26.190    2.6014
   26.205    2.5171
   26.220    2.5803
   26.235    2.5066
   26.250    2.6330
   26.265    2.3275
   26.280    2.5487
   26.295    2.7804
   26.310    2.6540
   26.325    2.7278
   26.340    2.5171
   26.355    2.5803
   26.370    2.4118
   26.385    2.4118
   26.400    2.4961
   26.415    2.2328
   26.430    2.3802
   26.445    2.4223
   26.460    2.2643
   26.475    2.2117
   26.490    2.4118
   26.505    2.7383
   26.520    2.6014
   26.535    2.4434
   26.550    2.5066
   26.565    2.5803
   26.580    2.4750
   26.595    2.4961
   26.610    2.3381
   26.625    2.4750
   26.640    2.5487
   26.655    2.5487
   26.670    2.1906
   26.685    2.2749
   26.700    2.2854
   26.715    2.3591
   26.730    2.4329
   26.745    2.4539
   26.760    2.6330
   26.775    2.3907
   26.790    2.3591
   26.805    2.4223
   26.820    2.5066
   26.835    2.2538
   26.850    2.1485
   26.865    2.4961
   26.880    2.4645
   26.895    2.6014
   26.910    2.4539
   26.925    2.6751
   26.940    2.4645
   26.955    2.5382
   26.970    2.3381
   26.985    2.6014
   27.000    2.4750
   27.015    2.2328
   27.030    2.4855
   27.045    2.4645
   27.060    2.3065
   27.075    2.3170
   27.090    2.5066
   27.105    2.5382
   27.120    2.4223
   27.135    2.3275
   27.150    2.2959
   27.165    2.2959
   27.180    2.3381
   27.195    2.3381
   27.210    2.2643
   27.225    2.3275
   27.240    2.3907
   27.255    2.5592
   27.270    2.2854
   27.285    2.4750
   27.300    2.4223
   27.315    2.3170
   27.330    2.1274
   27.345    2.5803
   27.360    2.5487
   27.375    2.4223
   27.390    2.2012
   27.405    2.2643
   27.420    2.2959
   27.435    2.2854
   27.450    2.4645
   27.465    2.5276
   27.480    2.2959
   27.495    2.4961
   27.510    2.5698
   27.525    2.5066
   27.540    2.4855
   27.555    2.5803
   27.570    2.4645
   27.585    2.6435
   27.600    2.5276
   27.615    2.4539
   27.630    2.3802
   27.645    2.3591
   27.660    2.4961
   27.675    2.2538
   27.690    2.4750
   27.705    2.4329
   27.720    2.4855
   27.735    2.4118
   27.750    2.3275
   27.765    2.4750
   27.780    2.4855
   27.795    2.4645
   27.810    2.3275
   27.825    2.1696
   27.840    2.4539
   27.855    2.3381
   27.870    2.3170
   27.885    2.3381
   27.900    2.4961
   27.915    2.3486
   27.930    2.3802
   27.945    2.3486
   27.960    2.5171
   27.975    2.5171
   27.990    2.5592
   28.005    2.4329
   28.020    2.3381
   28.035    2.4539
   28.050    2.3591
   28.065    2.5276
   28.080    2.4223
   28.095    2.4539
   28.110    2.3907
   28.125    2.5066
   28.140    2.7699
   28.155    2.6330
   28.170    2.7699
   28.185    2.4013
   28.200    2.5803
   28.215    2.5592
   28.230    2.3170
   28.245    2.5592
   28.260    2.4329
   28.275    2.5803
   28.290    2.5592
   28.305    2.4118
   28.320    2.4223
   28.335    2.4750
   28.350    2.3275
   28.365    2.4750
   28.380    2.4223
   28.395    2.2854
   28.410    2.4434
   28.425    2.3907
   28.440    2.4118
   28.455    2.3065
   28.470    2.3486
   28.485    2.5698
   28.500    2.6646
   28.515    2.2854
   28.530    2.5487
   28.545    2.4645
   28.560    2.3697
   28.575    2.4223
   28.590    2.3697
   28.605    2.5276
   28.620    2.4329
   28.635    2.3065
   28.650    2.4539
   28.665    2.2643
   28.680    2.1169
   28.695    2.2959
   28.710    2.2854
   28.725    2.5276
   28.740    2.5908
   28.755    2.1696
   28.770    2.5382
   28.785    2.1485
   28.800    2.2117
   28.815    2.3907
   28.830    2.2433
   28.845    2.3697
   28.860    2.4118
   28.875    2.3907
   28.890    2.4118
   28.905    2.3275
   28.920    2.2222
   28.935    2.2749
   28.950    2.4539
   28.965    2.5908
   28.980    2.5276
   28.995    2.4645
   29.010    2.1906
   29.025    2.2328
   29.040    2.2959
   29.055    2.5066
   29.070    2.2328
   29.085    2.4539
   29.100    2.3065
   29.115    2.2959
   29.130    2.3591
   29.145    2.4223
   29.160    2.0853
   29.175    2.2538
   29.190    2.2643
   29.205    2.3802
   29.220    2.2538
   29.235    2.1064
   29.250    2.1485
   29.265    2.2222
   29.280    2.3381
   29.295    2.4750
   29.310    2.3170
   29.325    2.2328
   29.340    2.3381
   29.355    2.4329
   29.370    2.2117
   29.385    2.3381
   29.400    2.3170
   29.415    2.1906
   29.430    2.2959
   29.445    2.4223
   29.460    2.3486
   29.475    2.3697
   29.490    2.2538
   29.505    2.3697
   29.520    2.3275
   29.535    2.1696
   29.550    2.1906
   29.565    2.4434
   29.580    2.1801
   29.595    2.0642
   29.610    2.2959
   29.625    2.4434
   29.640    2.1380
   29.655    2.2328
   29.670    2.2538
   29.685    2.2959
   29.700    2.2749
   29.715    2.0432
   29.730    2.1274
   29.745    2.2959
   29.760    2.4434
   29.775    2.2643
   29.790    2.2222
   29.805    2.2222
   29.820    2.2117
   29.835    2.3065
   29.850    2.4434
   29.865    2.4013
   29.880    2.2117
   29.895    2.2222
   29.910    2.0748
   29.925    1.9484
   29.940    2.2643
   29.955    2.4013
   29.970    2.3170
   29.985    2.2433
   30.000    2.2012
   30.015    2.1906
   30.030    2.2117
   30.045    2.4223
   30.060    2.3697
   30.075    2.2012
   30.090    2.3697
   30.105    2.3065
   30.120    2.2538
   30.135    2.2117
   30.150    2.2222
   30.165    2.1801
   30.180    2.3697
   30.195    2.2643
   30.210    2.2012
   30.225    2.2433
   30.240    2.4329
   30.255    2.2012
   30.270    2.0853
   30.285    2.2433
   30.300    2.2959
   30.315    2.2222
   30.330    2.1801
   30.345    2.1696
   30.360    2.2433
   30.375    2.0748
   30.390    2.1590
   30.405    2.2222
   30.420    2.3381
   30.435    2.1801
   30.450    2.1169
   30.465    2.1590
   30.480    2.2117
   30.495    2.0326
   30.510    2.2117
   30.525    2.3591
   30.540    2.3065
   30.555    2.3907
   30.570    2.2433
   30.585    2.2012
   30.600    2.3907
   30.615    2.4013
   30.630    2.3065
   30.645    2.1590
   30.660    2.0326
   30.675    2.0432
   30.690    2.2749
   30.705    2.2222
   30.720    2.0432
   30.735    2.2854
   30.750    2.2328
   30.765    2.2959
   30.780    2.3486
   30.795    2.2749
   30.810    2.4645
   30.825    2.2222
   30.840    2.1274
   30.855    2.1801
   30.870    2.2854
   30.885    2.2433
   30.900    2.1485
   30.915    2.1274
   30.930    2.0537
   30.945    2.2854
   30.960    2.1169
   30.975    2.2222
   30.990    2.5066
   31.005    2.1906
   31.020    2.0537
   31.035    2.0326
   31.050    2.2433
   31.065    2.1801
   31.080    2.1064
   31.095    2.1906
   31.110    2.2959
   31.125    2.2012
   31.140    2.0853
   31.155    2.1801
   31.170    2.1274
   31.185    2.2854
   31.200    2.1064
   31.215    2.1380
   31.230    2.1590
   31.245    2.2854
   31.260    2.1064
   31.275    2.1485
   31.290    1.9379
   31.305    2.2433
   31.320    2.1274
   31.335    2.2643
   31.350    2.4645
   31.365    2.3065
   31.380    2.3486
   31.395    2.3381
   31.410    2.1696
   31.425    2.2749
   31.440    2.2117
   31.455    2.3907
   31.470    2.2854
   31.485    2.3697
   31.500    2.0221
   31.515    2.1590
   31.530    2.1906
   31.545    2.1906
   31.560    2.1380
   31.575    2.0748
   31.590    2.0642
   31.605    2.2433
   31.620    2.2854
   31.635    2.3275
   31.650    2.4539
   31.665    2.3591
   31.680    2.2117
   31.695    2.1906
   31.710    2.2117
   31.725    2.1380
   31.740    2.2433
   31.755    2.1485
   31.770    2.1590
   31.785    2.3591
   31.800    2.4539
   31.815    2.3591
   31.830    2.3802
   31.845    2.2854
   31.860    2.3381
   31.875    2.2012
   31.890    2.3275
   31.905    2.2117
   31.920    2.0853
   31.935    2.4855
   31.950    2.3381
   31.965    2.2643
   31.980    2.4013
   31.995    2.3697
   32.010    2.1906
   32.025    1.9589
   32.040    2.2117
   32.055    2.0221
   32.070    2.1485
   32.085    2.1064
   32.100    2.1380
   32.115    2.1274
   32.130    2.3170
   32.145    2.1485
   32.160    1.9168
   32.175    2.3170
   32.190    2.1801
   32.205    2.1696
   32.220    2.1169
   32.235    2.1274
   32.250    2.2117
   32.265    2.0748
   32.280    2.3275
   32.295    2.2222
   32.310    2.0748
   32.325    2.1274
   32.340    2.2643
   32.355    2.1064
   32.370    2.0748
   32.385    2.1380
   32.400    2.3065
   32.415    2.2328
   32.430    1.9273
   32.445    2.2328
   32.460    2.2328
   32.475    2.0748
   32.490    2.2222
   32.505    2.2433
   32.520    1.9273
   32.535    2.0011
   32.550    2.2117
   32.565    2.1801
   32.580    1.9168
   32.595    2.0011
   32.610    2.1380
   32.625    2.0326
   32.640    2.0432
   32.655    1.9063
   32.670    2.2538
   32.685    2.0642
   32.700    2.2117
   32.715    2.0958
   32.730    2.1590
   32.745    2.1801
   32.760    2.0853
   32.775    2.2433
   32.790    2.1064
   32.805    2.0537
   32.820    1.9589
   32.835    1.9589
   32.850    1.9484
   32.865    2.0642
   32.880    2.3170
   32.895    2.0011
   32.910    2.1485
   32.925    2.0537
   32.940    2.3065
   32.955    2.1696
   32.970    1.9695
   32.985    2.1485
   33.000    1.9905
   33.015    1.8747
   33.030    1.6956
   33.045    1.9484
   33.060    2.1590
   33.075    2.0326
   33.090    2.2433
   33.105    2.2328
   33.120    2.0432
   33.135    1.9800
   33.150    2.1064
   33.165    2.1906
   33.180    2.0221
   33.195    2.0748
   33.210    2.2749
   33.225    1.9800
   33.240    1.7799
   33.255    2.0642
   33.270    2.0116
   33.285    2.0326
   33.300    2.0748
   33.315    2.0958
   33.330    2.2012
   33.345    2.1485
   33.360    1.9800
   33.375    2.0748
   33.390    2.0853
   33.405    2.1380
   33.420    2.0432
   33.435    2.0011
   33.450    1.9589
   33.465    2.0116
   33.480    2.1590
   33.495    1.9695
   33.510    2.0432
   33.525    2.0853
   33.540    2.1380
   33.555    2.0537
   33.570    1.9800
   33.585    2.0116
   33.600    2.2117
   33.615    2.2012
   33.630    1.9168
   33.645    2.0221
   33.660    2.0748
   33.675    1.8747
   33.690    2.0116
   33.705    1.9379
   33.720    2.1169
   33.735    2.0642
   33.750    2.0748
   33.765    2.0432
   33.780    1.8220
   33.795    1.9273
   33.810    2.0221
   33.825    2.0326
   33.840    2.0221
   33.855    2.1064
   33.870    2.0011
   33.885    1.9168
   33.900    2.0537
   33.915    1.9695
   33.930    1.9484
   33.945    2.0116
   33.960    1.8747
   33.975    2.0326
   33.990    1.9484
   34.005    1.7694
   34.020    1.9484
   34.035    2.0011
   34.050    1.9379
   34.065    2.0748
   34.080    2.0011
   34.095    1.8536
   34.110    1.8641
   34.125    2.1169
   34.140    2.1696
   34.155    2.0326
   34.170    1.9484
   34.185    1.8536
   34.200    1.8747
   34.215    2.0011
   34.230    1.9589
   34.245    1.8536
   34.260    1.8641
   34.275    2.0116
   34.290    1.8957
   34.305    1.9063
   34.320    2.0642
   34.335    1.9379
   34.350    2.1064
   34.365    1.8957
   34.380    1.7694
   34.395    1.9273
   34.410    1.7694
   34.425    1.7167
   34.440    1.9273
   34.455    1.7272
   34.470    1.7799
   34.485    1.7378
   34.500    1.8536
   34.515    2.1485
   34.530    1.8641
   34.545    1.9589
   34.560    1.7904
   34.575    1.8009
   34.590    1.8641
   34.605    1.8220
   34.620    1.8852
   34.635    1.9273
   34.650    1.9905
   34.665    1.9800
   34.680    1.9800
   34.695    1.9379
   34.710    1.8325
   34.725    2.1274
   34.740    2.3170
   34.755    2.0853
   34.770    1.9063
   34.785    1.9484
   34.800    2.1696
   34.815    2.0958
   34.830    1.9905
   34.845    1.8325
   34.860    1.8009
   34.875    2.0853
   34.890    1.9800
   34.905    1.8641
   34.920    2.0537
   34.935    1.8852
   34.950    1.6640
   34.965    1.8536
   34.980    1.8431
   34.995    1.8957
   35.010    1.8852
   35.025    1.7588
   35.040    1.8852
   35.055    1.8325
   35.070    1.8115
   35.085    1.8325
   35.100    1.8009
   35.115    1.7799
   35.130    1.9273
   35.145    1.8747
   35.160    1.8009
   35.175    2.1064
   35.190    2.0221
   35.205    1.9168
   35.220    1.8115
   35.235    1.7167
   35.250    1.8115
   35.265    1.7799
   35.280    1.7062
   35.295    1.6324
   35.310    1.8957
   35.325    1.9379
   35.340    1.8641
   35.355    1.8747
   35.370    1.8957
   35.385    1.7799
   35.400    1.8536
   35.415    1.7483
   35.430    1.5377
   35.445    1.7272
   35.460    1.9063
   35.475    1.9484
   35.490    1.9168
   35.505    1.8220
   35.520    1.7799
   35.535    1.7378
   35.550    1.6535
   35.565    1.6535
   35.580    1.8220
   35.595    1.9905
   35.610    1.6851
   35.625    1.6640
   35.640    1.7799
   35.655    1.9273
   35.670    2.0221
   35.685    1.7167
   35.700    1.9695
   35.715    2.0011
   35.730    1.9273
   35.745    1.9063
   35.760    1.6851
   35.775    1.8115
   35.790    2.0326
   35.805    1.8957
   35.820    1.8431
   35.835    1.7378
   35.850    1.6956
   35.865    1.8536
   35.880    1.7062
   35.895    1.6851
   35.910    1.8641
   35.925    1.7167
   35.940    1.8009
   35.955    1.7167
   35.970    1.9905
   35.985    1.8431
   36.000    1.8957
   36.015    1.8431
   36.030    1.7904
   36.045    1.9063
   36.060    2.0326
   36.075    1.8115
   36.090    1.7799
   36.105    1.7483
   36.120    1.6430
   36.135    1.6640
   36.150    1.8220
   36.165    1.8325
   36.180    1.7483
   36.195    1.6851
   36.210    1.7483
   36.225    1.8957
   36.240    2.0011
   36.255    2.0432
   36.270    1.7378
   36.285    1.8957
   36.300    1.8220
   36.315    1.7272
   36.330    2.0221
   36.345    1.8852
   36.360    1.7694
   36.375    1.8115
   36.390    1.7167
   36.405    1.7062
   36.420    1.9273
   36.435    1.8431
   36.450    1.8536
   36.465    1.7694
   36.480    1.8641
   36.495    1.7167
   36.510    1.9063
   36.525    2.1274
   36.540    1.7378
   36.555    1.6956
   36.570    1.6430
   36.585    1.8431
   36.600    1.8009
   36.615    1.8852
   36.630    1.8220
   36.645    1.5903
   36.660    1.6219
   36.675    1.8747
   36.690    1.7904
   36.705    1.8009
   36.720    1.5587
   36.735    1.7483
   36.750    1.7904
   36.765    1.9484
   36.780    1.7272
   36.795    1.7904
   36.810    1.6746
   36.825    1.7272
   36.840    1.8009
   36.855    1.6956
   36.870    1.6219
   36.885    1.6324
   36.900    1.6746
   36.915    1.7483
   36.930    1.7167
   36.945    1.8009
   36.960    1.7588
   36.975    1.6956
   36.990    1.6746
   37.005    1.8115
   37.020    1.8009
   37.035    1.8431
   37.050    1.6956
   37.065    2.0011
   37.080    1.7588
   37.095    1.7904
   37.110    1.7483
   37.125    1.7904
   37.140    1.8009
   37.155    1.6430
   37.170    1.5482
   37.185    1.7483
   37.200    1.5903
   37.215    1.7483
   37.230    1.8115
   37.245    1.7904
   37.260    1.6640
   37.275    1.6851
   37.290    1.6324
   37.305    1.8747
   37.320    1.9379
   37.335    1.7904
   37.350    1.6430
   37.365    1.8957
   37.380    1.7167
   37.395    1.6851
   37.410    1.6851
   37.425    1.6430
   37.440    1.8852
   37.455    1.8536
   37.470    1.7378
   37.485    1.7799
   37.500    1.8325
   37.515    1.8325
   37.530    1.5692
   37.545    1.6956
   37.560    1.6640
   37.575    1.6956
   37.590    1.6851
   37.605    1.7483
   37.620    1.7272
   37.635    1.5692
   37.650    1.6851
   37.665    1.6535
   37.680    1.5166
   37.695    1.6956
   37.710    1.8325
   37.725    1.7378
   37.740    1.8536
   37.755    1.5798
   37.770    1.6430
   37.785    1.6746
   37.800    1.7378
   37.815    1.6640
   37.830    1.6956
   37.845    1.8957
   37.860    1.8325
   37.875    2.0326
   37.890    1.7799
   37.905    1.6219
   37.920    2.0011
   37.935    2.0116
   37.950    1.8747
   37.965    1.8431
   37.980    1.6746
   37.995    1.6851
   38.010    1.6640
   38.025    1.6430
   38.040    1.6746
   38.055    1.8115
   38.070    1.7694
   38.085    1.5692
   38.100    1.6008
   38.115    1.6956
   38.130    1.7904
   38.145    1.6956
   38.160    1.7694
   38.175    1.8641
   38.190    1.9063
   38.205    1.6746
   38.220    1.7378
   38.235    1.7799
   38.250    1.8325
   38.265    1.6746
   38.280    1.5482
   38.295    1.7904
   38.310    1.8009
   38.325    1.6114
   38.340    1.7588
   38.355    1.7062
   38.370    1.6008
   38.385    1.7799
   38.400    1.9905
   38.415    2.0221
   38.430    1.7694
   38.445    1.4745
   38.460    1.5798
   38.475    1.6430
   38.490    1.7694
   38.505    1.5271
   38.520    1.6324
   38.535    1.6219
   38.550    1.7167
   38.565    1.6640
   38.580    1.9273
   38.595    1.7062
   38.610    1.9379
   38.625    1.9063
   38.640    1.7904
   38.655    1.7062
   38.670    1.6851
   38.685    1.6640
   38.700    1.7588
   38.715    1.7378
   38.730    1.7062
   38.745    1.6535
   38.760    1.7694
   38.775    1.6746
   38.790    1.7272
   38.805    1.8220
   38.820    1.7167
   38.835    1.6640
   38.850    1.6746
   38.865    1.5061
   38.880    1.4955
   38.895    1.5903
   38.910    1.7904
   38.925    1.8220
   38.940    1.6324
   38.955    1.7272
   38.970    1.7483
   38.985    1.7378
   39.000    1.8009
   39.015    1.8957
   39.030    1.7483
   39.045    1.8852
   39.060    1.6219
   39.075    1.8009
   39.090    1.7483
   39.105    1.6430
   39.120    1.7062
   39.135    1.8220
   39.150    1.6956
   39.165    1.7483
   39.180    1.7694
   39.195    1.8009
   39.210    1.6956
   39.225    1.7062
   39.240    1.7272
   39.255    1.7062
   39.270    1.8536
   39.285    1.8431
   39.300    1.8220
   39.315    1.7062
   39.330    1.5798
   39.345    1.6219
   39.360    1.6008
   39.375    1.5692
   39.390    1.6114
   39.405    1.6008
   39.420    1.6851
   39.435    1.7483
   39.450    1.7167
   39.465    1.7588
   39.480    1.7272
   39.495    1.7904
   39.510    1.7694
   39.525    1.7378
   39.540    1.8220
   39.555    1.7904
   39.570    1.9168
   39.585    1.7799
   39.600    1.7272
   39.615    1.6324
   39.630    1.6008
   39.645    1.6746
   39.660    1.6324
   39.675    1.5482
   39.690    1.8747
   39.705    1.6851
   39.720    1.9379
   39.735    1.7904
   39.750    1.7378
   39.765    1.6430
   39.780    1.8115
   39.795    1.7799
   39.810    1.6114
   39.825    1.5377
   39.840    1.6640
   39.855    1.8009
   39.870    1.7378
   39.885    1.5692
   39.900    1.6008
   39.915    1.8220
   39.930    1.7483
   39.945    1.5903
   39.960    1.7378
   39.975    1.6640
   39.990    1.6640
