    1.500   13.3965
    1.515   13.2807
    1.530   13.5124
    1.545   13.3123
    1.560   13.1964
    1.575   13.3228
    1.590   12.7436
    1.605   12.7857
    1.620   12.3117
    1.635   12.1222
    1.650   12.9753
    1.665   11.9010
    1.680   11.8062
    1.695   11.7430
    1.710   12.1643
    1.725   11.9642
    1.740   12.2170
    1.755   11.9853
    1.770   11.8905
    1.785   11.9853
    1.800   11.8273
    1.815   12.4171
    1.830   11.9010
    1.845   11.6693
    1.860   11.4692
    1.875   11.6482
    1.890   11.2059
    1.905   10.8583
    1.920   11.3007
    1.935   10.9426
    1.950   11.0163
    1.965   12.1327
    1.980   11.9642
    1.995   11.3639
    2.010   10.8583
    2.025   11.0795
    2.040   11.1532
    2.055   11.6904
    2.070   11.7325
    2.085   11.5219
    2.100   10.9215
    2.115   11.2480
    2.130   11.0479
    2.145   11.3323
    2.160   11.2480
    2.175   11.2902
    2.190   11.5008
    2.205   11.8483
    2.220   11.6272
    2.235   11.3849
    2.250   11.9853
    2.265   11.4271
    2.280   11.1954
    2.295   11.7536
    2.310   11.7009
    2.325   11.9326
    2.340   11.8167
    2.355   11.5429
    2.370   12.0063
    2.385   11.9010
    2.400   12.0590
    2.415   12.5961
    2.430   12.1748
    2.445   12.7330
    2.460   12.2907
    2.475   12.6172
    2.490   12.5645
    2.505   12.7330
    2.520   13.0806
    2.535   13.5124
    2.550   13.5124
    2.565   13.4492
    2.580   13.2070
    2.595   14.2075
    2.610   13.9442
    2.625   13.6282
    2.640   14.5445
    2.655   14.6709
    2.670   14.8499
    2.685   14.5550
    2.700   15.1553
    2.715   14.8605
    2.730   15.4502
    2.745   15.3976
    2.760   16.7667
    2.775   16.3770
    2.790   16.4192
    2.805   16.6614
    2.820   16.7246
    2.835   17.0405
    2.850   17.9779
    2.865   18.0305
    2.880   18.3149
    2.895   19.2312
    2.910   19.4207
    2.925   19.9157
    2.940   20.1580
    2.955   19.5050
    2.970   20.7899
    2.985   21.9589
    3.000   22.0326
    3.015   22.9700
    3.030   23.7283
    3.045   24.2970
    3.060   24.1706
    3.075   24.9605
    3.090   25.5924
    3.105   26.6456
    3.120   26.7299
    3.135   28.3834
    3.150   28.9731
    3.165   30.0790
    3.180   31.5640
    3.195   32.9015
    3.210   33.6072
    3.225   35.4818
    3.240   35.9768
    3.255   37.8304
    3.270   38.9363
    3.285   40.9057
    3.300   42.2749
    3.315   45.0342
    3.330   46.9194
    3.345   49.4787
    3.360   51.7746
    3.375   55.5240
    3.390   57.5671
    3.405   60.6635
    3.420   63.3597
    3.435   67.3934
    3.450   68.3939
    3.465   68.4360
    3.480   67.5829
    3.495   64.1812
    3.510   58.1464
    3.525   54.3339
    3.540   48.7520
    3.555   42.5803
    3.570   37.2301
    3.585   34.7973
    3.600   31.6061
    3.615   30.0790
    3.630   28.1517
    3.645   27.2459
    3.660   26.3086
    3.675   25.2659
    3.690   25.4976
    3.705   25.7609
    3.720   25.6451
    3.735   26.0137
    3.750   25.3818
    3.765   25.6556
    3.780   25.8241
    3.795   26.3296
    3.810   28.3939
    3.825   28.5413
    3.840   28.3307
    3.855   28.4466
    3.870   28.1411
    3.885   28.7625
    3.900   29.0679
    3.915   30.5003
    3.930   29.9947
    3.945   30.5529
    3.960   30.8162
    3.975   30.2054
    3.990   30.3423
    4.005   29.7736
    4.020   29.4576
    4.035   29.4576
    4.050   28.4992
    4.065   27.4039
    4.080   26.5613
    4.095   25.4871
    4.110   24.6235
    4.125   23.7809
    4.140   22.4855
    4.155   21.7904
    4.170   20.2949
    4.185   18.6414
    4.200   18.5887
    4.215   17.9042
    4.230   16.5034
    4.245   15.8926
    4.260   15.4502
    4.275   14.3233
    4.290   14.0074
    4.305   12.9753
    4.320   13.0700
    4.335   12.2696
    4.350   11.6693
    4.365   10.6688
    4.380   10.5951
    4.395   10.3107
    4.410    9.8999
    4.425    9.5735
    4.440    8.6467
    4.455    8.7625
    4.470    8.3307
    4.485    8.2991
    4.500    7.8884
    4.515    7.8778
    4.530    8.0358
    4.545    7.3828
    4.560    7.2354
    4.575    7.1722
    4.590    6.9826
    4.605    7.2038
    4.620    6.7615
    4.635    6.7825
    4.650    6.3823
    4.665    6.5087
    4.680    6.4560
    4.695    6.3507
    4.710    6.6772
    4.725    6.6877
    4.740    6.3718
    4.755    6.0979
    4.770    6.0032
    4.785    6.1822
    4.800    6.2243
    4.815    6.1611
    4.830    6.2243
    4.845    5.9716
    4.860    5.9294
    4.875    5.6767
    4.890    6.1295
    4.905    5.7399
    4.920    5.9821
    4.935    5.7188
    4.950    5.6977
    4.965    5.5608
    4.980    5.5187
    4.995    5.6767
    5.010    5.6767
    5.025    5.3818
    5.040    5.6029
    5.055    5.3923
    5.070    5.3818
    5.085    5.4660
    5.100    5.4976
    5.115    5.2238
    5.130    5.4239
    5.145    5.7083
    5.160    5.5187
    5.175    5.6872
    5.190    5.2659
    5.205    5.6556
    5.220    5.5503
    5.235    5.3502
    5.250    5.4239
    5.265    5.2343
    5.280    5.1711
    5.295    5.2975
    5.310    4.9816
    5.325    4.9500
    5.340    5.4871
    5.355    5.3712
    5.370    5.1080
    5.385    5.4134
    5.400    5.4239
    5.415    5.1606
    5.430    4.8657
    5.445    5.2027
    5.460    4.9605
    5.475    4.9816
    5.490    5.2238
    5.505    4.8763
    5.520    4.8973
    5.535    5.0869
    5.550    4.9921
    5.565    4.9605
    5.580    5.1817
    5.595    5.2449
    5.610    5.0553
    5.625    4.8763
    5.640    5.0553
    5.655    5.1080
    5.670    5.1185
    5.685    5.4239
    5.700    5.0764
    5.715    4.8131
    5.730    5.1395
    5.745    4.9500
    5.760    4.8763
    5.775    5.3923
    5.790    5.2027
    5.805    4.8447
    5.820    5.0026
    5.835    4.9710
    5.850    4.6867
    5.865    4.5814
    5.880    5.0658
    5.895    5.0869
    5.910    5.0342
    5.925    5.1606
    5.940    4.9816
    5.955    5.0658
    5.970    5.1395
    5.985    4.8868
    6.000    4.7077
    6.015    4.6130
    6.030    4.4023
    6.045    4.8657
    6.060    4.8341
    6.075    4.8657
    6.090    4.8763
    6.105    4.9605
    6.120    4.9605
    6.135    4.9710
    6.150    5.1922
    6.165    4.9816
    6.180    4.7709
    6.195    4.9605
    6.210    4.6340
    6.225    4.8973
    6.240    4.9394
    6.255    4.9078
    6.270    5.3081
    6.285    4.7815
    6.300    5.2870
    6.315    5.3923
    6.330    4.8868
    6.345    5.1185
    6.360    5.4555
    6.375    5.4660
    6.390    5.0553
    6.405    5.3923
    6.420    5.6345
    6.435    5.4766
    6.450    5.3818
    6.465    5.1922
    6.480    5.1922
    6.495    5.6661
    6.510    5.4555
    6.525    5.4028
    6.540    5.8557
    6.555    5.7293
    6.570    6.1085
    6.585    5.6977
    6.600    5.7399
    6.615    5.7609
    6.630    6.0137
    6.645    6.0137
    6.660    6.4244
    6.675    6.4350
    6.690    6.6140
    6.705    6.3086
    6.720    6.6772
    6.735    6.9721
    6.750    6.8036
    6.765    6.8036
    6.780    7.1827
    6.795    7.3512
    6.810    7.7093
    6.825    7.9726
    6.840    7.6145
    6.855    7.8462
    6.870    8.6361
    6.885    8.9415
    6.900    9.0469
    6.915    9.4155
    6.930    9.7946
    6.945    9.7209
    6.960    9.6577
    6.975   10.0474
    6.990   10.1527
    7.005   10.1843
    7.020    9.6367
    7.035    9.2575
    7.050    8.6045
    7.065    7.8884
    7.080    7.7093
    7.095    6.7299
    7.110    6.5613
    7.125    6.7615
    7.140    6.3823
    7.155    6.2665
    7.170    6.1611
    7.185    5.3818
    7.200    5.8452
    7.215    5.8557
    7.230    5.4134
    7.245    5.3712
    7.260    5.6240
    7.275    5.6240
    7.290    5.5714
    7.305    5.6661
    7.320    5.8873
    7.335    5.6240
    7.350    5.3923
    7.365    5.4450
    7.380    5.8031
    7.395    5.5187
    7.410    5.5819
    7.425    5.3291
    7.440    5.6135
    7.455    5.5924
    7.470    5.4766
    7.485    5.4344
    7.500    5.6556
    7.515    5.8978
    7.530    5.9294
    7.545    5.5292
    7.560    5.7715
    7.575    5.4450
    7.590    5.7609
    7.605    5.6135
    7.620    5.5714
    7.635    5.7399
    7.650    5.7083
    7.665    5.9400
    7.680    6.1401
    7.695    5.8662
    7.710    6.0979
    7.725    6.0242
    7.740    6.0874
    7.755    5.8662
    7.770    5.9716
    7.785    6.1190
    7.800    6.0874
    7.815    5.9189
    7.830    6.2243
    7.845    6.3928
    7.860    6.4244
    7.875    6.4139
    7.890    6.4139
    7.905    6.3823
    7.920    6.3296
    7.935    6.7193
    7.950    6.9089
    7.965    6.9194
    7.980    6.1927
    7.995    6.8984
    8.010    6.5929
    8.025    6.6772
    8.040    6.7720
    8.055    6.5403
    8.070    6.5192
    8.085    6.6877
    8.100    6.5719
    8.115    6.3823
    8.130    6.6772
    8.145    6.6245
    8.160    6.4771
    8.175    6.6983
    8.190    6.3507
    8.205    6.8984
    8.220    6.3928
    8.235    6.7088
    8.250    6.6877
    8.265    6.6667
    8.280    6.3823
    8.295    6.3612
    8.310    6.3928
    8.325    6.3612
    8.340    6.2349
    8.355    6.5087
    8.370    6.2033
    8.385    6.2559
    8.400    6.4560
    8.415    5.7925
    8.430    6.1822
    8.445    5.8662
    8.460    5.7504
    8.475    6.0558
    8.490    5.2765
    8.505    5.3818
    8.520    5.5608
    8.535    5.8136
    8.550    5.8031
    8.565    5.6556
    8.580    5.9189
    8.595    5.6661
    8.610    5.3502
    8.625    5.1922
    8.640    5.4134
    8.655    5.4555
    8.670    5.3081
    8.685    5.3291
    8.700    5.0869
    8.715    5.3712
    8.730    5.2975
    8.745    4.9289
    8.760    5.1185
    8.775    4.7920
    8.790    4.8763
    8.805    4.9184
    8.820    5.2975
    8.835    5.1606
    8.850    4.9078
    8.865    4.6024
    8.880    4.8447
    8.895    4.9394
    8.910    4.7709
    8.925    4.9605
    8.940    4.8025
    8.955    4.8447
    8.970    4.7077
    8.985    4.7499
    9.000    4.5814
    9.015    4.8552
    9.030    4.8131
    9.045    5.0658
    9.060    4.7604
    9.075    4.8973
    9.090    4.8131
    9.105    4.8973
    9.120    4.9394
    9.135    4.7183
    9.150    4.9605
    9.165    4.8236
    9.180    4.7499
    9.195    5.0026
    9.210    4.6235
    9.225    4.5076
    9.240    4.6867
    9.255    4.7499
    9.270    4.6130
    9.285    4.7499
    9.300    5.2238
    9.315    4.9500
    9.330    4.8341
    9.345    4.5603
    9.360    4.8973
    9.375    4.7604
    9.390    4.8341
    9.405    4.8025
    9.420    4.5708
    9.435    4.7393
    9.450    5.1501
    9.465    4.6867
    9.480    4.6340
    9.495    5.0764
    9.510    4.4866
    9.525    4.5919
    9.540    4.4866
    9.555    4.3707
    9.570    4.7499
    9.585    4.8025
    9.600    4.8447
    9.615    4.7499
    9.630    4.6761
    9.645    4.6656
    9.660    4.5182
    9.675    4.4655
    9.690    4.4339
    9.705    4.9394
    9.720    4.8552
    9.735    5.0237
    9.750    4.8657
    9.765    4.6972
    9.780    4.7393
    9.795    4.6656
    9.810    4.5076
    9.825    4.4866
    9.840    4.7815
    9.855    4.9078
    9.870    4.6340
    9.885    4.4234
    9.900    4.5919
    9.915    4.8131
    9.930    4.7288
    9.945    4.9078
    9.960    4.5076
    9.975    4.3918
    9.990    4.4444
   10.005    4.3497
   10.020    4.5287
   10.035    4.7183
   10.050    4.4971
   10.065    4.2865
   10.080    4.6867
   10.095    5.0026
   10.110    4.8131
   10.125    4.8763
   10.140    4.5287
   10.155    4.9816
   10.170    4.6445
   10.185    4.9184
   10.200    4.7815
   10.215    4.6867
   10.230    4.5076
   10.245    4.6867
   10.260    4.6130
   10.275    4.6130
   10.290    5.2343
   10.305    4.9710
   10.320    4.9605
   10.335    4.4128
   10.350    4.5814
   10.365    4.9710
   10.380    4.8131
   10.395    5.1185
   10.410    4.8657
   10.425    5.1922
   10.440    5.2027
   10.455    4.9500
   10.470    5.0448
   10.485    4.8763
   10.500    5.2659
   10.515    5.1606
   10.530    4.8657
   10.545    4.9816
   10.560    5.0342
   10.575    4.4550
   10.590    4.6551
   10.605    4.5392
   10.620    4.8025
   10.635    4.3181
   10.650    4.6867
   10.665    4.6340
   10.680    4.4444
   10.695    4.7288
   10.710    4.5287
   10.725    4.7604
   10.740    4.8763
   10.755    4.8341
   10.770    4.4550
   10.785    4.6445
   10.800    4.6551
   10.815    4.3813
   10.830    4.2865
   10.845    5.0448
   10.860    4.8763
   10.875    4.9078
   10.890    4.5392
   10.905    4.5814
   10.920    4.2759
   10.935    4.5287
   10.950    4.4550
   10.965    4.5708
   10.980    4.3707
   10.995    4.5603
   11.010    4.4760
   11.025    4.8236
   11.040    4.4128
   11.055    4.6761
   11.070    4.8236
   11.085    4.7183
   11.100    4.8236
   11.115    4.8341
   11.130    4.6867
   11.145    4.4760
   11.160    4.4655
   11.175    4.4128
   11.190    4.6867
   11.205    4.6761
   11.220    4.6445
   11.235    4.8552
   11.250    5.0764
   11.265    5.1290
   11.280    4.6551
   11.295    4.4866
   11.310    4.8341
   11.325    4.5182
   11.340    4.9394
   11.355    4.8236
   11.370    4.6340
   11.385    4.9289
   11.400    4.5076
   11.415    4.3918
   11.430    4.4655
   11.445    4.3707
   11.460    4.7077
   11.475    4.5076
   11.490    4.5919
   11.505    4.6235
   11.520    4.4128
   11.535    4.7709
   11.550    4.7077
   11.565    4.8552
   11.580    4.5708
   11.595    4.4550
   11.610    4.8341
   11.625    4.6972
   11.640    4.6656
   11.655    4.5603
   11.670    4.6972
   11.685    4.6340
   11.700    4.7077
   11.715    4.6235
   11.730    4.5076
   11.745    4.5603
   11.760    4.7709
   11.775    4.7077
   11.790    4.8973
   11.805    5.1501
   11.820    4.7077
   11.835    4.3286
   11.850    4.8025
   11.865    4.8552
   11.880    4.6551
   11.895    4.7288
   11.910    4.6656
   11.925    4.7183
   11.940    4.7077
   11.955    4.4550
   11.970    4.9289
   11.985    4.7393
   12.000    4.6024
   12.015    4.8236
   12.030    4.6340
   12.045    4.7920
   12.060    5.0448
   12.075    4.6972
   12.090    4.8447
   12.105    4.5498
   12.120    4.6656
   12.135    4.8025
   12.150    4.7077
   12.165    4.6551
   12.180    4.6761
   12.195    4.6130
   12.210    4.8763
   12.225    4.6340
   12.240    4.4971
   12.255    4.7077
   12.270    4.8763
   12.285    4.7077
   12.300    4.8025
   12.315    4.7920
   12.330    4.7815
   12.345    5.0342
   12.360    4.8552
   12.375    4.6024
   12.390    4.5603
   12.405    4.2759
   12.420    4.5603
   12.435    4.8025
   12.450    4.7288
   12.465    5.1080
   12.480    4.7604
   12.495    4.8025
   12.510    4.7815
   12.525    4.7815
   12.540    4.5076
   12.555    4.6445
   12.570    4.6024
   12.585    4.8552
   12.600    4.6867
   12.615    4.7709
   12.630    4.5814
   12.645    4.6340
   12.660    4.8341
   12.675    4.6972
   12.690    4.5814
   12.705    4.7393
   12.720    4.8868
   12.735    4.7288
   12.750    4.6656
   12.765    4.8763
   12.780    4.6972
   12.795    4.7183
   12.810    4.6340
   12.825    4.4234
   12.840    4.4866
   12.855    4.8131
   12.870    4.8025
   12.885    4.9816
   12.900    4.5603
   12.915    4.6024
   12.930    4.8131
   12.945    4.4444
   12.960    4.5182
   12.975    4.3497
   12.990    4.5498
   13.005    4.5076
   13.020    4.5287
   13.035    4.5919
   13.050    4.7077
   13.065    4.5498
   13.080    4.6130
   13.095    4.7393
   13.110    4.6867
   13.125    4.6972
   13.140    4.9078
   13.155    4.4339
   13.170    4.3286
   13.185    4.5392
   13.200    4.6551
   13.215    4.3391
   13.230    4.6340
   13.245    4.3707
   13.260    4.3497
   13.275    4.1917
   13.290    4.3497
   13.305    4.2549
   13.320    4.7077
   13.335    4.7499
   13.350    4.8131
   13.365    4.5498
   13.380    4.7183
   13.395    4.8131
   13.410    4.5919
   13.425    4.7393
   13.440    4.4339
   13.455    4.4128
   13.470    4.4444
   13.485    4.2865
   13.500    4.4234
   13.515    4.6340
   13.530    4.5392
   13.545    4.7288
   13.560    4.4760
   13.575    4.6340
   13.590    4.4128
   13.605    4.6867
   13.620    4.2443
   13.635    4.5076
   13.650    4.7499
   13.665    4.2759
   13.680    4.2970
   13.695    4.6551
   13.710    4.3602
   13.725    4.7920
   13.740    4.6867
   13.755    4.4234
   13.770    4.2759
   13.785    4.5392
   13.800    4.3497
   13.815    4.2759
   13.830    4.5603
   13.845    4.4760
   13.860    4.6340
   13.875    4.5076
   13.890    4.5182
   13.905    4.5814
   13.920    4.3181
   13.935    4.7604
   13.950    4.5287
   13.965    4.3602
   13.980    4.4234
   13.995    4.9710
   14.010    4.4234
   14.025    4.4234
   14.040    4.4444
   14.055    4.4971
   14.070    4.7077
   14.085    4.5076
   14.100    4.4023
   14.115    4.6551
   14.130    4.5392
   14.145    4.6972
   14.160    4.3918
   14.175    4.4234
   14.190    4.6024
   14.205    4.5919
   14.220    4.8552
   14.235    4.4971
   14.250    4.4866
   14.265    4.1180
   14.280    4.1496
   14.295    4.2127
   14.310    4.6340
   14.325    4.5498
   14.340    4.4971
   14.355    4.5076
   14.370    4.5182
   14.385    4.2127
   14.400    4.1390
   14.415    4.3497
   14.430    4.4339
   14.445    4.3497
   14.460    4.3181
   14.475    4.4234
   14.490    4.5076
   14.505    4.5498
   14.520    4.1496
   14.535    4.2759
   14.550    4.2127
   14.565    4.5708
   14.580    4.4760
   14.595    4.2759
   14.610    4.3391
   14.625    4.2549
   14.640    4.6445
   14.655    4.7183
   14.670    4.4760
   14.685    4.2338
   14.700    4.5498
   14.715    4.3813
   14.730    4.4550
   14.745    4.4128
   14.760    4.7288
   14.775    4.5603
   14.790    4.2654
   14.805    4.3286
   14.820    4.4866
   14.835    4.3497
   14.850    4.4760
   14.865    4.5603
   14.880    4.8236
   14.895    4.4234
   14.910    4.4550
   14.925    4.6024
   14.940    4.4971
   14.955    4.1601
   14.970    4.6972
   14.985    4.4444
   15.000    4.5708
   15.015    4.6340
   15.030    4.3497
   15.045    4.0337
   15.060    4.5814
   15.075    4.3286
   15.090    4.2759
   15.105    4.3813
   15.120    4.0969
   15.135    4.1811
   15.150    4.0653
   15.165    4.1180
   15.180    4.2022
   15.195    4.7499
   15.210    4.7709
   15.225    4.6551
   15.240    4.4444
   15.255    4.3075
   15.270    4.3181
   15.285    4.4655
   15.300    4.5392
   15.315    4.1496
   15.330    4.3391
   15.345    4.5498
   15.360    4.4023
   15.375    4.3813
   15.390    4.3813
   15.405    4.6130
   15.420    4.5919
   15.435    4.2759
   15.450    4.0653
   15.465    4.2549
   15.480    3.9810
   15.495    4.0758
   15.510    4.5919
   15.525    4.4339
   15.540    4.4128
   15.555    3.9600
   15.570    4.2338
   15.585    4.7183
   15.600    4.4128
   15.615    4.3918
   15.630    4.2127
   15.645    4.4444
   15.660    4.5076
   15.675    4.6972
   15.690    4.4760
   15.705    4.2022
   15.720    4.3391
   15.735    4.9500
   15.750    4.5708
   15.765    4.3075
   15.780    4.4655
   15.795    4.2022
   15.810    4.5392
   15.825    4.2759
   15.840    4.1917
   15.855    4.3181
   15.870    4.6972
   15.885    4.5603
   15.900    4.5392
   15.915    4.2654
   15.930    4.5392
   15.945    4.3707
   15.960    4.7920
   15.975    4.4971
   15.990    4.2865
   16.005    4.4866
   16.020    4.5708
   16.035    4.5287
   16.050    4.4866
   16.065    4.4550
   16.080    4.3918
   16.095    4.5814
   16.110    4.4128
   16.125    4.6130
   16.140    4.5182
   16.155    4.5498
   16.170    4.5498
   16.185    4.3286
   16.200    4.2865
   16.215    4.2865
   16.230    4.4339
   16.245    4.3707
   16.260    4.6656
   16.275    4.3181
   16.290    4.5708
   16.305    4.4234
   16.320    4.1601
   16.335    4.1811
   16.350    4.3602
   16.365    4.2127
   16.380    4.3497
   16.395    4.2127
   16.410    4.4760
   16.425    4.6235
   16.440    4.5392
   16.455    4.6656
   16.470    4.6024
   16.485    4.2549
   16.500    4.2338
   16.515    4.1917
   16.530    4.3075
   16.545    4.4023
   16.560    4.4550
   16.575    4.1917
   16.590    4.4971
   16.605    4.8657
   16.620    4.5498
   16.635    3.9705
   16.650    4.3602
   16.665    4.4866
   16.680    4.4339
   16.695    4.7393
   16.710    4.4760
   16.725    4.2233
   16.740    4.4866
   16.755    4.7499
   16.770    4.4971
   16.785    4.3813
   16.800    4.5814
   16.815    4.4866
   16.830    4.4655
   16.845    4.3813
   16.860    4.2970
   16.875    4.4339
   16.890    4.5708
   16.905    4.5392
   16.920    4.3075
   16.935    4.5076
   16.950    4.5287
   16.965    4.5287
   16.980    4.4550
   16.995    4.4023
   17.010    4.2549
   17.025    4.4866
   17.040    4.2759
   17.055    4.6867
   17.070    4.5708
   17.085    4.3918
   17.100    4.5287
   17.115    4.5814
   17.130    4.6445
   17.145    4.4128
   17.160    4.4866
   17.175    4.6340
   17.190    4.4550
   17.205    4.4339
   17.220    4.1601
   17.235    4.4339
   17.250    4.4866
   17.265    4.4550
   17.280    4.2233
   17.295    4.1706
   17.310    4.3286
   17.325    4.5708
   17.340    4.2654
   17.355    4.5182
   17.370    4.4971
   17.385    4.4550
   17.400    4.6130
   17.415    4.3602
   17.430    4.3602
   17.445    4.4866
   17.460    4.5708
   17.475    4.2970
   17.490    4.1811
   17.505    4.3286
   17.520    4.3918
   17.535    4.1811
   17.550    4.5287
   17.565    4.3075
   17.580    4.4023
   17.595    4.3286
   17.610    4.4550
   17.625    4.4655
   17.640    4.4444
   17.655    4.5498
   17.670    4.5392
   17.685    4.7183
   17.700    4.7709
   17.715    4.7077
   17.730    4.6024
   17.745    4.5076
   17.760    4.7604
   17.775    4.4655
   17.790    4.1917
   17.805    4.6761
   17.820    4.3918
   17.835    4.3075
   17.850    4.6235
   17.865    4.4971
   17.880    4.2865
   17.895    4.4655
   17.910    4.2970
   17.925    4.0232
   17.940    4.2338
   17.955    4.3286
   17.970    4.3497
   17.985    4.2338
   18.000    4.1706
   18.015    4.4550
   18.030    4.4760
   18.045    4.2865
   18.060    4.4971
   18.075    4.2233
   18.090    4.5287
   18.105    4.6024
   18.120    4.5603
   18.135    4.6340
   18.150    4.5076
   18.165    4.2338
   18.180    4.3707
   18.195    4.3075
   18.210    4.2338
   18.225    4.4234
   18.240    4.4760
   18.255    4.6130
   18.270    4.3497
   18.285    4.2443
   18.300    4.6761
   18.315    4.7815
   18.330    4.8341
   18.345    4.4655
   18.360    4.5182
   18.375    4.6972
   18.390    4.5814
   18.405    4.1601
   18.420    4.4655
   18.435    4.7499
   18.450    4.7709
   18.465    4.5708
   18.480    4.6761
   18.495    4.6972
   18.510    4.7499
   18.525    4.3707
   18.540    4.5076
   18.555    4.6445
   18.570    4.3813
   18.585    4.4339
   18.600    4.0864
   18.615    4.5392
   18.630    4.8657
   18.645    4.7604
   18.660    4.6445
   18.675    4.2759
   18.690    4.6867
   18.705    4.4339
   18.720    4.3181
   18.735    4.5603
   18.750    4.6340
   18.765    4.6972
   18.780    4.5287
   18.795    4.8236
   18.810    4.8236
   18.825    4.5708
   18.840    4.5814
   18.855    4.5708
   18.870    4.2970
   18.885    4.1390
   18.900    4.6445
   18.915    4.6340
   18.930    4.7499
   18.945    4.5498
   18.960    4.8552
   18.975    5.2027
   18.990    5.0869
   19.005    4.9710
   19.020    5.1711
   19.035    5.2238
   19.050    4.7183
   19.065    4.8447
   19.080    4.7815
   19.095    4.8552
   19.110    4.8341
   19.125    4.9605
   19.140    4.8341
   19.155    4.5392
   19.170    4.6867
   19.185    4.6130
   19.200    4.5603
   19.215    4.5814
   19.230    4.9816
   19.245    4.4866
   19.260    4.6235
   19.275    4.7393
   19.290    4.2865
   19.305    4.5603
   19.320    4.6024
   19.335    4.2970
   19.350    4.7815
   19.365    4.4971
   19.380    4.7815
   19.395    4.9921
   19.410    4.9078
   19.425    4.7183
   19.440    4.6656
   19.455    5.0237
   19.470    4.9394
   19.485    4.4023
   19.500    4.3075
   19.515    4.6867
   19.530    4.5392
   19.545    4.5392
   19.560    4.3497
   19.575    4.7709
   19.590    5.0237
   19.605    4.6340
   19.620    4.3707
   19.635    4.6445
   19.650    4.7815
   19.665    4.4971
   19.680    4.9184
   19.695    4.8973
   19.710    4.8868
   19.725    4.6235
   19.740    4.5392
   19.755    4.8131
   19.770    5.0553
   19.785    4.5287
   19.800    4.5603
   19.815    4.8552
   19.830    4.7288
   19.845    4.5814
   19.860    4.8868
   19.875    4.6340
   19.890    4.8236
   19.905    5.1290
   19.920    5.0026
   19.935    5.0658
   19.950    4.4128
   19.965    4.7077
   19.980    4.7288
   19.995    4.7288
   20.010    5.0553
   20.025    4.8763
   20.040    4.9921
   20.055    4.9289
   20.070    4.7709
   20.085    4.4339
   20.100    4.5708
   20.115    4.4655
   20.130    4.5919
   20.145    4.8657
   20.160    4.6867
   20.175    4.9816
   20.190    4.9289
   20.205    5.3186
   20.220    4.9289
   20.235    4.6130
   20.250    4.7077
   20.265    4.8025
   20.280    4.4023
   20.295    4.3602
   20.310    4.8236
   20.325    4.6235
   20.340    5.0026
   20.355    5.1711
   20.370    4.8657
   20.385    4.8868
   20.400    4.8341
   20.415    4.4971
   20.430    4.7499
   20.445    4.9289
   20.460    4.6551
   20.475    4.5708
   20.490    4.8341
   20.505    4.5603
   20.520    4.6340
   20.535    4.8025
   20.550    4.8447
   20.565    4.7815
   20.580    4.5708
   20.595    4.8131
   20.610    4.7499
   20.625    4.3286
   20.640    4.5392
   20.655    4.6551
   20.670    4.9605
   20.685    4.7499
   20.700    4.5182
   20.715    4.4444
   20.730    4.6340
   20.745    4.8131
   20.760    4.6867
   20.775    5.1711
   20.790    4.8763
   20.805    4.5498
   20.820    4.6445
   20.835    5.2238
   20.850    4.8131
   20.865    4.6235
   20.880    4.6340
   20.895    4.7393
   20.910    4.7604
   20.925    4.9289
   20.940    4.6972
   20.955    4.5919
   20.970    4.8973
   20.985    5.0342
   21.000    4.9710
   21.015    4.7183
   21.030    4.8763
   21.045    4.9500
   21.060    4.8236
   21.075    4.9921
   21.090    4.7815
   21.105    4.7077
   21.120    4.8236
   21.135    4.6445
   21.150    4.7604
   21.165    4.8973
   21.180    4.8131
   21.195    4.8763
   21.210    4.6656
   21.225    4.8868
   21.240    4.8131
   21.255    4.8973
   21.270    4.9710
   21.285    5.2659
   21.300    5.1922
   21.315    5.3818
   21.330    4.6761
   21.345    4.7709
   21.360    4.8025
   21.375    4.7393
   21.390    4.7604
   21.405    5.0448
   21.420    4.9289
   21.435    4.7920
   21.450    4.9710
   21.465    5.2975
   21.480    5.1080
   21.495    5.0132
   21.510    5.1606
   21.525    4.9289
   21.540    5.0342
   21.555    4.7815
   21.570    4.8868
   21.585    4.6445
   21.600    4.7393
   21.615    4.8236
   21.630    4.9710
   21.645    5.0553
   21.660    5.0974
   21.675    5.0764
   21.690    4.9078
   21.705    4.8868
   21.720    4.9605
   21.735    4.7393
   21.750    4.9078
   21.765    4.9184
   21.780    4.9605
   21.795    4.5814
   21.810    4.5392
   21.825    4.8131
   21.840    4.9816
   21.855    4.8552
   21.870    4.6445
   21.885    4.7499
   21.900    4.8973
   21.915    5.2554
   21.930    4.9921
   21.945    4.6235
   21.960    4.8552
   21.975    4.8973
   21.990    5.3607
   22.005    4.9500
   22.020    4.7077
   22.035    5.1922
   22.050    4.9078
   22.065    5.1395
   22.080    4.6235
   22.095    4.9710
   22.110    5.0342
   22.125    5.1395
   22.140    4.9289
   22.155    4.8763
   22.170    5.0342
   22.185    5.0553
   22.200    5.0026
   22.215    4.9921
   22.230    4.8341
   22.245    4.8973
   22.260    4.8131
   22.275    4.9921
   22.290    4.9184
   22.305    5.0132
   22.320    4.9184
   22.335    4.6130
   22.350    4.8657
   22.365    5.0342
   22.380    4.9710
   22.395    4.7815
   22.410    4.9394
   22.425    4.7499
   22.440    4.7288
   22.455    4.8657
   22.470    4.9078
   22.485    5.2343
   22.500    5.0764
   22.515    4.8868
   22.530    4.9816
   22.545    4.8763
   22.560    5.0342
   22.575    4.8763
   22.590    4.5392
   22.605    4.8868
   22.620    4.9605
   22.635    4.8657
   22.650    5.1501
   22.665    5.2765
   22.680    4.6867
   22.695    4.8025
   22.710    5.1185
   22.725    4.6656
   22.740    4.8552
   22.755    4.8025
   22.770    4.8973
   22.785    5.0869
   22.800    4.6235
   22.815    4.6761
   22.830    5.2343
   22.845    5.0237
   22.860    4.9710
   22.875    4.7183
   22.890    5.2238
   22.905    4.5603
   22.920    4.4339
   22.935    5.2659
   22.950    4.9710
   22.965    4.7815
   22.980    5.0448
   22.995    4.9605
   23.010    4.6340
   23.025    4.5708
   23.040    4.5392
   23.055    4.7604
   23.070    5.0764
   23.085    4.5287
   23.100    5.0869
   23.115    5.0237
   23.130    4.5498
   23.145    4.9394
   23.160    4.8552
   23.175    4.7077
   23.190    5.0342
   23.205    4.9921
   23.220    4.7499
   23.235    4.6235
   23.250    4.4339
   23.265    4.6024
   23.280    4.7077
   23.295    4.5498
   23.310    4.9184
   23.325    5.4134
   23.340    4.9605
   23.355    4.5708
   23.370    4.6235
   23.385    4.7709
   23.400    4.7920
   23.415    4.8552
   23.430    4.8236
   23.445    5.1606
   23.460    4.8552
   23.475    4.6972
   23.490    4.6130
   23.505    4.7183
   23.520    4.9394
   23.535    5.1606
   23.550    4.7815
   23.565    4.7077
   23.580    4.5708
   23.595    4.7077
   23.610    4.5708
   23.625    4.8657
   23.640    4.8763
   23.655    4.8763
   23.670    4.4971
   23.685    4.6235
   23.700    4.8341
   23.715    4.9078
   23.730    4.5814
   23.745    4.7604
   23.760    4.7604
   23.775    4.6551
   23.790    4.8025
   23.805    4.7288
   23.820    5.1080
   23.835    5.0237
   23.850    4.5603
   23.865    4.7920
   23.880    4.8341
   23.895    4.6867
   23.910    4.6445
   23.925    4.6761
   23.940    4.8552
   23.955    4.6024
   23.970    4.6024
   23.985    4.6656
   24.000    4.5287
   24.015    4.6235
   24.030    4.5287
   24.045    4.5498
   24.060    4.4971
   24.075    4.5182
   24.090    4.4444
   24.105    4.7815
   24.120    4.5603
   24.135    4.5182
   24.150    4.7288
   24.165    4.9921
   24.180    4.9605
   24.195    4.6130
   24.210    4.4444
   24.225    4.5287
   24.240    4.6340
   24.255    4.4234
   24.270    4.7815
   24.285    4.8236
   24.300    4.5708
   24.315    4.9289
   24.330    4.8868
   24.345    4.6235
   24.360    4.3602
   24.375    4.3813
   24.390    4.2338
   24.405    4.5708
   24.420    4.6972
   24.435    4.8657
   24.450    4.5814
   24.465    4.5919
   24.480    4.6235
   24.495    4.9710
   24.510    4.5603
   24.525    4.3813
   24.540    4.6235
   24.555    4.7709
   24.570    4.7183
   24.585    5.0132
   24.600    4.7815
   24.615    4.5919
   24.630    4.7077
   24.645    4.5498
   24.660    4.4866
   24.675    4.6130
   24.690    4.6130
   24.705    4.4550
   24.720    4.9500
   24.735    4.8552
   24.750    4.7499
   24.765    4.5182
   24.780    4.8341
   24.795    5.0869
   24.810    4.5498
   24.825    4.8025
   24.840    4.3707
   24.855    4.3391
   24.870    4.6445
   24.885    4.5076
   24.900    4.6130
   24.915    4.5287
   24.930    4.4971
   24.945    4.7183
   24.960    4.5182
   24.975    4.3602
   24.990    4.6761
   25.005    4.7499
   25.020    4.6867
   25.035    4.4866
   25.050    4.3918
   25.065    4.3391
   25.080    4.2549
   25.095    4.5603
   25.110    4.2970
   25.125    4.6024
   25.140    4.3181
   25.155    4.3813
   25.170    4.5498
   25.185    4.4971
   25.200    4.6972
   25.215    4.3497
   25.230    4.5708
   25.245    4.1706
   25.260    4.0021
   25.275    4.1917
   25.290    4.3813
   25.305    4.2022
   25.320    4.6130
   25.335    4.5182
   25.350    4.5392
   25.365    4.3707
   25.380    4.1285
   25.395    4.6656
   25.410    4.8973
   25.425    4.4023
   25.440    4.2654
   25.455    4.5392
   25.470    4.9394
   25.485    4.7920
   25.500    4.4971
   25.515    4.4023
   25.530    4.3602
   25.545    4.8236
   25.560    4.6445
   25.575    4.3707
   25.590    4.7604
   25.605    4.2549
   25.620    4.6761
   25.635    4.4550
   25.650    4.5392
   25.665    4.2338
   25.680    4.3813
   25.695    4.5814
   25.710    4.1811
   25.725    4.4444
   25.740    4.4655
   25.755    4.5603
   25.770    4.2443
   25.785    4.2549
   25.800    4.2127
   25.815    4.2549
   25.830    4.4444
   25.845    4.5287
   25.860    4.3286
   25.875    4.3286
   25.890    4.1601
   25.905    4.1074
   25.920    4.1811
   25.935    4.5498
   25.950    4.4128
   25.965    4.3918
   25.980    4.6340
   25.995    4.3497
   26.010    4.4023
   26.025    4.3075
   26.040    4.2443
   26.055    4.2127
   26.070    4.4866
   26.085    4.1706
   26.100    4.3181
   26.115    4.0864
   26.130    4.3391
   26.145    4.3602
   26.160    4.5076
   26.175    4.2022
   26.190    4.5076
   26.205    4.4023
   26.220    4.1285
   26.235    4.1601
   26.250    4.1706
   26.265    4.2127
   26.280    4.4444
   26.295    4.4760
   26.310    4.2022
   26.325    4.2338
   26.340    4.3075
   26.355    4.2233
   26.370    4.1180
   26.385    4.3286
   26.400    4.1285
   26.415    4.0337
   26.430    4.1390
   26.445    4.4550
   26.460    4.7077
   26.475    4.4234
   26.490    4.1706
   26.505    4.4339
   26.520    4.5076
   26.535    4.4655
   26.550    4.1180
   26.565    4.4444
   26.580    4.6024
   26.595    4.4444
   26.610    4.6867
   26.625    4.3497
   26.640    4.0442
   26.655    4.2865
   26.670    4.2338
   26.685    4.5708
   26.700    4.2233
   26.715    4.2022
   26.730    4.1601
   26.745    4.2233
   26.760    4.2654
   26.775    4.2759
   26.790    4.2759
   26.805    4.2865
   26.820    4.2233
   26.835    4.1601
   26.850    4.0864
   26.865    4.4128
   26.880    4.3075
   26.895    4.0969
   26.910    4.0758
   26.925    4.2233
   26.940    4.3707
   26.955    4.3497
   26.970    4.2233
   26.985    4.1074
   27.000    4.0232
   27.015    4.2022
   27.030    4.3707
   27.045    4.3918
   27.060    4.1390
   27.075    4.1496
   27.090    3.9705
   27.105    3.6967
   27.120    4.3286
   27.135    4.3181
   27.150    4.0864
   27.165    4.2233
   27.180    3.9284
   27.195    3.9073
   27.210    4.1390
   27.225    4.2865
   27.240    4.6867
   27.255    4.3707
   27.270    4.2865
   27.285    4.0126
   27.300    4.3075
   27.315    4.3602
   27.330    4.2549
   27.345    4.2549
   27.360    4.1496
   27.375    4.1601
   27.390    4.2338
   27.405    4.3918
   27.420    4.0126
   27.435    4.0864
   27.450    4.4234
   27.465    4.2654
   27.480    4.0442
   27.495    4.0969
   27.510    4.2443
   27.525    4.0337
   27.540    4.3286
   27.555    4.1496
   27.570    4.1074
   27.585    4.3391
   27.600    4.1706
   27.615    4.0969
   27.630    4.2865
   27.645    3.9284
   27.660    4.0864
   27.675    3.9600
   27.690    4.4128
   27.705    3.9494
   27.720    4.0548
   27.735    4.1811
   27.750    3.9810
   27.765    4.1390
   27.780    4.2022
   27.795    4.1390
   27.810    4.2654
   27.825    4.3391
   27.840    4.4866
   27.855    4.4023
   27.870    4.2865
   27.885    4.2549
   27.900    4.3813
   27.915    4.6235
   27.930    4.2970
   27.945    4.3286
   27.960    4.3602
   27.975    4.2759
   27.990    4.3391
   28.005    4.5392
   28.020    4.4234
   28.035    4.2970
   28.050    4.4128
   28.065    4.4234
   28.080    4.4971
   28.095    4.3497
   28.110    4.1601
   28.125    4.1074
   28.140    4.0126
   28.155    4.3602
   28.170    4.2338
   28.185    4.3813
   28.200    4.1496
   28.215    3.9494
   28.230    3.9705
   28.245    3.9810
   28.260    4.0232
   28.275    4.2443
   28.290    3.8968
   28.305    4.1180
   28.320    4.4339
   28.335    4.3707
   28.350    3.9705
   28.365    4.3181
   28.380    4.1180
   28.395    4.2970
   28.410    3.9705
   28.425    4.3707
   28.440    4.3813
   28.455    4.0969
   28.470    4.4023
   28.485    4.2127
   28.500    4.2443
   28.515    4.0232
   28.530    3.9494
   28.545    4.2127
   28.560    4.6656
   28.575    4.1496
   28.590    4.0126
   28.605    4.0337
   28.620    4.0232
   28.635    3.8757
   28.650    4.0442
   28.665    4.2127
   28.680    3.9284
   28.695    4.0653
   28.710    4.2233
   28.725    4.3813
   28.740    4.2549
   28.755    3.8547
   28.770    4.1390
   28.785    4.0232
   28.800    4.2233
   28.815    4.0442
   28.830    3.8336
   28.845    4.1917
   28.860    4.1285
   28.875    4.1811
   28.890    4.4023
   28.905    4.2865
   28.920    4.1074
   28.935    4.3602
   28.950    4.0337
   28.965    4.1074
   28.980    4.4023
   28.995    4.1496
   29.010    4.2759
   29.025    4.1074
   29.040    4.0442
   29.055    3.6756
   29.070    3.8968
   29.085    4.2654
   29.100    4.3602
   29.115    4.2127
   29.130    3.9284
   29.145    3.9284
   29.160    4.0442
   29.175    4.0758
   29.190    3.9600
   29.205    4.0337
   29.220    4.1706
   29.235    3.9389
   29.250    3.9600
   29.265    3.8020
   29.280    4.2443
   29.295    4.1285
   29.310    3.7072
   29.325    3.9179
   29.340    4.2970
   29.355    3.9705
   29.370    3.9389
   29.385    3.9705
   29.400    3.7704
   29.415    3.7599
   29.430    4.0021
   29.445    4.0021
   29.460    4.0126
   29.475    4.0653
   29.490    4.4444
   29.505    4.1496
   29.520    3.9179
   29.535    3.8652
   29.550    3.8547
   29.565    3.9284
   29.580    3.9600
   29.595    4.0548
   29.610    3.7915
   29.625    3.9916
   29.640    3.7599
   29.655    3.8547
   29.670    3.7493
   29.685    3.8547
   29.700    3.8863
   29.715    3.8547
   29.730    3.9810
   29.745    3.8652
   29.760    3.9600
   29.775    4.0442
   29.790    4.0864
   29.805    4.0232
   29.820    4.0864
   29.835    4.1706
   29.850    4.1180
   29.865    4.2759
   29.880    4.3181
   29.895    3.9179
   29.910    3.7388
   29.925    3.8652
   29.940    3.7915
   29.955    3.8547
   29.970    3.8441
   29.985    4.2127
   30.000    4.0442
   30.015    3.8968
   30.030    3.7809
   30.045    3.9705
   30.060    3.8125
   30.075    3.9810
   30.090    3.9494
   30.105    3.8441
   30.120    4.0337
   30.135    3.8336
   30.150    3.8757
   30.165    3.8231
   30.180    3.9073
   30.195    3.8863
   30.210    4.1285
   30.225    4.0232
   30.240    4.1811
   30.255    3.9389
   30.270    4.1285
   30.285    3.6756
   30.300    3.8547
   30.315    3.8441
   30.330    3.6967
   30.345    3.7915
   30.360    4.0548
   30.375    3.8968
   30.390    4.0337
   30.405    4.0653
   30.420    3.9705
   30.435    4.0864
   30.450    3.8547
   30.465    3.6862
   30.480    4.0126
   30.495    3.8231
   30.510    4.0126
   30.525    3.5703
   30.540    3.6756
   30.555    3.8441
   30.570    3.9073
   30.585    3.5703
   30.600    3.8125
   30.615    3.7493
   30.630    3.7072
   30.645    3.7599
   30.660    3.8968
   30.675    3.7177
   30.690    3.4123
   30.705    3.6440
   30.720    3.6651
   30.735    3.7915
   30.750    4.1496
   30.765    4.1390
   30.780    3.7809
   30.795    3.6335
   30.810    3.7493
   30.825    3.6335
   30.840    3.7072
   30.855    3.7388
   30.870    3.8125
   30.885    3.8652
   30.900    3.6862
   30.915    3.6230
   30.930    3.9073
   30.945    3.9389
   30.960    3.6440
   30.975    3.9389
   30.990    3.9600
   31.005    3.8231
   31.020    3.8863
   31.035    3.9284
   31.050    3.9284
   31.065    3.7493
   31.080    3.9389
   31.095    3.8441
   31.110    3.7283
   31.125    3.9389
   31.140    3.9179
   31.155    4.0337
   31.170    3.7177
   31.185    3.4860
   31.200    3.6335
   31.215    3.7493
   31.230    3.8020
   31.245    3.8231
   31.260    3.5176
   31.275    3.6546
   31.290    3.7177
   31.305    3.7915
   31.320    3.6230
   31.335    3.8020
   31.350    4.1074
   31.365    4.0232
   31.380    3.7599
   31.395    3.6862
   31.410    3.6756
   31.425    3.6756
   31.440    3.8968
   31.455    3.6019
   31.470    3.7177
   31.485    3.7493
   31.500    3.7809
   31.515    3.7388
   31.530    3.4123
   31.545    3.5914
   31.560    3.6756
   31.575    3.6756
   31.590    3.8020
   31.605    3.9705
   31.620    3.8125
   31.635    3.8757
   31.650    3.9073
   31.665    3.9600
   31.680    3.7177
   31.695    3.7283
   31.710    3.9284
   31.725    4.0864
   31.740    3.8968
   31.755    4.0337
   31.770    3.9073
   31.785    3.6651
   31.800    3.8125
   31.815    4.1074
   31.830    4.0126
   31.845    3.8863
   31.860    3.6230
   31.875    3.8547
   31.890    3.4018
   31.905    3.7177
   31.920    3.4860
   31.935    3.4650
   31.950    3.7072
   31.965    4.1285
   31.980    3.9073
   31.995    4.0337
   32.010    3.8125
   32.025    4.0653
   32.040    4.0758
   32.055    4.6340
   32.070    4.6024
   32.085    4.2022
   32.100    4.3918
   32.115    3.9916
   32.130    3.8863
   32.145    4.0442
   32.160    4.0337
   32.175    3.9494
   32.190    3.7704
   32.205    3.7493
   32.220    3.5703
   32.235    3.4439
   32.250    3.8125
   32.265    4.0653
   32.280    3.7177
   32.295    3.4650
   32.310    3.5598
   32.325    3.4650
   32.340    3.8231
   32.355    3.9284
   32.370    3.5071
   32.385    3.7072
   32.400    3.8547
   32.415    3.6230
   32.430    3.8968
   32.445    3.4860
   32.460    3.3702
   32.475    3.4229
   32.490    3.6124
   32.505    3.4439
   32.520    3.6019
   32.535    3.7704
   32.550    3.7704
   32.565    3.3807
   32.580    3.6756
   32.595    3.6967
   32.610    3.4544
   32.625    3.7493
   32.640    3.5808
   32.655    3.4544
   32.670    3.5808
   32.685    3.6546
   32.700    3.4334
   32.715    3.5703
   32.730    3.5387
   32.745    3.6756
   32.760    3.8125
   32.775    3.6230
   32.790    3.7283
   32.805    3.6862
   32.820    3.6546
   32.835    3.6756
   32.850    3.3913
   32.865    3.5492
   32.880    3.6651
   32.895    3.5492
   32.910    3.5808
   32.925    3.5492
   32.940    3.5598
   32.955    3.6124
   32.970    3.5176
   32.985    3.5176
   33.000    3.5598
   33.015    3.7493
   33.030    3.5282
   33.045    3.3491
   33.060    3.3807
   33.075    3.4334
   33.090    3.4966
   33.105    3.4439
   33.120    3.2227
   33.135    3.4334
   33.150    3.4966
   33.165    3.3807
   33.180    3.3491
   33.195    3.5598
   33.210    3.4123
   33.225    3.4650
   33.240    3.4229
   33.255    3.7915
   33.270    3.5282
   33.285    3.3597
   33.300    3.5071
   33.315    3.3386
   33.330    3.6651
   33.345    3.4439
   33.360    3.4334
   33.375    3.2333
   33.390    3.4229
   33.405    3.6546
   33.420    3.3070
   33.435    3.3597
   33.450    3.6124
   33.465    3.3597
   33.480    3.6019
   33.495    3.6019
   33.510    3.7283
   33.525    3.3913
   33.540    3.5176
   33.555    3.4229
   33.570    3.4123
   33.585    3.1912
   33.600    3.2859
   33.615    3.4650
   33.630    3.6019
   33.645    3.2859
   33.660    3.2754
   33.675    3.1596
   33.690    3.3070
   33.705    3.5176
   33.720    3.7072
   33.735    3.4755
   33.750    3.6862
   33.765    3.4966
   33.780    3.5282
   33.795    3.4123
   33.810    3.6124
   33.825    3.6546
   33.840    3.8336
   33.855    3.8547
   33.870    3.6651
   33.885    3.6230
   33.900    3.3913
   33.915    3.5492
   33.930    3.3175
   33.945    3.5598
   33.960    3.4650
   33.975    3.4860
   33.990    3.4439
   34.005    3.1385
   34.020    3.0964
   34.035    3.1701
   34.050    3.1385
   34.065    3.3491
   34.080    3.3070
   34.095    3.4966
   34.110    3.5282
   34.125    3.1596
   34.140    3.2333
   34.155    3.0332
   34.170    3.3913
   34.185    3.3807
   34.200    3.2017
   34.215    3.1385
   34.230    3.4229
   34.245    3.3386
   34.260    3.2438
   34.275    3.3702
   34.290    3.4229
   34.305    3.2438
   34.320    3.1280
   34.335    3.3386
   34.350    3.3281
   34.365    3.0753
   34.380    3.1280
   34.395    3.1701
   34.410    3.4334
   34.425    3.4123
   34.440    3.1490
   34.455    3.2965
   34.470    3.2227
   34.485    3.4860
   34.500    3.3597
   34.515    3.1596
   34.530    3.2438
   34.545    3.4123
   34.560    3.3807
   34.575    3.4755
   34.590    3.2965
   34.605    3.3913
   34.620    3.2543
   34.635    3.2543
   34.650    3.3702
   34.665    3.4334
   34.680    3.4229
   34.695    3.0121
   34.710    3.6124
   34.725    3.4229
   34.740    3.2438
   34.755    3.1806
   34.770    3.2017
   34.785    3.1806
   34.800    3.0753
   34.815    3.0542
   34.830    3.4018
   34.845    3.1596
   34.860    3.1701
   34.875    3.3597
   34.890    3.0332
   34.905    3.0437
   34.920    3.1490
   34.935    3.3491
   34.950    3.3175
   34.965    3.0226
   34.980    3.1490
   34.995    3.0542
   35.010    3.2017
   35.025    3.6756
   35.040    3.2754
   35.055    3.1069
   35.070    3.1385
   35.085    3.0016
   35.100    3.3386
   35.115    3.2122
   35.130    3.1490
   35.145    3.1490
   35.160    3.2227
   35.175    3.1069
   35.190    3.2227
   35.205    3.2438
   35.220    3.1912
   35.235    2.9805
   35.250    2.9595
   35.265    3.0648
   35.280    3.2965
   35.295    3.0226
   35.310    3.1701
   35.325    3.2438
   35.340    3.0964
   35.355    3.0858
   35.370    3.2543
   35.385    3.1174
   35.400    3.2965
   35.415    3.1174
   35.430    3.0121
   35.445    3.2017
   35.460    3.1280
   35.475    3.1912
   35.490    3.1806
   35.505    2.8752
   35.520    3.1385
   35.535    3.1701
   35.550    3.1174
   35.565    3.1806
   35.580    2.8963
   35.595    3.0542
   35.610    3.3597
   35.625    3.5808
   35.640    3.1174
   35.655    3.1806
   35.670    2.9595
   35.685    3.0542
   35.700    3.2227
   35.715    3.1490
   35.730    3.2017
   35.745    3.1174
   35.760    2.8857
   35.775    3.2122
   35.790    3.1174
   35.805    2.9173
   35.820    3.0332
   35.835    3.0964
   35.850    3.0858
   35.865    3.0542
   35.880    3.2543
   35.895    3.1069
   35.910    2.8752
   35.925    3.1280
   35.940    2.9805
   35.955    3.1280
   35.970    3.1701
   35.985    3.2017
   36.000    3.3175
   36.015    3.4860
   36.030    3.1596
   36.045    2.9489
   36.060    3.1069
   36.075    3.3597
   36.090    3.2017
   36.105    3.2754
   36.120    2.9489
   36.135    3.0753
   36.150    3.1701
   36.165    3.2017
   36.180    3.2543
   36.195    3.0542
   36.210    2.9805
   36.225    3.0016
   36.240    3.0226
   36.255    3.2017
   36.270    3.2017
   36.285    3.2122
   36.300    3.1912
   36.315    2.9489
   36.330    3.0332
   36.345    2.8857
   36.360    3.1385
   36.375    3.3491
   36.390    3.1806
   36.405    3.0858
   36.420    3.1490
   36.435    3.0542
   36.450    3.1385
   36.465    3.4334
   36.480    3.1174
   36.495    2.9173
   36.510    3.3386
   36.525    2.7909
   36.540    2.7593
   36.555    3.1069
   36.570    3.1596
   36.585    3.0964
   36.600    2.9700
   36.615    3.0437
   36.630    3.3491
   36.645    3.1174
   36.660    3.0121
   36.675    2.9068
   36.690    2.8752
   36.705    3.0542
   36.720    3.2543
   36.735    3.1280
   36.750    3.1806
   36.765    2.9595
   36.780    2.9279
   36.795    2.8857
   36.810    2.8647
   36.825    2.9068
   36.840    2.7909
   36.855    2.9068
   36.870    2.7699
   36.885    2.6646
   36.900    2.7278
   36.915    2.8436
   36.930    2.8647
   36.945    2.8857
   36.960    2.8541
   36.975    2.8120
   36.990    2.8857
   37.005    3.1069
   37.020    2.7593
   37.035    2.9384
   37.050    3.0753
   37.065    2.8963
   37.080    2.9068
   37.095    3.0753
   37.110    3.0226
   37.125    2.9489
   37.140    2.8857
   37.155    2.8752
   37.170    2.8436
   37.185    2.7909
   37.200    2.6962
   37.215    2.9910
   37.230    3.2122
   37.245    3.2017
   37.260    3.1701
   37.275    3.3913
   37.290    2.8752
   37.305    3.0332
   37.320    3.0226
   37.335    2.9595
   37.350    3.0121
   37.365    2.6119
   37.380    2.9068
   37.395    2.9805
   37.410    2.9384
   37.425    2.8963
   37.440    2.8752
   37.455    2.9384
   37.470    2.9068
   37.485    3.2754
   37.500    3.1069
   37.515    2.9173
   37.530    2.9595
   37.545    2.7383
   37.560    2.7909
   37.575    2.8436
   37.590    2.8015
   37.605    2.7909
   37.620    2.9805
   37.635    2.8963
   37.650    3.4544
   37.665    3.1596
   37.680    3.4229
   37.695    3.3913
   37.710    3.0016
   37.725    2.9910
   37.740    2.8963
   37.755    3.0753
   37.770    2.8647
   37.785    2.9489
   37.800    3.0121
   37.815    2.7172
   37.830    2.7067
   37.845    3.0226
   37.860    2.9279
   37.875    2.9805
   37.890    2.8015
   37.905    3.1912
   37.920    3.1174
   37.935    2.8331
   37.950    2.9384
   37.965    3.1596
   37.980    2.9805
   37.995    2.7383
   38.010    2.8857
   38.025    2.9173
   38.040    2.7909
   38.055    2.7488
   38.070    2.8331
   38.085    3.2754
   38.100    3.0648
   38.115    2.7909
   38.130    2.9173
   38.145    2.9595
   38.160    3.0121
   38.175    3.0542
   38.190    2.8963
   38.205    2.8331
   38.220    3.0016
   38.235    2.8015
   38.250    2.6435
   38.265    2.8963
   38.280    2.7909
   38.295    2.8331
   38.310    2.7804
   38.325    2.9700
   38.340    3.0964
   38.355    3.0016
   38.370    2.7488
   38.385    2.7383
   38.400    2.8752
   38.415    2.8436
   38.430    2.8225
   38.445    2.7593
   38.460    2.9489
   38.475    3.1596
   38.490    2.7804
   38.505    2.9700
   38.520    3.1912
   38.535    3.0858
   38.550    3.1385
   38.565    2.9805
   38.580    3.0121
   38.595    3.2017
   38.610    3.2438
   38.625    3.3281
   38.640    3.1490
   38.655    2.8225
   38.670    3.1701
   38.685    3.2122
   38.700    3.1069
   38.715    3.0964
   38.730    2.8225
   38.745    2.9805
   38.760    2.9489
   38.775    2.9173
   38.790    2.8225
   38.805    2.9279
   38.820    2.9700
   38.835    2.8225
   38.850    2.9279
   38.865    2.9910
   38.880    2.8225
   38.895    2.9068
   38.910    2.9489
   38.925    2.9595
   38.940    2.8541
   38.955    2.8647
   38.970    2.9805
   38.985    2.9384
   39.000    2.9910
   39.015    3.0648
   39.030    2.6014
   39.045    2.7909
   39.060    2.7593
   39.075    2.9279
   39.090    3.1806
   39.105    3.1069
   39.120    2.9595
   39.135    2.7804
   39.150    2.9805
   39.165    3.0226
   39.180    2.9173
   39.195    2.6540
   39.210    2.5803
   39.225    2.8015
   39.240    2.8752
   39.255    2.8963
   39.270    3.0648
   39.285    2.9910
   39.300    2.9595
   39.315    2.8857
   39.330    3.0437
   39.345    2.7699
   39.360    2.7383
   39.375    2.9595
   39.390    2.8225
   39.405    2.8015
   39.420    2.8436
   39.435    3.0121
   39.450    2.8857
   39.465    2.9173
   39.480    2.8120
   39.495    2.7593
   39.510    2.8857
   39.525    2.9279
   39.540    2.9173
   39.555    2.7804
   39.570    2.7804
   39.585    2.8120
   39.600    2.8963
   39.615    2.8436
   39.630    3.0964
   39.645    3.0437
   39.660    2.7383
   39.675    2.9700
   39.690    2.9068
   39.705    3.0542
   39.720    2.9384
   39.735    2.9700
   39.750    2.8436
   39.765    3.0226
   39.780    2.9068
   39.795    2.9910
   39.810    3.1069
   39.825    2.8225
   39.840    2.9068
   39.855    3.0437
   39.870    2.8752
   39.885    2.8015
   39.900    3.1280
   39.915    2.9700
   39.930    3.2017
   39.945    2.9700
   39.960    2.7593
   39.975    2.8963
   39.990    2.9279
