    1.500   18.0972
    1.515   17.7988
    1.530   18.3781
    1.545   17.4302
    1.560   16.7281
    1.575   17.5355
    1.590   17.1318
    1.605   16.7983
    1.620   15.7276
    1.635   15.0079
    1.650   15.5872
    1.665   14.9903
    1.680   14.9903
    1.695   15.6749
    1.710   15.0255
    1.725   15.3239
    1.740   13.8318
    1.755   13.5685
    1.770   14.5515
    1.785   14.2531
    1.800   13.2350
    1.815   13.3404
    1.830   13.2350
    1.845   12.8313
    1.860   12.8489
    1.875   13.7265
    1.890   12.9366
    1.905   12.7084
    1.920   12.7435
    1.935   13.2526
    1.950   12.8313
    1.965   12.9191
    1.980   12.1116
    1.995   11.9712
    2.010   11.8132
    2.025   12.1116
    2.040   11.4095
    2.055   11.4973
    2.070   11.8308
    2.085   12.5154
    2.100   12.1116
    2.115   11.2164
    2.130   11.4797
    2.145   10.3739
    2.160   10.8478
    2.175   10.9531
    2.190   10.7952
    2.205   10.9882
    2.220   10.7249
    2.235   10.7776
    2.250   10.2861
    2.265   10.0755
    2.280   10.0579
    2.295   10.3914
    2.310   10.4265
    2.325   10.2159
    2.340   10.0579
    2.355    9.8824
    2.370    9.7771
    2.385    9.7946
    2.400   10.0755
    2.415    9.6542
    2.430    9.6542
    2.445    9.6542
    2.460    9.7771
    2.475    9.8648
    2.490   10.7074
    2.505   10.4265
    2.520    9.7069
    2.535    9.2505
    2.550    9.5138
    2.565    9.5138
    2.580    9.2856
    2.595    9.2329
    2.610    9.3558
    2.625    9.4436
    2.640    9.3734
    2.655    9.0574
    2.670    8.7941
    2.685    8.6888
    2.700    8.8117
    2.715    9.0223
    2.730    9.2329
    2.745    8.8994
    2.760    8.3553
    2.775    8.9696
    2.790    9.1978
    2.805    8.6186
    2.820    9.5664
    2.835    8.8643
    2.850    8.5133
    2.865    8.2851
    2.880    8.6361
    2.895    8.8819
    2.910    8.4079
    2.925    8.1446
    2.940    8.9872
    2.955    9.2154
    2.970    8.8643
    2.985    8.6888
    3.000    8.7765
    3.015    8.8292
    3.030    8.4957
    3.045    8.8117
    3.060    8.7590
    3.075    8.3553
    3.090    8.3026
    3.105    8.9872
    3.120    8.6010
    3.135    8.0744
    3.150    8.5659
    3.165    8.1973
    3.180    8.7239
    3.195    8.9872
    3.210    9.0574
    3.225    8.7765
    3.240    9.1101
    3.255    9.1627
    3.270    8.1446
    3.285    8.5659
    3.300    8.6537
    3.315    8.6010
    3.330    8.5659
    3.345    8.8643
    3.360    8.7590
    3.375    8.9521
    3.390    8.4781
    3.405    8.2675
    3.420    8.3728
    3.435    8.8117
    3.450    9.4787
    3.465    9.4787
    3.480    9.7244
    3.495    9.5489
    3.510    8.7063
    3.525    9.5664
    3.540   10.2861
    3.555   10.0579
    3.570    9.4611
    3.585   10.2686
    3.600   10.4968
    3.615   10.3914
    3.630   10.1632
    3.645   10.6021
    3.660   10.8478
    3.675   11.5148
    3.690   11.3920
    3.705   11.5324
    3.720   11.5324
    3.735   12.2345
    3.750   12.8664
    3.765   13.7441
    3.780   14.4989
    3.795   14.1302
    3.810   15.3063
    3.825   17.4302
    3.840   17.9568
    3.855   18.7467
    3.870   19.3260
    3.885   17.0616
    3.900   15.0781
    3.915   13.6388
    3.930   11.3744
    3.945    9.8122
    3.960    8.8468
    3.975    8.9872
    3.990    8.3904
    4.005    8.3202
    4.020    8.8994
    4.035    8.3026
    4.050    7.7585
    4.065    8.0744
    4.080    8.6888
    4.095    8.6186
    4.110    8.6361
    4.125    7.3547
    4.140    8.3377
    4.155    8.2149
    4.170    8.0218
    4.185    7.8989
    4.200    8.4957
    4.215    8.2500
    4.230    7.9691
    4.245    8.4255
    4.260    7.8287
    4.275    7.8638
    4.290    8.0920
    4.305    8.2500
    4.320    8.1797
    4.335    8.5308
    4.350    8.0744
    4.365    8.1973
    4.380    8.0744
    4.395    8.2851
    4.410    7.9164
    4.425    8.0744
    4.440    8.0393
    4.455    7.4776
    4.470    8.2149
    4.485    7.9516
    4.500    8.3728
    4.515    7.7936
    4.530    7.6005
    4.545    8.1271
    4.560    8.0042
    4.575    7.9516
    4.590    7.9867
    4.605    8.5484
    4.620    8.1095
    4.635    8.1271
    4.650    7.8287
    4.665    8.0218
    4.680    8.2149
    4.695    8.0569
    4.710    8.6010
    4.725    8.7590
    4.740    8.4079
    4.755    7.8813
    4.770    8.1095
    4.785    8.4430
    4.800    8.0042
    4.815    8.1797
    4.830    8.1271
    4.845    8.4606
    4.860    8.1446
    4.875    8.7414
    4.890    8.1797
    4.905    8.2500
    4.920    8.4079
    4.935    8.4255
    4.950    8.7765
    4.965    8.4781
    4.980    8.4781
    4.995    8.9345
    5.010    8.3553
    5.025    9.1276
    5.040    8.9345
    5.055    9.2329
    5.070    9.4436
    5.085    9.4787
    5.100    9.2680
    5.115    9.7244
    5.130    9.7069
    5.145    9.0047
    5.160    9.8122
    5.175    9.6542
    5.190    9.3558
    5.205   10.2861
    5.220   10.5319
    5.235    9.8824
    5.250   10.1808
    5.265   10.0404
    5.280   10.0579
    5.295   10.8654
    5.310   11.5148
    5.325   11.0760
    5.340   11.3393
    5.355   11.0760
    5.370   12.0414
    5.385   11.8483
    5.400   12.3749
    5.415   12.4978
    5.430   12.9542
    5.445   12.3749
    5.460   13.0595
    5.475   13.5510
    5.490   14.3233
    5.505   13.6212
    5.520   12.2872
    5.535   11.7079
    5.550   11.3393
    5.565   10.8654
    5.580   10.7249
    5.595   10.7600
    5.610   11.0058
    5.625   10.3037
    5.640   11.0585
    5.655   10.1106
    5.670   10.4616
    5.685   10.7074
    5.700   10.2686
    5.715    9.4260
    5.730   10.1457
    5.745   10.0228
    5.760    9.7420
    5.775    9.8999
    5.790    9.8648
    5.805    9.2329
    5.820    8.7239
    5.835    9.2154
    5.850    9.2154
    5.865    9.2856
    5.880    9.3734
    5.895    9.1101
    5.910    8.7414
    5.925    8.7590
    5.940    8.9872
    5.955    8.8468
    5.970    8.5484
    5.985    8.1095
    6.000    8.3728
    6.015    8.2851
    6.030    8.4606
    6.045    9.1452
    6.060    8.8643
    6.075    8.4606
    6.090    8.3377
    6.105    7.7585
    6.120    8.5308
    6.135    8.3728
    6.150    8.2500
    6.165    7.8638
    6.180    8.0042
    6.195    8.3904
    6.210    8.3728
    6.225    7.3899
    6.240    7.4776
    6.255    7.8813
    6.270    7.9516
    6.285    7.2494
    6.300    7.6356
    6.315    7.8813
    6.330    7.5478
    6.345    8.1622
    6.360    7.9164
    6.375    8.2675
    6.390    7.9164
    6.405    8.0920
    6.420    7.7936
    6.435    7.2845
    6.450    7.2143
    6.465    7.1968
    6.480    7.5127
    6.495    7.4601
    6.510    7.3899
    6.525    7.2670
    6.540    7.7936
    6.555    7.5127
    6.570    7.7234
    6.585    7.3723
    6.600    7.3196
    6.615    7.5303
    6.630    7.6707
    6.645    7.5303
    6.660    6.8457
    6.675    7.4952
    6.690    7.6883
    6.705    7.9867
    6.720    8.5835
    6.735    7.9340
    6.750    7.9340
    6.765    7.7234
    6.780    7.3547
    6.795    6.9159
    6.810    7.0739
    6.825    6.8984
    6.840    7.2319
    6.855    7.3547
    6.870    6.7755
    6.885    6.6000
    6.900    6.8984
    6.915    6.6000
    6.930    6.8984
    6.945    6.7228
    6.960    6.7579
    6.975    6.9335
    6.990    6.6351
    7.005    6.7228
    7.020    7.1617
    7.035    7.0037
    7.050    6.8457
    7.065    6.4244
    7.080    6.5298
    7.095    6.7228
    7.110    6.6702
    7.125    6.1260
    7.140    6.6526
    7.155    6.6000
    7.170    6.9159
    7.185    6.3718
    7.200    6.0207
    7.215    6.3016
    7.230    6.4771
    7.245    6.5122
    7.260    6.0909
    7.275    6.0207
    7.290    5.9856
    7.305    6.4244
    7.320    6.0207
    7.335    6.1260
    7.350    6.2138
    7.365    6.2840
    7.380    6.1085
    7.395    6.0383
    7.410    5.8276
    7.425    5.7574
    7.440    5.6345
    7.455    6.0383
    7.470    6.0909
    7.485    6.2665
    7.500    5.9505
    7.515    6.1436
    7.530    5.8627
    7.545    5.9505
    7.560    5.9505
    7.575    6.3893
    7.590    5.8627
    7.605    5.7925
    7.620    5.9681
    7.635    5.7574
    7.650    5.7750
    7.665    5.6697
    7.680    6.0383
    7.695    6.0032
    7.710    6.0558
    7.725    6.0207
    7.740    6.1611
    7.755    6.1787
    7.770    6.5122
    7.785    6.5473
    7.800    6.3893
    7.815    6.1260
    7.830    6.0383
    7.845    5.8276
    7.860    6.1436
    7.875    6.0207
    7.890    6.3367
    7.905    6.1611
    7.920    5.4941
    7.935    5.9154
    7.950    5.7750
    7.965    6.0909
    7.980    5.3888
    7.995    5.5117
    8.010    5.1782
    8.025    5.1782
    8.040    4.9675
    8.055    5.2484
    8.070    5.2133
    8.085    5.2659
    8.100    5.1606
    8.115    5.5468
    8.130    5.2133
    8.145    5.5643
    8.160    5.6872
    8.175    5.8803
    8.190    5.6170
    8.205    5.0553
    8.220    5.4766
    8.235    5.4766
    8.250    5.5468
    8.265    5.2484
    8.280    5.5292
    8.295    5.1782
    8.310    5.5643
    8.325    5.2659
    8.340    5.2835
    8.355    5.4239
    8.370    5.5643
    8.385    5.4590
    8.400    5.8276
    8.415    5.2133
    8.430    5.1255
    8.445    5.4766
    8.460    5.1782
    8.475    5.3010
    8.490    5.2659
    8.505    5.8627
    8.520    5.3010
    8.535    5.2133
    8.550    5.7574
    8.565    5.7574
    8.580    5.3186
    8.595    5.4415
    8.610    4.8447
    8.625    4.8271
    8.640    5.0553
    8.655    5.0202
    8.670    4.8973
    8.685    5.5643
    8.700    5.5643
    8.715    5.3361
    8.730    5.6170
    8.745    5.3888
    8.760    5.3712
    8.775    5.0377
    8.790    4.9851
    8.805    5.2659
    8.820    5.2835
    8.835    5.1080
    8.850    5.4064
    8.865    5.4941
    8.880    5.1080
    8.895    4.8622
    8.910    5.1431
    8.925    5.4766
    8.940    5.5292
    8.955    4.8798
    8.970    5.2308
    8.985    5.3537
    9.000    4.9149
    9.015    5.1606
    9.030    5.4941
    9.045    4.9149
    9.060    4.9500
    9.075    4.7920
    9.090    5.1606
    9.105    5.2133
    9.120    4.7218
    9.135    4.4234
    9.150    4.4760
    9.165    5.0202
    9.180    5.0904
    9.195    4.8973
    9.210    5.2133
    9.225    5.1606
    9.240    5.3888
    9.255    4.9500
    9.270    4.7920
    9.285    5.2835
    9.300    5.3361
    9.315    5.1431
    9.330    5.1957
    9.345    4.9675
    9.360    5.4766
    9.375    5.4590
    9.390    5.1606
    9.405    4.9324
    9.420    5.1606
    9.435    5.1431
    9.450    5.2484
    9.465    5.1080
    9.480    5.4766
    9.495    5.5468
    9.510    5.7750
    9.525    5.6872
    9.540    5.7048
    9.555    6.1085
    9.570    5.5994
    9.585    5.5468
    9.600    5.1080
    9.615    5.3537
    9.630    5.7399
    9.645    5.0904
    9.660    5.1431
    9.675    4.9149
    9.690    4.7744
    9.705    5.1957
    9.720    5.3010
    9.735    4.8271
    9.750    4.9324
    9.765    4.9851
    9.780    4.9149
    9.795    4.9851
    9.810    5.0377
    9.825    5.4766
    9.840    5.1431
    9.855    5.1606
    9.870    4.5814
    9.885    4.5111
    9.900    5.0026
    9.915    5.3010
    9.930    5.1431
    9.945    4.7569
    9.960    4.7393
    9.975    4.7920
    9.990    5.1255
   10.005    5.1255
   10.020    5.1255
   10.035    4.9500
   10.050    5.1782
   10.065    5.0904
   10.080    5.3361
   10.095    5.0202
   10.110    5.2133
   10.125    5.3888
   10.140    5.3361
   10.155    4.9675
   10.170    5.0202
   10.185    5.5292
   10.200    5.1431
   10.215    5.1080
   10.230    4.8973
   10.245    5.3361
   10.260    5.3537
   10.275    5.4766
   10.290    5.3537
   10.305    5.0728
   10.320    5.3888
   10.335    5.5994
   10.350    6.0558
   10.365    5.3010
   10.380    5.1255
   10.395    5.4590
   10.410    5.5468
   10.425    5.4415
   10.440    4.8095
   10.455    5.1255
   10.470    5.2133
   10.485    5.1957
   10.500    5.0377
   10.515    4.7393
   10.530    5.0377
   10.545    5.5819
   10.560    5.1606
   10.575    5.3361
   10.590    5.1957
   10.605    5.0377
   10.620    5.5994
   10.635    5.1080
   10.650    4.7920
   10.665    5.0026
   10.680    5.0904
   10.695    5.2835
   10.710    5.1957
   10.725    4.8271
   10.740    5.0553
   10.755    5.1431
   10.770    5.7399
   10.785    5.5994
   10.800    5.1606
   10.815    5.1255
   10.830    5.2133
   10.845    5.0202
   10.860    5.1255
   10.875    5.4590
   10.890    5.2484
   10.905    5.0553
   10.920    5.5117
   10.935    5.7048
   10.950    5.4239
   10.965    5.2835
   10.980    5.2835
   10.995    5.5643
   11.010    5.7048
   11.025    5.5994
   11.040    5.9681
   11.055    5.4766
   11.070    5.6345
   11.085    5.4766
   11.100    5.4590
   11.115    5.4766
   11.130    5.4415
   11.145    5.4064
   11.160    5.0377
   11.175    5.1431
   11.190    5.3712
   11.205    5.0904
   11.220    5.5117
   11.235    4.9851
   11.250    4.9851
   11.265    5.1782
   11.280    4.8622
   11.295    4.8798
   11.310    5.1606
   11.325    5.3010
   11.340    5.0202
   11.355    5.1957
   11.370    5.4239
   11.385    5.3888
   11.400    5.5819
   11.415    5.2835
   11.430    4.7569
   11.445    5.1606
   11.460    5.3888
   11.475    5.5994
   11.490    5.5292
   11.505    4.9149
   11.520    5.3010
   11.535    5.3888
   11.550    5.1606
   11.565    4.8447
   11.580    5.0904
   11.595    5.2484
   11.610    5.4064
   11.625    5.2133
   11.640    5.1255
   11.655    5.1080
   11.670    5.4590
   11.685    5.4415
   11.700    4.8271
   11.715    5.4766
   11.730    5.3537
   11.745    5.3361
   11.760    5.2659
   11.775    5.0377
   11.790    5.1080
   11.805    5.6170
   11.820    5.1606
   11.835    5.1080
   11.850    4.9500
   11.865    4.8622
   11.880    5.2484
   11.895    4.6691
   11.910    4.7042
   11.925    4.4760
   11.940    5.2133
   11.955    4.9851
   11.970    4.7744
   11.985    5.1255
   12.000    4.7744
   12.015    5.3537
   12.030    4.9851
   12.045    5.3888
   12.060    5.1606
   12.075    4.6516
   12.090    4.6867
   12.105    4.6340
   12.120    4.6165
   12.135    4.9675
   12.150    4.9149
   12.165    5.1255
   12.180    5.2484
   12.195    4.5638
   12.210    4.6165
   12.225    4.9324
   12.240    4.8271
   12.255    4.9149
   12.270    5.0202
   12.285    5.1782
   12.300    5.0026
   12.315    4.7218
   12.330    5.0904
   12.345    5.2659
   12.360    4.7744
   12.375    5.2835
   12.390    5.0728
   12.405    4.7920
   12.420    4.7218
   12.435    5.1957
   12.450    5.3361
   12.465    5.3712
   12.480    5.0202
   12.495    4.6516
   12.510    5.1606
   12.525    4.6165
   12.540    5.0377
   12.555    5.0202
   12.570    4.8271
   12.585    4.9851
   12.600    4.8271
   12.615    4.9324
   12.630    5.1782
   12.645    4.7393
   12.660    4.7744
   12.675    4.8622
   12.690    4.8973
   12.705    5.1782
   12.720    4.8973
   12.735    4.9149
   12.750    4.3707
   12.765    4.5463
   12.780    4.5989
   12.795    4.9324
   12.810    5.1431
   12.825    4.7218
   12.840    4.8271
   12.855    4.8622
   12.870    5.1431
   12.885    5.0026
   12.900    4.7920
   12.915    5.1080
   12.930    5.2133
   12.945    5.0202
   12.960    4.8447
   12.975    5.0553
   12.990    5.0026
   13.005    4.7393
   13.020    4.7920
   13.035    4.4760
   13.050    5.0728
   13.065    5.1782
   13.080    5.4064
   13.095    5.0026
   13.110    4.7393
   13.125    4.4585
   13.140    4.6516
   13.155    4.8447
   13.170    4.6516
   13.185    5.0202
   13.200    4.8271
   13.215    4.8271
   13.230    4.5463
   13.245    4.4936
   13.260    4.6516
   13.275    4.6516
   13.290    4.8973
   13.305    4.9149
   13.320    4.5989
   13.335    4.4409
   13.350    4.5463
   13.365    4.8447
   13.380    5.2133
   13.395    4.7744
   13.410    4.8271
   13.425    4.9675
   13.440    4.7218
   13.455    4.6516
   13.470    4.7393
   13.485    4.5638
   13.500    4.8447
   13.515    5.3537
   13.530    4.9149
   13.545    5.1431
   13.560    4.8622
   13.575    5.1255
   13.590    4.7920
   13.605    4.8973
   13.620    4.7744
   13.635    4.9149
   13.650    4.8622
   13.665    4.8271
   13.680    4.5463
   13.695    4.7393
   13.710    4.6867
   13.725    4.8973
   13.740    4.8271
   13.755    4.7042
   13.770    4.5638
   13.785    5.2308
   13.800    4.6867
   13.815    4.7744
   13.830    5.0553
   13.845    4.7920
   13.860    4.8447
   13.875    5.2133
   13.890    5.3712
   13.905    4.8973
   13.920    5.2308
   13.935    5.1957
   13.950    4.8447
   13.965    4.8271
   13.980    5.4239
   13.995    5.3712
   14.010    5.0553
   14.025    5.1782
   14.040    4.9149
   14.055    5.4239
   14.070    5.0026
   14.085    5.2659
   14.100    5.1255
   14.115    4.8622
   14.130    4.8798
   14.145    5.5468
   14.160    5.4590
   14.175    5.3537
   14.190    5.4766
   14.205    5.4941
   14.220    5.3712
   14.235    4.8622
   14.250    5.1431
   14.265    5.6170
   14.280    5.3010
   14.295    5.4766
   14.310    5.2484
   14.325    4.7393
   14.340    5.2835
   14.355    5.2133
   14.370    5.2308
   14.385    5.0553
   14.400    5.1957
   14.415    5.5819
   14.430    5.1606
   14.445    5.0377
   14.460    5.2484
   14.475    4.8973
   14.490    4.8095
   14.505    5.1606
   14.520    5.0377
   14.535    5.0553
   14.550    5.3537
   14.565    5.2659
   14.580    5.4766
   14.595    5.3186
   14.610    5.3888
   14.625    5.4941
   14.640    5.5117
   14.655    5.4064
   14.670    5.4766
   14.685    5.0202
   14.700    5.2484
   14.715    4.6340
   14.730    5.3186
   14.745    5.0553
   14.760    4.7920
   14.775    5.1957
   14.790    5.0728
   14.805    4.8798
   14.820    4.7744
   14.835    5.0553
   14.850    4.9500
   14.865    5.5117
   14.880    4.8271
   14.895    5.0553
   14.910    4.6340
   14.925    5.1606
   14.940    4.7569
   14.955    4.3883
   14.970    4.4585
   14.985    4.7393
   15.000    4.8973
   15.015    4.8271
   15.030    4.7042
   15.045    4.9500
   15.060    4.5814
   15.075    4.3707
   15.090    4.7393
   15.105    4.7393
   15.120    4.7569
   15.135    4.7218
   15.150    4.6867
   15.165    4.4234
   15.180    4.4936
   15.195    4.7744
   15.210    4.8447
   15.225    4.7569
   15.240    5.0904
   15.255    4.7218
   15.270    4.7218
   15.285    4.6867
   15.300    4.4409
   15.315    4.6340
   15.330    4.0899
   15.345    4.1601
   15.360    4.4585
   15.375    4.5111
   15.390    4.4936
   15.405    4.5989
   15.420    5.0377
   15.435    4.5287
   15.450    4.7569
   15.465    4.4409
   15.480    4.5814
   15.495    4.6691
   15.510    4.6516
   15.525    4.7920
   15.540    4.7920
   15.555    4.4585
   15.570    4.8973
   15.585    4.5989
   15.600    4.0723
   15.615    5.1431
   15.630    4.6165
   15.645    4.5989
   15.660    4.7042
   15.675    4.4058
   15.690    4.7569
   15.705    4.6340
   15.720    4.9851
   15.735    4.5638
   15.750    4.7218
   15.765    4.8973
   15.780    4.9149
   15.795    4.6340
   15.810    4.3356
   15.825    4.7569
   15.840    4.8798
   15.855    4.2654
   15.870    4.0021
   15.885    4.2478
   15.900    4.7744
   15.915    4.4234
   15.930    4.4936
   15.945    4.6867
   15.960    4.7393
   15.975    5.0026
   15.990    4.7744
   16.005    4.8973
   16.020    4.9149
   16.035    4.9149
   16.050    4.5287
   16.065    4.7744
   16.080    4.7218
   16.095    4.5463
   16.110    4.7920
   16.125    4.9500
   16.140    4.7744
   16.155    4.7393
   16.170    4.9149
   16.185    4.9675
   16.200    4.7569
   16.215    4.6340
   16.230    4.8095
   16.245    4.7218
   16.260    4.8973
   16.275    4.7744
   16.290    4.4234
   16.305    4.4585
   16.320    4.5111
   16.335    4.7920
   16.350    4.9149
   16.365    4.9149
   16.380    4.7569
   16.395    4.9675
   16.410    5.1782
   16.425    4.7218
   16.440    4.6516
   16.455    4.3356
   16.470    5.0377
   16.485    5.3010
   16.500    4.6867
   16.515    4.7218
   16.530    4.8271
   16.545    4.9149
   16.560    4.7744
   16.575    4.8622
   16.590    4.5814
   16.605    4.9675
   16.620    4.6691
   16.635    4.5989
   16.650    4.9851
   16.665    4.4936
   16.680    5.0377
   16.695    4.5287
   16.710    4.4234
   16.725    4.8447
   16.740    4.6165
   16.755    4.2478
   16.770    4.1776
   16.785    4.2303
   16.800    4.4234
   16.815    4.7569
   16.830    4.8447
   16.845    4.8622
   16.860    5.1431
   16.875    4.5989
   16.890    4.7218
   16.905    4.6516
   16.920    4.7218
   16.935    3.9143
   16.950    4.5111
   16.965    4.5463
   16.980    4.2478
   16.995    4.4585
   17.010    4.7744
   17.025    5.0377
   17.040    4.8622
   17.055    4.9324
   17.070    4.7218
   17.085    4.8095
   17.100    5.0553
   17.115    4.5287
   17.130    4.5111
   17.145    4.6165
   17.160    4.7218
   17.175    4.5463
   17.190    4.7393
   17.205    4.5111
   17.220    4.6516
   17.235    4.9324
   17.250    4.5287
   17.265    4.8973
   17.280    4.8973
   17.295    4.5287
   17.310    4.3532
   17.325    4.4585
   17.340    4.6340
   17.355    4.8271
   17.370    4.4760
   17.385    4.2478
   17.400    4.1776
   17.415    4.7218
   17.430    5.1431
   17.445    4.5287
   17.460    4.3005
   17.475    4.4585
   17.490    4.4585
   17.505    4.5814
   17.520    4.9851
   17.535    4.5989
   17.550    4.5287
   17.565    4.8447
   17.580    4.5111
   17.595    4.5111
   17.610    4.8798
   17.625    4.7218
   17.640    4.6867
   17.655    4.9851
   17.670    4.6691
   17.685    4.7393
   17.700    4.7218
   17.715    4.5638
   17.730    4.5287
   17.745    4.7569
   17.760    4.8271
   17.775    4.6691
   17.790    4.7393
   17.805    4.7744
   17.820    5.0728
   17.835    4.8447
   17.850    4.8622
   17.865    4.6516
   17.880    5.0202
   17.895    4.6165
   17.910    4.4936
   17.925    4.3883
   17.940    4.2654
   17.955    4.2127
   17.970    4.1601
   17.985    4.1601
   18.000    4.7920
   18.015    4.7744
   18.030    4.3883
   18.045    4.8798
   18.060    5.0728
   18.075    4.8447
   18.090    4.4234
   18.105    4.5989
   18.120    4.1952
   18.135    4.2830
   18.150    4.3005
   18.165    4.3883
   18.180    4.7042
   18.195    4.6165
   18.210    4.9149
   18.225    4.6516
   18.240    4.6340
   18.255    4.7569
   18.270    4.4234
   18.285    4.3883
   18.300    4.1776
   18.315    4.3532
   18.330    4.3883
   18.345    4.2830
   18.360    4.2303
   18.375    4.5463
   18.390    4.4234
   18.405    4.7569
   18.420    4.5638
   18.435    4.4234
   18.450    4.9675
   18.465    4.5638
   18.480    4.7744
   18.495    4.5111
   18.510    4.4234
   18.525    4.4234
   18.540    4.6691
   18.555    4.8973
   18.570    4.6867
   18.585    4.2127
   18.600    4.6340
   18.615    4.9851
   18.630    4.3181
   18.645    4.5111
   18.660    4.8271
   18.675    4.6165
   18.690    4.8622
   18.705    4.7218
   18.720    4.6165
   18.735    4.8622
   18.750    4.2654
   18.765    4.5287
   18.780    4.6516
   18.795    4.3707
   18.810    4.6165
   18.825    5.0377
   18.840    4.9324
   18.855    4.2478
   18.870    3.9670
   18.885    4.4760
   18.900    4.7042
   18.915    5.0728
   18.930    4.7920
   18.945    4.5814
   18.960    4.4760
   18.975    4.9500
   18.990    4.5638
   19.005    4.4058
   19.020    4.3883
   19.035    4.3883
   19.050    4.7744
   19.065    5.1606
   19.080    5.2484
   19.095    4.6165
   19.110    4.3005
   19.125    4.0723
   19.140    4.2303
   19.155    4.4936
   19.170    4.0723
   19.185    4.4585
   19.200    4.2478
   19.215    4.2830
   19.230    4.2478
   19.245    4.6867
   19.260    5.1606
   19.275    4.7920
   19.290    4.5463
   19.305    4.4234
   19.320    4.3707
   19.335    4.8095
   19.350    4.9851
   19.365    4.6867
   19.380    4.7218
   19.395    4.4760
   19.410    4.4585
   19.425    4.4058
   19.440    4.7042
   19.455    4.1074
   19.470    4.7393
   19.485    4.6165
   19.500    4.1776
   19.515    4.1601
   19.530    4.3532
   19.545    4.3883
   19.560    4.7744
   19.575    4.1776
   19.590    4.6340
   19.605    4.4936
   19.620    4.5989
   19.635    4.7920
   19.650    4.1074
   19.665    4.0372
   19.680    4.3356
   19.695    4.4234
   19.710    4.4760
   19.725    4.3532
   19.740    4.4234
   19.755    4.3356
   19.770    4.0372
   19.785    4.1952
   19.800    4.5989
   19.815    4.5287
   19.830    4.0723
   19.845    4.3356
   19.860    4.2654
   19.875    4.5814
   19.890    4.1952
   19.905    3.9143
   19.920    4.1776
   19.935    4.5287
   19.950    4.1952
   19.965    4.4760
   19.980    4.3356
   19.995    4.0899
   20.010    4.6516
   20.025    4.5111
   20.040    4.3707
   20.055    3.9670
   20.070    4.0372
   20.085    4.2478
   20.100    4.0372
   20.115    4.1601
   20.130    4.2303
   20.145    4.2127
   20.160    4.1074
   20.175    4.3181
   20.190    3.8968
   20.205    4.3005
   20.220    4.2303
   20.235    4.0723
   20.250    4.0372
   20.265    4.5463
   20.280    4.3532
   20.295    4.4234
   20.310    4.1425
   20.325    3.8792
   20.340    4.2127
   20.355    4.3181
   20.370    4.2654
   20.385    4.5287
   20.400    4.0372
   20.415    4.3532
   20.430    4.6165
   20.445    4.3356
   20.460    3.5984
   20.475    3.7915
   20.490    4.0021
   20.505    4.0723
   20.520    4.7744
   20.535    4.4409
   20.550    3.8617
   20.565    4.0723
   20.580    4.3356
   20.595    4.5111
   20.610    4.3883
   20.625    4.3356
   20.640    4.2127
   20.655    4.3707
   20.670    4.2127
   20.685    4.4585
   20.700    4.2830
   20.715    4.6867
   20.730    4.2303
   20.745    4.1776
   20.760    4.5111
   20.775    4.2830
   20.790    3.7388
   20.805    3.8441
   20.820    3.9319
   20.835    3.7564
   20.850    3.9494
   20.865    4.0372
   20.880    4.3532
   20.895    3.7037
   20.910    4.0899
   20.925    4.0723
   20.940    3.9494
   20.955    4.0548
   20.970    4.0548
   20.985    4.2478
   21.000    4.3707
   21.015    4.1601
   21.030    4.1776
   21.045    4.1601
   21.060    3.7564
   21.075    3.5808
   21.090    3.8441
   21.105    4.0723
   21.120    3.8617
   21.135    4.5111
   21.150    4.2127
   21.165    4.1952
   21.180    4.2830
   21.195    4.2654
   21.210    4.3707
   21.225    4.1601
   21.240    4.4760
   21.255    4.1074
   21.270    3.8090
   21.285    4.1250
   21.300    4.1074
   21.315    3.9494
   21.330    3.9670
   21.345    3.8617
   21.360    4.3883
   21.375    4.7920
   21.390    4.3005
   21.405    4.1425
   21.420    3.9670
   21.435    4.4936
   21.450    4.1425
   21.465    4.1776
   21.480    4.4409
   21.495    4.1601
   21.510    4.2830
   21.525    4.0372
   21.540    4.0548
   21.555    4.3181
   21.570    3.7564
   21.585    3.9846
   21.600    3.9670
   21.615    4.4234
   21.630    3.9143
   21.645    3.5457
   21.660    4.1074
   21.675    4.2830
   21.690    4.3356
   21.705    4.2127
   21.720    4.2303
   21.735    4.0372
   21.750    3.7739
   21.765    3.8968
   21.780    3.9670
   21.795    4.1425
   21.810    3.8792
   21.825    3.9319
   21.840    4.1601
   21.855    3.4931
   21.870    4.1776
   21.885    3.9846
   21.900    4.5463
   21.915    4.2830
   21.930    4.1425
   21.945    4.1250
   21.960    3.8441
   21.975    4.1250
   21.990    4.1425
   22.005    3.9846
   22.020    4.1601
   22.035    3.6510
   22.050    4.4058
   22.065    4.0372
   22.080    4.1250
   22.095    4.0197
   22.110    3.6159
   22.125    3.7037
   22.140    3.7388
   22.155    3.7915
   22.170    3.9846
   22.185    4.0723
   22.200    4.0548
   22.215    3.9846
   22.230    3.8792
   22.245    3.7037
   22.260    3.5106
   22.275    3.5808
   22.290    3.9670
   22.305    3.8968
   22.320    3.7388
   22.335    4.1776
   22.350    4.1952
   22.365    3.9670
   22.380    4.3005
   22.395    3.7037
   22.410    3.8266
   22.425    3.8968
   22.440    3.2473
   22.455    3.7388
   22.470    3.8090
   22.485    3.7564
   22.500    3.9494
   22.515    3.7915
   22.530    3.7915
   22.545    3.6510
   22.560    3.9670
   22.575    4.1601
   22.590    4.1074
   22.605    3.9670
   22.620    3.7739
   22.635    4.1952
   22.650    3.9670
   22.665    3.8968
   22.680    4.3883
   22.695    4.4760
   22.710    4.0021
   22.725    3.9846
   22.740    4.0723
   22.755    4.0899
   22.770    3.9846
   22.785    3.8617
   22.800    4.0372
   22.815    3.8617
   22.830    4.1776
   22.845    3.5106
   22.860    3.6510
   22.875    3.6510
   22.890    3.8266
   22.905    3.8968
   22.920    4.0021
   22.935    4.0197
   22.950    4.4234
   22.965    4.0197
   22.980    4.0372
   22.995    3.8792
   23.010    3.2824
   23.025    3.7915
   23.040    3.7564
   23.055    3.4404
   23.070    3.8090
   23.085    3.6686
   23.100    3.7739
   23.115    3.6686
   23.130    3.9319
   23.145    3.4053
   23.160    3.7915
   23.175    3.4580
   23.190    3.7213
   23.205    3.6335
   23.220    3.7739
   23.235    3.6686
   23.250    3.6510
   23.265    3.3526
   23.280    3.5984
   23.295    3.5984
   23.310    3.9319
   23.325    3.7915
   23.340    3.5457
   23.355    3.6686
   23.370    3.8792
   23.385    3.5984
   23.400    3.3877
   23.415    3.7213
   23.430    3.6862
   23.445    3.6159
   23.460    3.4580
   23.475    3.9846
   23.490    3.3526
   23.505    3.1947
   23.520    3.3877
   23.535    3.6159
   23.550    3.5282
   23.565    3.5282
   23.580    3.6862
   23.595    3.5633
   23.610    3.4053
   23.625    3.5984
   23.640    3.6335
   23.655    3.6862
   23.670    3.9494
   23.685    3.7213
   23.700    3.7213
   23.715    3.7213
   23.730    3.6159
   23.745    3.3877
   23.760    3.7213
   23.775    3.9319
   23.790    3.4404
   23.805    3.6159
   23.820    3.4404
   23.835    3.4931
   23.850    3.1771
   23.865    3.8441
   23.880    3.6335
   23.895    3.3000
   23.910    3.4053
   23.925    3.7915
   23.940    3.8090
   23.955    3.3175
   23.970    3.4755
   23.985    3.3000
   24.000    3.3702
   24.015    3.4404
   24.030    3.4053
   24.045    3.4580
   24.060    3.4931
   24.075    3.5282
   24.090    3.6510
   24.105    3.5633
   24.120    3.6159
   24.135    3.4229
   24.150    3.6510
   24.165    3.3526
   24.180    3.0718
   24.195    3.5984
   24.210    3.5282
   24.225    3.4580
   24.240    3.6510
   24.255    4.0548
   24.270    3.3702
   24.285    3.3175
   24.300    3.8090
   24.315    3.6510
   24.330    3.7915
   24.345    3.6862
   24.360    3.5808
   24.375    3.3702
   24.390    3.6686
   24.405    3.2824
   24.420    3.5633
   24.435    3.2649
   24.450    3.3351
   24.465    3.2649
   24.480    3.5106
   24.495    3.5457
   24.510    3.3175
   24.525    3.7213
   24.540    3.6686
   24.555    3.5633
   24.570    3.6510
   24.585    3.4229
   24.600    3.6510
   24.615    3.4053
   24.630    3.6862
   24.645    3.6862
   24.660    3.1947
   24.675    3.7564
   24.690    3.8792
   24.705    4.1425
   24.720    3.1596
   24.735    3.1596
   24.750    3.1245
   24.765    3.3000
   24.780    3.5457
   24.795    3.2649
   24.810    3.4755
   24.825    3.5457
   24.840    3.5808
   24.855    3.1947
   24.870    3.3000
   24.885    3.1771
   24.900    3.2122
   24.915    3.6686
   24.930    3.9319
   24.945    3.2473
   24.960    3.4404
   24.975    3.4580
   24.990    3.6159
   25.005    3.9670
   25.020    3.6510
   25.035    3.4404
   25.050    3.7564
   25.065    3.7388
   25.080    3.2824
   25.095    2.8436
   25.110    3.2824
   25.125    3.2473
   25.140    3.3175
   25.155    3.6862
   25.170    3.9143
   25.185    3.6159
   25.200    3.1771
   25.215    3.4404
   25.230    3.4580
   25.245    3.2122
   25.260    3.2122
   25.275    3.3877
   25.290    3.6159
   25.305    3.4404
   25.320    3.2824
   25.335    3.5282
   25.350    3.6510
   25.365    3.5808
   25.380    3.2473
   25.395    3.1596
   25.410    3.3877
   25.425    3.2824
   25.440    3.5282
   25.455    3.3351
   25.470    3.3351
   25.485    3.5282
   25.500    3.3526
   25.515    3.3175
   25.530    3.3877
   25.545    3.5106
   25.560    3.2122
   25.575    3.3000
   25.590    3.3526
   25.605    3.2122
   25.620    3.3351
   25.635    3.3526
   25.650    3.3000
   25.665    3.0367
   25.680    3.3526
   25.695    3.1069
   25.710    3.1069
   25.725    3.5984
   25.740    3.5106
   25.755    3.1420
   25.770    3.2298
   25.785    3.2473
   25.800    3.5984
   25.815    3.1245
   25.830    3.3351
   25.845    3.5984
   25.860    3.4053
   25.875    3.1596
   25.890    3.1245
   25.905    3.1420
   25.920    3.2473
   25.935    3.2473
   25.950    3.0718
   25.965    3.1069
   25.980    3.2298
   25.995    3.4053
   26.010    3.2298
   26.025    3.0542
   26.040    3.1245
   26.055    3.4053
   26.070    2.9665
   26.085    3.5808
   26.100    3.2649
   26.115    3.4931
   26.130    3.2473
   26.145    3.1069
   26.160    3.3000
   26.175    3.4580
   26.190    3.3175
   26.205    3.0893
   26.220    3.3351
   26.235    3.5984
   26.250    3.3877
   26.265    3.3175
   26.280    3.4229
   26.295    3.4580
   26.310    3.3877
   26.325    3.0191
   26.340    3.0718
   26.355    2.9840
   26.370    3.2473
   26.385    3.1245
   26.400    3.2122
   26.415    2.8963
   26.430    3.3351
   26.445    3.1771
   26.460    3.3526
   26.475    3.0893
   26.490    2.9665
   26.505    2.9138
   26.520    2.9314
   26.535    3.1245
   26.550    3.1420
   26.565    3.0016
   26.580    3.1420
   26.595    2.9840
   26.610    2.8085
   26.625    3.1420
   26.640    3.0542
   26.655    2.9314
   26.670    2.9489
   26.685    2.9138
   26.700    3.3351
   26.715    2.7558
   26.730    3.2824
   26.745    3.0718
   26.760    3.1596
   26.775    3.1245
   26.790    3.2649
   26.805    3.0542
   26.820    3.3175
   26.835    3.3526
   26.850    3.0893
   26.865    3.1596
   26.880    3.0191
   26.895    3.1420
   26.910    3.4053
   26.925    3.1069
   26.940    3.2122
   26.955    3.1420
   26.970    3.0893
   26.985    3.3526
   27.000    3.2298
   27.015    3.2649
   27.030    3.4755
   27.045    3.2473
   27.060    3.1245
   27.075    3.0367
   27.090    3.1771
   27.105    2.9665
   27.120    2.7734
   27.135    2.7558
   27.150    2.8612
   27.165    3.3351
   27.180    3.1420
   27.195    3.1420
   27.210    2.9665
   27.225    2.9314
   27.240    3.3351
   27.255    3.2122
   27.270    3.1596
   27.285    2.8436
   27.300    3.0542
   27.315    2.9138
   27.330    2.9840
   27.345    3.3351
   27.360    3.3877
   27.375    2.9489
   27.390    2.6330
   27.405    2.8963
   27.420    3.1069
   27.435    2.8787
   27.450    2.9138
   27.465    3.0542
   27.480    2.7909
   27.495    3.0542
   27.510    3.0016
   27.525    3.3175
   27.540    3.4053
   27.555    3.0718
   27.570    3.1771
   27.585    3.1245
   27.600    2.8436
   27.615    3.1771
   27.630    3.0367
   27.645    3.0542
   27.660    2.8085
   27.675    3.0893
   27.690    2.8085
   27.705    2.9665
   27.720    2.9314
   27.735    2.8436
   27.750    3.0191
   27.765    2.9665
   27.780    2.7207
   27.795    3.2824
   27.810    3.1947
   27.825    3.1420
   27.840    2.8436
   27.855    2.7558
   27.870    3.3175
   27.885    2.9665
   27.900    3.0191
   27.915    2.8963
   27.930    2.8612
   27.945    3.1420
   27.960    3.4229
   27.975    2.8260
   27.990    2.9840
   28.005    3.1420
   28.020    2.7207
   28.035    2.8436
   28.050    3.3000
   28.065    2.8787
   28.080    3.0718
   28.095    3.0542
   28.110    2.9665
   28.125    2.5979
   28.140    3.0191
   28.155    2.7032
   28.170    2.6154
   28.185    2.6681
   28.200    3.0016
   28.215    2.7734
   28.230    3.0191
   28.245    2.7909
   28.260    2.7734
   28.275    2.5803
   28.290    2.7734
   28.305    2.7734
   28.320    3.1420
   28.335    2.9840
   28.350    2.7383
   28.365    2.6856
   28.380    2.6330
   28.395    2.6154
   28.410    2.7207
   28.425    2.7032
   28.440    2.8085
   28.455    2.8260
   28.470    2.4925
   28.485    2.5803
   28.500    3.0016
   28.515    2.9314
   28.530    2.8612
   28.545    2.8085
   28.560    2.9138
   28.575    2.9314
   28.590    2.8085
   28.605    2.9840
   28.620    3.0191
   28.635    2.9665
   28.650    3.0367
   28.665    2.7383
   28.680    2.9665
   28.695    2.9840
   28.710    2.7207
   28.725    2.6154
   28.740    2.8963
   28.755    2.9665
   28.770    3.1947
   28.785    2.8436
   28.800    3.0016
   28.815    3.1420
   28.830    2.8787
   28.845    2.8085
   28.860    2.8085
   28.875    2.6505
   28.890    2.8260
   28.905    3.0718
   28.920    2.9138
   28.935    2.8085
   28.950    3.0893
   28.965    3.1069
   28.980    3.2122
   28.995    2.5803
   29.010    2.6681
   29.025    2.9840
   29.040    2.6856
   29.055    2.5276
   29.070    2.9138
   29.085    2.9665
   29.100    2.6856
   29.115    2.7383
   29.130    2.8436
   29.145    3.2649
   29.160    2.8612
   29.175    2.7032
   29.190    2.6330
   29.205    2.6856
   29.220    2.6856
   29.235    2.7383
   29.250    2.7383
   29.265    3.0542
   29.280    2.9665
   29.295    3.3175
   29.310    3.1420
   29.325    3.0016
   29.340    2.6505
   29.355    2.7558
   29.370    2.7909
   29.385    2.8612
   29.400    2.7909
   29.415    2.5452
   29.430    2.8612
   29.445    2.8085
   29.460    3.0542
   29.475    2.5979
   29.490    2.5101
   29.505    2.6505
   29.520    2.7909
   29.535    2.5452
   29.550    2.8085
   29.565    2.7383
   29.580    2.7383
   29.595    2.5452
   29.610    2.7558
   29.625    2.7734
   29.640    2.8787
   29.655    2.6681
   29.670    2.3872
   29.685    2.3697
   29.700    2.3872
   29.715    2.2468
   29.730    2.0537
   29.745    2.4399
   29.760    2.3872
   29.775    2.4048
   29.790    2.5628
   29.805    2.4925
   29.820    2.6330
   29.835    2.8260
   29.850    2.6505
   29.865    2.5101
   29.880    2.3872
   29.895    2.3872
   29.910    2.4750
   29.925    2.6154
   29.940    2.3521
   29.955    2.1766
   29.970    2.1766
   29.985    2.6856
   30.000    2.4223
   30.015    2.7207
   30.030    2.5628
   30.045    2.1590
   30.060    2.3346
   30.075    2.4048
   30.090    2.5979
   30.105    2.3346
   30.120    2.1590
   30.135    2.3521
   30.150    2.6154
   30.165    2.4750
   30.180    2.1941
   30.195    2.7734
   30.210    2.3697
   30.225    2.2292
   30.240    2.3872
   30.255    2.5101
   30.270    2.3521
   30.285    2.5101
   30.300    2.5101
   30.315    2.5276
   30.330    2.4925
   30.345    2.6505
   30.360    2.5803
   30.375    2.5101
   30.390    2.3170
   30.405    2.2292
   30.420    2.5452
   30.435    2.5276
   30.450    2.4750
   30.465    2.2292
   30.480    2.2292
   30.495    2.4574
   30.510    2.5101
   30.525    2.5979
   30.540    2.4925
   30.555    2.2995
   30.570    2.4750
   30.585    2.4048
   30.600    2.4223
   30.615    2.1064
   30.630    2.5628
   30.645    2.8787
   30.660    2.5803
   30.675    2.7558
   30.690    2.5803
   30.705    2.5276
   30.720    2.3521
   30.735    2.2468
   30.750    2.2468
   30.765    2.2468
   30.780    2.4574
   30.795    2.2819
   30.810    2.5276
   30.825    2.6154
   30.840    2.2117
   30.855    2.1239
   30.870    2.4223
   30.885    2.5979
   30.900    2.3872
   30.915    2.3872
   30.930    2.4750
   30.945    2.3521
   30.960    2.4223
   30.975    2.5276
   30.990    2.5803
   31.005    2.5101
   31.020    2.3170
   31.035    2.2643
   31.050    2.4750
   31.065    2.0537
   31.080    2.1415
   31.095    2.4399
   31.110    2.4048
   31.125    2.1415
   31.140    2.2468
   31.155    2.2468
   31.170    2.3872
   31.185    2.2995
   31.200    2.4223
   31.215    2.1766
   31.230    2.4925
   31.245    2.3872
   31.260    2.4399
   31.275    2.1239
   31.290    2.2819
   31.305    2.2117
   31.320    2.4223
   31.335    2.3521
   31.350    2.1415
   31.365    2.1239
   31.380    2.2819
   31.395    2.4925
   31.410    2.1766
   31.425    2.1766
   31.440    2.1064
   31.455    2.0362
   31.470    2.1239
   31.485    2.1941
   31.500    2.2117
   31.515    2.2292
   31.530    2.3521
   31.545    2.7032
   31.560    2.5803
   31.575    2.2117
   31.590    2.2995
   31.605    2.5452
   31.620    2.3346
   31.635    2.1415
   31.650    2.1239
   31.665    2.3346
   31.680    2.2995
   31.695    2.1415
   31.710    2.1415
   31.725    2.4223
   31.740    2.3346
   31.755    2.3346
   31.770    2.2468
   31.785    2.4223
   31.800    2.2819
   31.815    2.2643
   31.830    2.3872
   31.845    2.3346
   31.860    2.2117
   31.875    2.0713
   31.890    2.1415
   31.905    2.2117
   31.920    2.1941
   31.935    2.3170
   31.950    2.2819
   31.965    2.0362
   31.980    2.3697
   31.995    2.0888
   32.010    2.1766
   32.025    2.3697
   32.040    2.1766
   32.055    2.3521
   32.070    2.3697
   32.085    2.0362
   32.100    2.1766
   32.115    2.0362
   32.130    2.2468
   32.145    2.3346
   32.160    2.1239
   32.175    2.1941
   32.190    2.3170
   32.205    2.0888
   32.220    2.2117
   32.235    2.2819
   32.250    2.4750
   32.265    2.2995
   32.280    2.1415
   32.295    1.9308
   32.310    1.9835
   32.325    1.9659
   32.340    2.1064
   32.355    2.1415
   32.370    2.4399
   32.385    2.2117
   32.400    2.1415
   32.415    2.1239
   32.430    1.9659
   32.445    2.2117
   32.460    2.3521
   32.475    2.3697
   32.490    2.1415
   32.505    2.1590
   32.520    2.0186
   32.535    1.8255
   32.550    2.1415
   32.565    2.1415
   32.580    2.0537
   32.595    2.1064
   32.610    1.9484
   32.625    1.9835
   32.640    1.8957
   32.655    1.9133
   32.670    1.7553
   32.685    2.3697
   32.700    2.1766
   32.715    1.8782
   32.730    2.0537
   32.745    2.2819
   32.760    2.2117
   32.775    1.8255
   32.790    2.4574
   32.805    2.0186
   32.820    2.0888
   32.835    2.0713
   32.850    2.0537
   32.865    2.1064
   32.880    1.8957
   32.895    2.1590
   32.910    2.0362
   32.925    2.2819
   32.940    2.2468
   32.955    1.9835
   32.970    1.9308
   32.985    1.9308
   33.000    2.1239
   33.015    1.9308
   33.030    1.9133
   33.045    2.1766
   33.060    1.9308
   33.075    1.7027
   33.090    2.0011
   33.105    2.0011
   33.120    1.9659
   33.135    2.0713
   33.150    2.1766
   33.165    2.2292
   33.180    1.7202
   33.195    1.8255
   33.210    2.0362
   33.225    1.9308
   33.240    2.0186
   33.255    2.2643
   33.270    2.0537
   33.285    2.0537
   33.300    1.9835
   33.315    1.8957
   33.330    1.8957
   33.345    2.1064
   33.360    1.9133
   33.375    1.8782
   33.390    1.9835
   33.405    1.9308
   33.420    1.9133
   33.435    2.1941
   33.450    2.0888
   33.465    1.9835
   33.480    1.9308
   33.495    1.9659
   33.510    1.9133
   33.525    1.9484
   33.540    2.0713
   33.555    2.0537
   33.570    2.2292
   33.585    2.0888
   33.600    1.8431
   33.615    2.1766
   33.630    2.0713
   33.645    2.1941
   33.660    1.9308
   33.675    2.1415
   33.690    2.1941
   33.705    1.9835
   33.720    1.9835
   33.735    2.0011
   33.750    2.1064
   33.765    1.7202
   33.780    1.8957
   33.795    1.8957
   33.810    1.8782
   33.825    1.8782
   33.840    2.1590
   33.855    2.1590
   33.870    2.0186
   33.885    1.9659
   33.900    1.9835
   33.915    2.0537
   33.930    1.8782
   33.945    1.8431
   33.960    1.8431
   33.975    2.0011
   33.990    1.9659
   34.005    2.0011
   34.020    1.9659
   34.035    2.0713
   34.050    1.8080
   34.065    2.0011
   34.080    1.9835
   34.095    2.0186
   34.110    2.0011
   34.125    1.7729
   34.140    2.1941
   34.155    2.0888
   34.170    2.0537
   34.185    2.1941
   34.200    2.0713
   34.215    1.8606
   34.230    2.0362
   34.245    2.1941
   34.260    1.9484
   34.275    1.9659
   34.290    2.2117
   34.305    1.9835
   34.320    2.0362
   34.335    2.3346
   34.350    1.7904
   34.365    1.9484
   34.380    2.1064
   34.395    1.9835
   34.410    2.1415
   34.425    2.2117
   34.440    2.0011
   34.455    2.1766
   34.470    2.2468
   34.485    1.9835
   34.500    2.0713
   34.515    2.1590
   34.530    2.0362
   34.545    1.8606
   34.560    1.6675
   34.575    2.0186
   34.590    2.2468
   34.605    2.3521
   34.620    2.2117
   34.635    1.8431
   34.650    1.8255
   34.665    1.8606
   34.680    1.9659
   34.695    1.9308
   34.710    2.0537
   34.725    1.8431
   34.740    1.8255
   34.755    2.1766
   34.770    2.0011
   34.785    1.8957
   34.800    1.9484
   34.815    1.6149
   34.830    1.7729
   34.845    1.9133
   34.860    1.7904
   34.875    2.0186
   34.890    1.8957
   34.905    1.9659
   34.920    2.1239
   34.935    2.3346
   34.950    1.8606
   34.965    2.0713
   34.980    1.7027
   34.995    1.8957
   35.010    1.9835
   35.025    1.9835
   35.040    1.8606
   35.055    1.9133
   35.070    1.8606
   35.085    1.6675
   35.100    1.8782
   35.115    1.7904
   35.130    1.7904
   35.145    1.8431
   35.160    1.7553
   35.175    1.8606
   35.190    2.0713
   35.205    2.1415
   35.220    1.9133
   35.235    2.2292
   35.250    1.8606
   35.265    1.9484
   35.280    1.8606
   35.295    1.8782
   35.310    1.8782
   35.325    1.8255
   35.340    1.9835
   35.355    1.9133
   35.370    2.1239
   35.385    2.0362
   35.400    1.9308
   35.415    1.7553
   35.430    1.9133
   35.445    2.1415
   35.460    2.0537
   35.475    2.0011
   35.490    1.9308
   35.505    1.8255
   35.520    1.8957
   35.535    2.1239
   35.550    2.0186
   35.565    1.8080
   35.580    1.8431
   35.595    1.7904
   35.610    1.8431
   35.625    1.7904
   35.640    1.7904
   35.655    1.6149
   35.670    1.7729
   35.685    2.0186
   35.700    1.8782
   35.715    1.7904
   35.730    1.8080
   35.745    1.9659
   35.760    2.0011
   35.775    1.4394
   35.790    1.7027
   35.805    1.6675
   35.820    1.9133
   35.835    2.1415
   35.850    2.0713
   35.865    1.8606
   35.880    1.9133
   35.895    2.0362
   35.910    1.9659
   35.925    2.0537
   35.940    1.9133
   35.955    1.9308
   35.970    1.8957
   35.985    1.8080
   36.000    2.0888
   36.015    1.7729
   36.030    1.9133
   36.045    2.0362
   36.060    1.8255
   36.075    1.5798
   36.090    2.0362
   36.105    1.7729
   36.120    2.0537
   36.135    1.9659
   36.150    2.0713
   36.165    1.8080
   36.180    1.9484
   36.195    2.1415
   36.210    1.9484
   36.225    1.8080
   36.240    1.8080
   36.255    2.0713
   36.270    1.9659
   36.285    1.7553
   36.300    1.7378
   36.315    1.9835
   36.330    1.8957
   36.345    1.7553
   36.360    1.8255
   36.375    1.7729
   36.390    1.7202
   36.405    1.7027
   36.420    1.5973
   36.435    1.9659
   36.450    1.7729
   36.465    1.7202
   36.480    1.8782
   36.495    1.6149
   36.510    1.8606
   36.525    1.8957
   36.540    1.9133
   36.555    1.9308
   36.570    1.9659
   36.585    1.9484
   36.600    1.8782
   36.615    1.9835
   36.630    1.7553
   36.645    1.8431
   36.660    1.8782
   36.675    1.7378
   36.690    1.7553
   36.705    2.0186
   36.720    1.9133
   36.735    1.8606
   36.750    2.1415
   36.765    1.7729
   36.780    1.9133
   36.795    2.0362
   36.810    2.0537
   36.825    1.9659
   36.840    2.0362
   36.855    2.0011
   36.870    2.1941
   36.885    2.1590
   36.900    1.8782
   36.915    2.0362
   36.930    2.0888
   36.945    1.9659
   36.960    2.2117
   36.975    1.9484
   36.990    1.7202
   37.005    1.7378
   37.020    1.8957
   37.035    1.5271
   37.050    1.7729
   37.065    2.2117
   37.080    1.9659
   37.095    1.8957
   37.110    1.7729
   37.125    1.7904
   37.140    2.0362
   37.155    2.0011
   37.170    2.0888
   37.185    1.6324
   37.200    1.7202
   37.215    2.1239
   37.230    2.2117
   37.245    1.8957
   37.260    1.6149
   37.275    1.5973
   37.290    1.8957
   37.305    1.9835
   37.320    1.5271
   37.335    1.6149
   37.350    1.7904
   37.365    1.8080
   37.380    1.9308
   37.395    1.9484
   37.410    1.8255
   37.425    1.6675
   37.440    1.5973
   37.455    1.8606
   37.470    1.8957
   37.485    1.8080
   37.500    1.6675
   37.515    2.0186
   37.530    1.8080
   37.545    1.6851
   37.560    1.8957
   37.575    1.6500
   37.590    1.7553
   37.605    1.8255
   37.620    1.8080
   37.635    1.9835
   37.650    1.8957
   37.665    1.9484
   37.680    2.0537
   37.695    1.6149
   37.710    1.8957
   37.725    1.7553
   37.740    1.6500
   37.755    1.7027
   37.770    1.8957
   37.785    1.8957
   37.800    1.9835
   37.815    1.9659
   37.830    1.9308
   37.845    1.7904
   37.860    1.3867
   37.875    1.5096
   37.890    1.7378
   37.905    1.7202
   37.920    1.8957
   37.935    1.8606
   37.950    1.8080
   37.965    1.8255
   37.980    1.8431
   37.995    1.8782
   38.010    1.7553
   38.025    1.8431
   38.040    1.8606
   38.055    1.7202
   38.070    1.7378
   38.085    2.0011
   38.100    1.9308
   38.115    1.7553
   38.130    1.6675
   38.145    2.0362
   38.160    1.8782
   38.175    1.9659
   38.190    2.0713
   38.205    1.9133
   38.220    1.7027
   38.235    1.8606
   38.250    1.9484
   38.265    1.9133
   38.280    1.6851
   38.295    1.6149
   38.310    1.7202
   38.325    2.0362
   38.340    2.0011
   38.355    1.9484
   38.370    1.5798
   38.385    1.7027
   38.400    2.1590
   38.415    2.0888
   38.430    1.6324
   38.445    1.6500
   38.460    1.7553
   38.475    1.9308
   38.490    1.6500
   38.505    2.0537
   38.520    1.8957
   38.535    1.6851
   38.550    1.5447
   38.565    1.7202
   38.580    1.8080
   38.595    1.6675
   38.610    1.7729
   38.625    1.5973
   38.640    1.6149
   38.655    1.8255
   38.670    2.0011
   38.685    1.7904
   38.700    1.8957
   38.715    1.7729
   38.730    1.7729
   38.745    1.6324
   38.760    1.7904
   38.775    1.7904
   38.790    1.6851
   38.805    1.7729
   38.820    1.6851
   38.835    1.8255
   38.850    1.8080
   38.865    1.6500
   38.880    1.8606
   38.895    1.6675
   38.910    1.5271
   38.925    1.7378
   38.940    1.8782
   38.955    1.6675
   38.970    1.7904
   38.985    2.0362
   39.000    1.8606
   39.015    1.6500
   39.030    1.7553
   39.045    1.7378
   39.060    1.9308
   39.075    1.8255
   39.090    1.7729
   39.105    1.7202
   39.120    1.6149
   39.135    1.7904
   39.150    1.6500
   39.165    1.7378
   39.180    1.6149
   39.195    1.7378
   39.210    1.9659
   39.225    1.9484
   39.240    1.9835
   39.255    1.8957
   39.270    1.6675
   39.285    1.7378
   39.300    1.7553
   39.315    1.9133
   39.330    1.7729
   39.345    1.6851
   39.360    1.7378
   39.375    1.6149
   39.390    1.5798
   39.405    1.5798
   39.420    1.6851
   39.435    1.7729
   39.450    1.7378
   39.465    1.6324
   39.480    1.9133
   39.495    2.1239
   39.510    1.9133
   39.525    1.6324
   39.540    1.4218
   39.555    1.4394
   39.570    1.6675
   39.585    1.8255
   39.600    1.7378
   39.615    1.9308
   39.630    1.8957
   39.645    1.5973
   39.660    1.5798
   39.675    1.5798
   39.690    1.8255
   39.705    1.5096
   39.720    1.4745
   39.735    1.9659
   39.750    1.9659
   39.765    1.6324
   39.780    1.6324
   39.795    1.8782
   39.810    1.6851
   39.825    1.7378
   39.840    1.5622
   39.855    1.6324
   39.870    1.8606
   39.885    1.5447
   39.900    1.4042
   39.915    1.6851
   39.930    1.8431
   39.945    1.8782
   39.960    1.6324
   39.975    1.7904
   39.990    1.5622
