    1.500   21.8325
    1.515   22.0537
    1.530   21.6219
    1.545   22.0853
    1.560   21.6219
    1.575   21.2533
    1.590   20.8636
    1.605   20.6951
    1.620   20.3370
    1.635   19.5471
    1.650   19.3681
    1.665   19.6419
    1.680   19.9684
    1.695   19.1364
    1.710   19.1785
    1.725   18.9047
    1.740   18.5782
    1.755   18.3570
    1.770   18.2938
    1.785   17.7883
    1.800   17.4513
    1.815   17.4197
    1.830   17.1143
    1.845   16.5877
    1.860   16.5877
    1.875   16.8088
    1.890   16.3981
    1.905   15.7873
    1.920   15.7767
    1.935   16.4086
    1.950   15.8294
    1.965   15.4292
    1.980   14.8499
    1.995   15.8083
    2.010   15.2185
    2.025   15.0184
    2.040   14.5761
    2.055   14.8078
    2.070   14.7762
    2.085   14.4918
    2.100   13.9758
    2.115   13.7125
    2.130   13.6914
    2.145   14.2391
    2.160   14.1127
    2.175   13.8073
    2.190   13.7335
    2.205   13.2175
    2.220   13.4387
    2.235   12.6804
    2.250   13.1859
    2.265   12.7646
    2.280   12.9331
    2.295   13.1543
    2.310   12.8805
    2.325   12.8489
    2.340   12.6593
    2.355   12.4908
    2.370   12.5224
    2.385   12.5961
    2.400   12.1748
    2.415   11.3533
    2.430   12.1854
    2.445   11.6693
    2.460   11.7325
    2.475   12.1222
    2.490   12.0484
    2.505   12.0274
    2.520   11.6377
    2.535   11.3428
    2.550   10.8899
    2.565   11.0163
    2.580   10.7636
    2.595   11.1638
    2.610   10.8689
    2.625   10.6688
    2.640   10.3212
    2.655   10.6477
    2.670   10.0474
    2.685    9.8473
    2.700   10.5951
    2.715   10.5424
    2.730   10.4160
    2.745   10.1211
    2.760    9.7314
    2.775   10.1948
    2.790   10.5108
    2.805   10.1106
    2.820   10.7320
    2.835   10.3212
    2.850    9.9210
    2.865   10.4160
    2.880   10.3423
    2.895   10.1527
    2.910   10.1001
    2.925   10.3002
    2.940   10.1106
    2.955   10.1948
    2.970   10.8689
    2.985   10.5529
    3.000   10.5529
    3.015   10.3528
    3.030   10.8794
    3.045   10.3423
    3.060   10.2791
    3.075   10.5319
    3.090   10.4476
    3.105   10.7636
    3.120   11.1532
    3.135   11.0479
    3.150   11.4692
    3.165   11.2691
    3.180   11.7746
    3.195   11.8378
    3.210   11.9221
    3.225   12.2696
    3.240   13.0490
    3.255   13.0911
    3.270   13.4281
    3.285   13.9652
    3.300   14.2075
    3.315   14.6709
    3.330   14.6814
    3.345   15.0290
    3.360   15.2817
    3.375   16.4508
    3.390   16.8615
    3.405   17.6619
    3.420   17.9252
    3.435   19.6840
    3.450   20.3476
    3.465   20.8320
    3.480   22.0326
    3.495   22.5803
    3.510   24.3286
    3.525   25.4344
    3.540   26.1190
    3.555   27.2986
    3.570   30.0158
    3.585   31.4903
    3.600   33.3228
    3.615   34.7235
    3.630   37.4724
    3.645   40.9584
    3.660   43.8757
    3.675   47.8884
    3.690   51.6693
    3.705   54.7657
    3.720   59.4523
    3.735   64.1706
    3.750   70.6477
    3.765   78.3360
    3.780   87.3302
    3.795   98.2307
    3.810  112.5856
    3.825  130.3423
    3.840  145.8241
    3.855  149.4050
    3.870  143.7283
    3.885  129.9105
    3.900  101.7272
    3.915   68.2359
    3.930   42.9700
    3.945   28.2675
    3.960   20.8847
    3.975   16.7983
    3.990   14.5234
    4.005   13.2385
    4.020   12.2064
    4.035   11.2375
    4.050   10.1106
    4.065    9.8473
    4.080    9.6577
    4.095    9.6577
    4.110    8.7836
    4.125    8.1938
    4.140    7.9726
    4.155    7.9726
    4.170    7.8462
    4.185    7.6567
    4.200    7.2354
    4.215    7.3091
    4.230    6.6983
    4.245    7.2038
    4.260    6.3402
    4.275    6.2138
    4.290    6.6245
    4.305    6.6772
    4.320    6.7720
    4.335    6.5403
    4.350    5.9294
    4.365    5.8768
    4.380    6.3507
    4.395    6.1401
    4.410    6.1295
    4.425    5.7925
    4.440    5.9505
    4.455    6.1927
    4.470    6.0874
    4.485    5.8978
    4.500    5.5503
    4.515    5.5924
    4.530    5.8978
    4.545    6.0032
    4.560    5.4450
    4.575    5.8768
    4.590    5.5608
    4.605    5.8452
    4.620    5.4028
    4.635    5.7715
    4.650    5.6767
    4.665    5.6767
    4.680    5.7188
    4.695    5.3291
    4.710    5.4239
    4.725    5.4344
    4.740    5.1606
    4.755    5.5398
    4.770    5.7293
    4.785    5.7609
    4.800    5.6135
    4.815    5.7504
    4.830    5.4976
    4.845    6.0137
    4.860    5.5924
    4.875    5.5082
    4.890    5.5608
    4.905    5.4450
    4.920    5.6240
    4.935    5.5819
    4.950    5.8347
    4.965    5.9610
    4.980    6.2770
    4.995    5.8978
    5.010    6.5298
    5.025    6.0769
    5.040    6.0769
    5.055    6.6351
    5.070    6.7720
    5.085    7.2670
    5.100    7.1406
    5.115    7.5092
    5.130    7.6883
    5.145    7.9305
    5.160    8.0569
    5.175    8.3096
    5.190    8.7730
    5.205    8.6256
    5.220    9.2996
    5.235   10.0790
    5.250   10.6898
    5.265   11.2691
    5.280   11.5429
    5.295   12.1854
    5.310   13.7019
    5.325   14.6288
    5.340   16.4508
    5.355   17.6198
    5.370   19.1153
    5.385   20.8952
    5.400   23.0753
    5.415   25.9189
    5.430   29.7946
    5.445   34.3865
    5.460   37.6409
    5.475   40.7372
    5.490   39.7999
    5.505   36.9036
    5.520   29.7314
    5.535   22.2749
    5.550   14.9658
    5.565   10.6582
    5.580    8.4676
    5.595    7.4776
    5.610    6.4350
    5.625    6.3928
    5.640    6.5403
    5.655    6.0979
    5.670    5.8241
    5.685    5.8136
    5.700    6.0874
    5.715    5.5924
    5.730    5.5608
    5.745    5.0553
    5.760    4.9500
    5.775    5.4344
    5.790    5.0869
    5.805    4.7709
    5.820    5.1080
    5.835    5.0026
    5.850    4.9710
    5.865    4.8868
    5.880    4.8657
    5.895    4.3707
    5.910    4.9710
    5.925    5.0026
    5.940    4.5498
    5.955    4.7604
    5.970    4.8025
    5.985    4.5603
    6.000    4.0969
    6.015    4.6235
    6.030    4.7183
    6.045    4.3075
    6.060    4.6656
    6.075    4.7288
    6.090    4.8341
    6.105    5.0132
    6.120    4.8868
    6.135    4.6235
    6.150    4.1706
    6.165    4.5182
    6.180    4.5182
    6.195    4.4971
    6.210    4.5182
    6.225    4.5287
    6.240    5.0237
    6.255    4.9289
    6.270    4.6656
    6.285    4.8657
    6.300    4.7499
    6.315    4.5603
    6.330    4.6551
    6.345    4.8236
    6.360    5.0132
    6.375    4.8025
    6.390    4.8447
    6.405    5.1080
    6.420    5.2449
    6.435    4.8447
    6.450    4.6551
    6.465    5.1501
    6.480    5.1711
    6.495    5.3923
    6.510    5.5187
    6.525    5.8241
    6.540    5.8031
    6.555    6.1927
    6.570    6.4350
    6.585    6.4350
    6.600    7.0669
    6.615    7.7304
    6.630    7.5197
    6.645    8.4044
    6.660    9.3628
    6.675    9.9947
    6.690   10.9005
    6.705   11.7746
    6.720   12.4697
    6.735   12.3539
    6.750   11.8905
    6.765   10.6793
    6.780    8.7730
    6.795    7.2775
    6.810    6.3928
    6.825    5.6345
    6.840    5.5292
    6.855    5.3186
    6.870    5.0869
    6.885    4.8973
    6.900    4.5919
    6.915    4.6761
    6.930    4.5498
    6.945    4.5498
    6.960    4.6340
    6.975    4.7709
    6.990    4.7709
    7.005    4.7393
    7.020    4.4760
    7.035    4.8236
    7.050    4.6972
    7.065    4.7920
    7.080    4.7288
    7.095    4.7393
    7.110    4.3602
    7.125    4.6130
    7.140    4.5814
    7.155    4.4550
    7.170    4.7815
    7.185    4.8552
    7.200    4.5498
    7.215    4.2127
    7.230    4.4971
    7.245    4.5919
    7.260    4.4760
    7.275    4.2233
    7.290    4.7183
    7.305    4.8131
    7.320    4.7499
    7.335    4.6656
    7.350    4.5814
    7.365    4.5076
    7.380    4.7709
    7.395    4.6867
    7.410    4.8025
    7.425    4.6235
    7.440    4.4971
    7.455    4.6551
    7.470    5.0026
    7.485    4.9184
    7.500    4.8763
    7.515    4.9710
    7.530    4.8657
    7.545    5.0448
    7.560    5.4344
    7.575    5.0237
    7.590    5.1290
    7.605    5.9926
    7.620    6.0348
    7.635    6.0348
    7.650    6.3086
    7.665    6.7509
    7.680    7.5619
    7.695    7.7409
    7.710    8.5940
    7.725    9.1417
    7.740   10.2686
    7.755   10.9637
    7.770   11.2375
    7.785   11.8273
    7.800   10.7952
    7.815    9.7314
    7.830    8.5097
    7.845    7.0353
    7.860    6.0453
    7.875    5.2554
    7.890    4.7499
    7.905    5.0342
    7.920    4.7077
    7.935    4.7077
    7.950    4.4866
    7.965    4.6130
    7.980    4.5076
    7.995    4.1811
    8.010    4.1074
    8.025    4.2338
    8.040    4.3497
    8.055    4.2759
    8.070    4.2970
    8.085    4.4550
    8.100    4.4760
    8.115    4.3181
    8.130    4.2549
    8.145    4.3075
    8.160    4.3286
    8.175    4.0758
    8.190    4.3286
    8.205    4.2865
    8.220    4.2865
    8.235    4.1496
    8.250    4.4444
    8.265    4.6445
    8.280    4.3813
    8.295    4.5814
    8.310    4.4128
    8.325    4.4023
    8.340    4.3181
    8.355    4.1496
    8.370    4.4128
    8.385    3.9073
    8.400    4.3602
    8.415    4.1917
    8.430    4.3181
    8.445    4.4128
    8.460    4.5182
    8.475    4.5392
    8.490    4.5182
    8.505    4.4550
    8.520    4.5182
    8.535    4.0442
    8.550    4.1180
    8.565    4.3286
    8.580    4.6445
    8.595    4.4866
    8.610    4.6972
    8.625    4.4339
    8.640    4.5814
    8.655    4.6867
    8.670    4.8025
    8.685    5.1817
    8.700    5.1606
    8.715    5.0026
    8.730    5.1817
    8.745    4.9710
    8.760    4.7183
    8.775    4.4655
    8.790    4.4550
    8.805    4.1917
    8.820    4.0442
    8.835    4.1285
    8.850    4.1390
    8.865    4.4866
    8.880    4.2654
    8.895    4.5076
    8.910    4.2022
    8.925    4.4444
    8.940    4.6656
    8.955    4.4234
    8.970    4.3707
    8.985    4.3497
    9.000    4.2654
    9.015    4.1285
    9.030    4.0337
    9.045    4.2865
    9.060    4.6130
    9.075    4.5498
    9.090    4.4971
    9.105    4.4128
    9.120    4.2970
    9.135    4.0548
    9.150    4.1285
    9.165    4.4234
    9.180    4.3391
    9.195    4.4444
    9.210    4.6551
    9.225    4.6551
    9.240    4.3391
    9.255    4.6235
    9.270    4.6130
    9.285    4.8973
    9.300    4.9394
    9.315    5.4766
    9.330    5.7293
    9.345    5.5608
    9.360    6.3823
    9.375    5.9926
    9.390    6.4771
    9.405    6.9405
    9.420    7.4144
    9.435    8.6467
    9.450    9.1417
    9.465   10.0263
    9.480   12.0800
    9.495   14.3128
    9.510   15.7241
    9.525   18.1780
    9.540   18.8310
    9.555   18.7467
    9.570   17.1564
    9.585   14.2601
    9.600   11.4271
    9.615    8.8678
    9.630    7.2249
    9.645    6.0137
    9.660    5.8452
    9.675    5.5082
    9.690    5.0553
    9.705    4.9184
    9.720    4.8341
    9.735    4.6445
    9.750    4.6024
    9.765    4.5603
    9.780    4.7077
    9.795    4.4023
    9.810    4.3286
    9.825    4.5392
    9.840    4.4339
    9.855    4.3075
    9.870    3.9073
    9.885    4.3075
    9.900    4.5287
    9.915    4.6551
    9.930    4.7499
    9.945    4.3181
    9.960    4.1601
    9.975    4.1390
    9.990    4.7077
   10.005    4.5076
   10.020    4.5814
   10.035    4.5919
   10.050    4.6656
   10.065    4.7709
   10.080    4.6445
   10.095    4.6761
   10.110    4.6972
   10.125    4.5814
   10.140    4.9710
   10.155    5.0764
   10.170    4.9500
   10.185    5.1922
   10.200    5.5292
   10.215    5.8452
   10.230    6.1506
   10.245    6.7825
   10.260    7.2670
   10.275    8.2991
   10.290    9.0469
   10.305    9.2891
   10.320    9.3734
   10.335    9.0363
   10.350    7.6988
   10.365    7.2880
   10.380    6.5192
   10.395    5.3923
   10.410    5.0026
   10.425    4.8447
   10.440    4.9289
   10.455    4.7393
   10.470    4.6235
   10.485    4.4655
   10.500    4.3918
   10.515    4.4444
   10.530    4.2127
   10.545    4.6130
   10.560    4.3497
   10.575    4.2338
   10.590    4.4339
   10.605    4.3286
   10.620    4.2443
   10.635    4.0126
   10.650    4.2233
   10.665    4.1496
   10.680    3.8863
   10.695    4.4234
   10.710    4.5392
   10.725    4.3286
   10.740    4.5919
   10.755    4.3602
   10.770    4.3813
   10.785    4.3497
   10.800    4.2127
   10.815    4.2338
   10.830    4.4655
   10.845    4.5708
   10.860    4.6235
   10.875    4.5392
   10.890    4.7604
   10.905    5.0448
   10.920    5.3712
   10.935    5.5398
   10.950    5.8557
   10.965    5.9294
   10.980    6.4982
   10.995    7.9516
   11.010    8.0463
   11.025    8.5519
   11.040    8.5940
   11.055    8.4676
   11.070    7.7199
   11.085    6.8352
   11.100    5.7715
   11.115    5.3397
   11.130    4.9710
   11.145    4.7288
   11.160    4.7393
   11.175    4.0021
   11.190    4.0969
   11.205    4.1917
   11.220    4.2022
   11.235    4.1180
   11.250    4.3391
   11.265    4.4339
   11.280    4.1390
   11.295    4.0442
   11.310    4.4339
   11.325    4.1180
   11.340    4.3075
   11.355    4.2233
   11.370    4.2443
   11.385    4.2338
   11.400    4.0442
   11.415    4.2022
   11.430    3.8652
   11.445    4.2022
   11.460    4.4339
   11.475    4.4655
   11.490    4.5076
   11.505    4.3286
   11.520    4.2443
   11.535    4.0864
   11.550    4.7077
   11.565    4.7288
   11.580    4.8131
   11.595    5.2554
   11.610    5.2133
   11.625    5.6240
   11.640    6.1822
   11.655    6.9721
   11.670    7.6356
   11.685    8.4255
   11.700    8.8784
   11.715    8.7836
   11.730    8.3307
   11.745    7.8462
   11.760    6.4771
   11.775    5.8557
   11.790    5.4660
   11.805    4.9184
   11.820    4.8763
   11.835    4.5287
   11.850    4.5392
   11.865    4.2654
   11.880    4.3497
   11.895    4.2549
   11.910    4.1285
   11.925    4.1390
   11.940    4.0653
   11.955    3.9705
   11.970    3.8125
   11.985    3.8336
   12.000    3.9705
   12.015    3.8441
   12.030    3.6967
   12.045    4.2127
   12.060    3.7599
   12.075    4.0864
   12.090    4.2022
   12.105    4.1706
   12.120    3.6967
   12.135    3.8441
   12.150    3.9494
   12.165    4.0758
   12.180    4.0548
   12.195    4.4128
   12.210    4.2233
   12.225    4.1496
   12.240    4.0864
   12.255    4.2970
   12.270    4.3918
   12.285    4.3075
   12.300    4.4128
   12.315    4.6656
   12.330    4.6024
   12.345    4.5919
   12.360    4.7183
   12.375    4.7920
   12.390    4.2970
   12.405    4.4023
   12.420    3.9600
   12.435    3.9284
   12.450    3.8968
   12.465    4.0653
   12.480    4.0758
   12.495    3.8863
   12.510    3.9916
   12.525    4.0864
   12.540    3.8652
   12.555    3.4966
   12.570    3.7809
   12.585    3.9494
   12.600    4.2443
   12.615    3.8020
   12.630    3.3807
   12.645    3.6230
   12.660    3.8020
   12.675    4.0758
   12.690    3.8968
   12.705    4.0864
   12.720    3.9705
   12.735    3.7915
   12.750    3.9284
   12.765    3.8757
   12.780    4.3813
   12.795    4.4023
   12.810    4.3813
   12.825    4.3707
   12.840    4.5603
   12.855    4.6867
   12.870    5.1922
   12.885    5.4344
   12.900    5.5608
   12.915    6.0979
   12.930    6.3612
   12.945    6.9089
   12.960    7.0037
   12.975    7.1301
   12.990    6.2981
   13.005    5.3607
   13.020    5.4555
   13.035    4.8657
   13.050    4.5392
   13.065    4.2127
   13.080    4.1074
   13.095    4.1496
   13.110    4.0337
   13.125    3.7072
   13.140    3.9916
   13.155    3.8547
   13.170    3.8336
   13.185    3.7704
   13.200    4.0653
   13.215    3.9494
   13.230    4.0442
   13.245    3.8336
   13.260    3.6756
   13.275    3.9494
   13.290    3.7388
   13.305    3.6651
   13.320    3.7915
   13.335    4.0232
   13.350    3.9179
   13.365    4.1390
   13.380    3.7388
   13.395    3.8863
   13.410    4.2233
   13.425    4.3391
   13.440    4.3707
   13.455    4.2127
   13.470    4.2654
   13.485    4.7288
   13.500    4.8657
   13.515    5.0869
   13.530    5.3291
   13.545    5.0237
   13.560    5.0869
   13.575    4.9605
   13.590    4.8868
   13.605    4.6656
   13.620    4.3286
   13.635    4.0232
   13.650    3.8547
   13.665    3.9916
   13.680    4.0442
   13.695    3.7493
   13.710    3.7388
   13.725    3.6862
   13.740    4.0969
   13.755    3.9389
   13.770    3.6019
   13.785    3.9916
   13.800    4.0758
   13.815    3.8125
   13.830    4.1390
   13.845    4.2443
   13.860    3.9916
   13.875    3.8336
   13.890    3.7599
   13.905    4.1180
   13.920    3.8863
   13.935    4.2759
   13.950    4.2970
   13.965    4.4444
   13.980    4.1811
   13.995    4.5919
   14.010    4.7920
   14.025    5.1080
   14.040    5.6240
   14.055    5.9189
   14.070    5.9926
   14.085    6.0453
   14.100    6.2243
   14.115    6.2138
   14.130    5.9400
   14.145    5.3291
   14.160    4.8763
   14.175    4.4444
   14.190    3.9389
   14.205    4.0969
   14.220    4.1285
   14.235    3.6862
   14.250    3.6440
   14.265    4.0126
   14.280    4.0758
   14.295    3.9284
   14.310    3.6651
   14.325    3.7493
   14.340    3.8757
   14.355    3.7388
   14.370    3.6756
   14.385    3.5176
   14.400    3.6335
   14.415    3.6546
   14.430    3.5598
   14.445    3.6756
   14.460    3.4123
   14.475    3.9494
   14.490    4.0969
   14.505    3.9389
   14.520    3.3913
   14.535    3.3070
   14.550    3.6019
   14.565    3.5387
   14.580    3.5492
   14.595    3.6651
   14.610    3.3807
   14.625    3.5914
   14.640    3.5387
   14.655    3.6756
   14.670    3.6440
   14.685    3.7177
   14.700    3.6440
   14.715    3.5387
   14.730    3.7177
   14.745    3.6862
   14.760    3.6651
   14.775    3.5598
   14.790    3.6546
   14.805    3.9389
   14.820    3.6651
   14.835    3.4439
   14.850    3.6967
   14.865    3.7809
   14.880    4.0548
   14.895    3.9494
   14.910    3.8125
   14.925    3.8336
   14.940    3.7704
   14.955    3.6967
   14.970    4.0126
   14.985    3.9073
   15.000    4.0232
   15.015    3.6967
   15.030    3.6546
   15.045    3.6862
   15.060    4.0758
   15.075    3.8757
   15.090    4.1390
   15.105    4.0758
   15.120    4.0548
   15.135    4.3707
   15.150    4.3391
   15.165    4.4550
   15.180    4.0442
   15.195    3.9073
   15.210    4.0758
   15.225    4.0021
   15.240    3.9284
   15.255    4.1285
   15.270    3.9073
   15.285    3.7177
   15.300    3.7915
   15.315    4.0126
   15.330    3.7283
   15.345    3.6967
   15.360    3.8125
   15.375    3.7809
   15.390    3.9600
   15.405    3.7072
   15.420    3.8020
   15.435    3.4860
   15.450    3.5703
   15.465    3.5282
   15.480    3.4123
   15.495    3.6230
   15.510    3.7283
   15.525    3.6335
   15.540    3.6124
   15.555    3.7072
   15.570    3.7283
   15.585    3.6124
   15.600    3.3491
   15.615    3.6019
   15.630    3.8231
   15.645    3.6440
   15.660    3.7599
   15.675    3.9494
   15.690    3.9705
   15.705    3.5703
   15.720    3.3807
   15.735    3.7915
   15.750    3.9494
   15.765    3.8757
   15.780    3.6019
   15.795    3.7599
   15.810    3.9494
   15.825    3.5492
   15.840    3.6756
   15.855    3.6862
   15.870    3.8968
   15.885    3.6335
   15.900    3.5598
   15.915    3.4334
   15.930    3.6862
   15.945    3.6440
   15.960    3.6440
   15.975    3.5282
   15.990    3.4439
   16.005    4.0021
   16.020    4.0126
   16.035    3.9389
   16.050    3.9284
   16.065    3.8336
   16.080    4.1917
   16.095    4.4128
   16.110    4.2865
   16.125    4.2338
   16.140    4.0969
   16.155    4.5919
   16.170    4.2865
   16.185    4.2022
   16.200    4.0021
   16.215    4.0758
   16.230    4.0758
   16.245    3.8231
   16.260    3.9179
   16.275    3.9284
   16.290    3.6440
   16.305    4.1285
   16.320    3.8441
   16.335    3.7809
   16.350    3.6546
   16.365    3.8968
   16.380    3.9179
   16.395    3.8968
   16.410    3.7072
   16.425    3.8020
   16.440    3.8125
   16.455    3.6546
   16.470    3.6019
   16.485    3.8968
   16.500    3.7599
   16.515    3.8336
   16.530    4.2127
   16.545    4.2443
   16.560    4.1285
   16.575    4.1811
   16.590    4.2654
   16.605    4.5392
   16.620    4.2233
   16.635    4.1074
   16.650    4.4023
   16.665    4.0548
   16.680    3.9179
   16.695    3.8968
   16.710    3.8125
   16.725    3.9179
   16.740    3.8020
   16.755    3.8336
   16.770    3.8441
   16.785    3.9705
   16.800    4.1496
   16.815    3.9284
   16.830    3.8020
   16.845    3.8652
   16.860    3.7493
   16.875    3.9810
   16.890    3.9389
   16.905    3.8125
   16.920    3.6440
   16.935    4.0337
   16.950    4.1811
   16.965    4.5708
   16.980    4.1706
   16.995    4.2233
   17.010    4.8025
   17.025    4.9078
   17.040    5.3081
   17.055    5.5924
   17.070    5.4766
   17.085    5.5187
   17.100    5.5714
   17.115    5.3607
   17.130    5.0026
   17.145    4.7815
   17.160    4.6445
   17.175    4.8973
   17.190    4.4655
   17.205    4.0442
   17.220    4.0021
   17.235    4.0442
   17.250    3.7704
   17.265    3.9705
   17.280    3.8652
   17.295    4.1285
   17.310    4.2022
   17.325    3.9705
   17.340    3.7388
   17.355    3.7809
   17.370    3.9073
   17.385    3.6862
   17.400    4.0548
   17.415    3.7493
   17.430    3.9810
   17.445    4.0758
   17.460    4.1074
   17.475    4.1917
   17.490    4.3707
   17.505    4.1706
   17.520    3.9073
   17.535    4.0126
   17.550    4.0337
   17.565    3.9284
   17.580    3.9179
   17.595    3.7177
   17.610    3.6967
   17.625    3.6124
   17.640    3.9073
   17.655    3.6967
   17.670    3.7599
   17.685    3.6967
   17.700    3.7493
   17.715    3.7599
   17.730    3.6651
   17.745    3.5492
   17.760    3.6124
   17.775    3.5282
   17.790    3.7704
   17.805    3.6967
   17.820    3.6440
   17.835    3.7283
   17.850    4.0653
   17.865    3.9389
   17.880    4.0021
   17.895    4.2443
   17.910    4.1706
   17.925    3.8441
   17.940    4.1706
   17.955    4.2865
   17.970    4.2549
   17.985    3.9810
   18.000    4.3391
   18.015    4.1074
   18.030    3.8441
   18.045    3.7493
   18.060    3.5703
   18.075    3.8125
   18.090    3.8547
   18.105    3.8863
   18.120    4.0758
   18.135    3.7388
   18.150    3.9494
   18.165    3.9389
   18.180    3.8336
   18.195    3.7283
   18.210    3.5703
   18.225    3.7704
   18.240    3.9073
   18.255    3.9389
   18.270    3.8441
   18.285    4.1496
   18.300    3.7177
   18.315    4.0126
   18.330    4.1496
   18.345    3.9810
   18.360    4.1390
   18.375    4.0864
   18.390    3.9810
   18.405    4.4128
   18.420    4.2022
   18.435    3.9389
   18.450    4.0021
   18.465    3.9705
   18.480    4.1601
   18.495    4.1285
   18.510    3.6546
   18.525    3.8652
   18.540    3.6756
   18.555    3.7072
   18.570    3.7599
   18.585    3.8547
   18.600    3.8757
   18.615    3.6756
   18.630    3.7177
   18.645    4.0653
   18.660    3.8231
   18.675    3.8231
   18.690    3.5176
   18.705    3.6335
   18.720    3.9705
   18.735    3.7283
   18.750    3.9389
   18.765    3.8652
   18.780    3.8757
   18.795    3.9916
   18.810    3.8020
   18.825    4.0337
   18.840    4.1496
   18.855    3.7915
   18.870    3.7809
   18.885    4.1180
   18.900    4.2022
   18.915    4.2970
   18.930    4.2759
   18.945    4.8763
   18.960    5.1290
   18.975    5.4134
   18.990    5.0869
   19.005    4.7077
   19.020    4.2970
   19.035    4.2443
   19.050    4.1601
   19.065    4.2233
   19.080    3.9810
   19.095    3.9600
   19.110    3.7493
   19.125    3.8441
   19.140    3.7493
   19.155    3.9284
   19.170    3.7915
   19.185    3.8863
   19.200    3.9179
   19.215    3.6651
   19.230    4.0337
   19.245    3.9916
   19.260    3.8863
   19.275    3.8336
   19.290    4.0126
   19.305    4.0021
   19.320    3.5598
   19.335    3.3175
   19.350    3.6019
   19.365    3.6019
   19.380    3.8336
   19.395    4.0021
   19.410    3.7388
   19.425    3.5703
   19.440    3.9810
   19.455    4.0232
   19.470    3.6230
   19.485    3.8336
   19.500    4.0653
   19.515    4.0232
   19.530    3.9284
   19.545    4.2127
   19.560    3.9810
   19.575    3.7809
   19.590    4.1074
   19.605    4.3391
   19.620    4.3181
   19.635    4.2654
   19.650    3.9179
   19.665    4.0442
   19.680    4.0337
   19.695    3.9284
   19.710    4.1917
   19.725    4.0758
   19.740    3.9494
   19.755    3.8020
   19.770    3.6335
   19.785    3.6546
   19.800    3.5492
   19.815    3.8652
   19.830    3.9494
   19.845    3.6124
   19.860    3.7388
   19.875    4.0126
   19.890    3.9284
   19.905    3.8441
   19.920    3.6335
   19.935    4.0442
   19.950    3.7493
   19.965    3.9600
   19.980    3.7809
   19.995    3.8863
   20.010    3.7809
   20.025    3.8757
   20.040    3.7388
   20.055    3.7072
   20.070    3.8547
   20.085    3.7493
   20.100    3.6019
   20.115    3.7493
   20.130    3.7915
   20.145    3.9389
   20.160    3.4966
   20.175    3.7809
   20.190    3.8547
   20.205    3.7915
   20.220    3.5387
   20.235    3.8336
   20.250    3.8441
   20.265    4.1180
   20.280    4.1601
   20.295    4.5919
   20.310    4.3286
   20.325    4.4655
   20.340    4.6972
   20.355    5.0026
   20.370    5.3291
   20.385    5.3186
   20.400    5.0448
   20.415    5.1817
   20.430    5.2027
   20.445    4.9078
   20.460    4.3497
   20.475    4.2443
   20.490    4.3075
   20.505    4.1285
   20.520    3.8968
   20.535    4.2654
   20.550    4.0232
   20.565    3.5703
   20.580    4.0548
   20.595    3.9073
   20.610    3.7072
   20.625    3.8336
   20.640    3.8547
   20.655    3.8336
   20.670    3.9389
   20.685    4.2865
   20.700    3.8547
   20.715    4.0548
   20.730    3.9600
   20.745    3.6230
   20.760    3.8652
   20.775    3.6335
   20.790    4.0232
   20.805    3.8757
   20.820    3.6335
   20.835    3.7388
   20.850    4.1601
   20.865    3.8336
   20.880    3.7177
   20.895    3.7072
   20.910    3.6335
   20.925    3.5176
   20.940    3.6230
   20.955    3.6967
   20.970    3.6756
   20.985    4.1180
   21.000    3.7493
   21.015    3.9284
   21.030    3.8757
   21.045    3.9073
   21.060    3.6440
   21.075    3.8968
   21.090    3.9600
   21.105    3.7177
   21.120    3.7809
   21.135    3.5914
   21.150    3.8547
   21.165    3.9916
   21.180    3.8863
   21.195    3.7599
   21.210    3.7177
   21.225    3.8336
   21.240    3.9494
   21.255    3.6651
   21.270    3.6124
   21.285    3.6862
   21.300    3.7809
   21.315    3.9179
   21.330    3.7809
   21.345    3.5492
   21.360    3.9284
   21.375    3.4439
   21.390    3.3597
   21.405    3.7704
   21.420    3.9073
   21.435    3.9179
   21.450    3.6124
   21.465    3.7915
   21.480    3.9179
   21.495    3.9179
   21.510    3.8757
   21.525    4.0021
   21.540    3.8968
   21.555    3.7493
   21.570    3.7072
   21.585    3.9916
   21.600    3.6756
   21.615    3.6756
   21.630    3.8020
   21.645    3.8968
   21.660    4.1496
   21.675    3.9389
   21.690    4.0442
   21.705    4.1390
   21.720    3.7809
   21.735    3.9705
   21.750    4.1811
   21.765    3.8547
   21.780    3.8231
   21.795    4.2233
   21.810    4.3075
   21.825    4.4971
   21.840    4.2022
   21.855    4.2970
   21.870    4.1811
   21.885    4.6130
   21.900    4.4444
   21.915    4.4655
   21.930    4.3497
   21.945    4.3707
   21.960    4.2759
   21.975    4.2022
   21.990    4.1390
   22.005    3.8125
   22.020    3.8547
   22.035    4.1917
   22.050    3.8757
   22.065    3.9179
   22.080    3.8441
   22.095    3.6230
   22.110    4.0864
   22.125    4.1811
   22.140    3.9600
   22.155    4.3707
   22.170    4.0969
   22.185    4.3391
   22.200    4.0337
   22.215    4.3181
   22.230    4.4339
   22.245    4.1601
   22.260    4.3286
   22.275    4.3602
   22.290    4.2127
   22.305    3.8020
   22.320    3.6651
   22.335    3.8020
   22.350    4.1601
   22.365    3.9179
   22.380    3.7809
   22.395    3.8757
   22.410    4.0337
   22.425    4.1706
   22.440    4.0021
   22.455    4.1496
   22.470    4.5182
   22.485    4.7709
   22.500    4.9289
   22.515    4.8341
   22.530    5.1501
   22.545    5.1395
   22.560    5.2238
   22.575    5.6135
   22.590    5.2870
   22.605    5.3081
   22.620    5.5608
   22.635    4.9605
   22.650    5.0448
   22.665    4.5708
   22.680    4.8657
   22.695    4.5814
   22.710    4.2233
   22.725    4.2022
   22.740    4.2443
   22.755    4.1917
   22.770    4.1601
   22.785    4.2549
   22.800    4.3391
   22.815    4.4760
   22.830    4.5708
   22.845    4.7077
   22.860    4.7604
   22.875    5.2238
   22.890    5.0026
   22.905    5.2765
   22.920    5.8662
   22.935    5.4344
   22.950    5.0974
   22.965    5.3712
   22.980    5.3712
   22.995    4.9921
   23.010    4.9078
   23.025    4.5287
   23.040    4.4550
   23.055    4.5287
   23.070    4.6024
   23.085    4.4023
   23.100    4.3286
   23.115    4.5182
   23.130    4.4971
   23.145    4.5182
   23.160    4.4023
   23.175    4.1917
   23.190    4.4655
   23.205    4.4128
   23.220    3.8863
   23.235    4.3286
   23.250    4.2865
   23.265    4.1811
   23.280    4.3602
   23.295    4.3391
   23.310    4.0864
   23.325    4.1074
   23.340    4.0548
   23.355    3.9179
   23.370    4.0337
   23.385    3.9916
   23.400    3.7809
   23.415    3.7915
   23.430    3.7283
   23.445    3.8441
   23.460    3.7177
   23.475    4.0021
   23.490    4.0653
   23.505    3.8547
   23.520    3.6967
   23.535    3.9494
   23.550    3.9916
   23.565    3.9600
   23.580    3.9284
   23.595    4.0021
   23.610    4.0442
   23.625    4.1917
   23.640    3.9600
   23.655    3.7072
   23.670    3.9705
   23.685    3.9494
   23.700    3.7704
   23.715    3.6651
   23.730    3.4755
   23.745    3.8547
   23.760    3.7915
   23.775    3.6862
   23.790    3.6546
   23.805    4.0232
   23.820    4.0969
   23.835    4.0337
   23.850    4.0442
   23.865    4.0442
   23.880    4.0864
   23.895    4.0969
   23.910    4.1917
   23.925    4.2865
   23.940    4.1074
   23.955    4.1811
   23.970    3.9916
   23.985    4.3918
   24.000    3.9705
   24.015    4.0442
   24.030    4.3075
   24.045    4.1390
   24.060    3.8968
   24.075    3.9916
   24.090    3.5703
   24.105    3.7283
   24.120    3.4860
   24.135    3.7283
   24.150    3.9389
   24.165    3.9389
   24.180    3.8968
   24.195    3.7177
   24.210    3.8757
   24.225    3.7599
   24.240    3.6440
   24.255    3.6967
   24.270    3.7493
   24.285    3.7915
   24.300    3.8336
   24.315    3.7388
   24.330    3.6967
   24.345    3.5387
   24.360    3.6124
   24.375    3.8547
   24.390    3.6967
   24.405    3.5282
   24.420    3.5703
   24.435    3.7809
   24.450    4.0232
   24.465    3.8652
   24.480    4.0126
   24.495    3.6967
   24.510    3.6335
   24.525    3.8231
   24.540    4.2970
   24.555    4.1285
   24.570    3.9494
   24.585    4.0021
   24.600    3.8125
   24.615    3.5703
   24.630    3.6862
   24.645    3.8336
   24.660    4.0021
   24.675    3.8968
   24.690    3.8020
   24.705    3.8336
   24.720    3.9284
   24.735    3.9073
   24.750    3.8020
   24.765    3.5071
   24.780    3.5282
   24.795    3.5387
   24.810    3.7915
   24.825    3.7072
   24.840    3.6335
   24.855    3.7177
   24.870    3.9284
   24.885    3.8441
   24.900    3.7072
   24.915    3.6862
   24.930    3.6862
   24.945    3.9600
   24.960    4.1074
   24.975    3.8968
   24.990    3.5176
   25.005    3.7283
   25.020    3.6019
   25.035    3.6019
   25.050    3.8336
   25.065    3.9494
   25.080    3.6651
   25.095    3.8652
   25.110    3.7493
   25.125    3.7704
   25.140    3.8336
   25.155    3.8020
   25.170    3.9916
   25.185    3.8863
   25.200    3.6230
   25.215    3.7283
   25.230    3.6546
   25.245    3.8231
   25.260    4.3286
   25.275    3.8231
   25.290    3.7388
   25.305    3.8547
   25.320    3.8231
   25.335    3.7915
   25.350    3.5808
   25.365    3.7072
   25.380    3.7809
   25.395    3.8336
   25.410    3.5071
   25.425    3.6546
   25.440    3.7283
   25.455    3.6546
   25.470    3.6651
   25.485    3.4966
   25.500    3.5176
   25.515    3.6546
   25.530    3.8863
   25.545    3.8757
   25.560    3.8863
   25.575    3.6967
   25.590    3.6651
   25.605    3.9284
   25.620    3.8231
   25.635    3.6756
   25.650    3.7704
   25.665    3.8547
   25.680    3.7493
   25.695    3.8652
   25.710    3.6440
   25.725    4.1601
   25.740    4.0126
   25.755    4.3181
   25.770    4.1496
   25.785    4.3602
   25.800    4.6867
   25.815    4.7077
   25.830    4.6130
   25.845    4.7920
   25.860    4.7604
   25.875    4.8131
   25.890    4.7288
   25.905    4.4971
   25.920    4.5814
   25.935    4.0653
   25.950    3.7704
   25.965    4.0864
   25.980    4.0548
   25.995    4.1811
   26.010    3.7809
   26.025    3.7915
   26.040    4.0969
   26.055    3.8020
   26.070    3.7915
   26.085    3.7177
   26.100    3.7704
   26.115    3.7493
   26.130    3.6546
   26.145    3.6862
   26.160    3.5808
   26.175    3.9916
   26.190    3.9073
   26.205    3.9705
   26.220    3.7809
   26.235    3.5914
   26.250    3.8020
   26.265    3.8968
   26.280    3.5914
   26.295    3.5492
   26.310    3.7283
   26.325    3.8125
   26.340    3.6124
   26.355    3.7388
   26.370    3.7493
   26.385    3.7072
   26.400    3.5914
   26.415    3.8441
   26.430    3.7493
   26.445    3.7599
   26.460    3.9179
   26.475    3.7177
   26.490    3.8020
   26.505    4.0232
   26.520    3.7283
   26.535    3.8231
   26.550    3.8441
   26.565    3.6440
   26.580    3.6862
   26.595    3.7072
   26.610    3.5808
   26.625    3.4966
   26.640    3.6967
   26.655    3.5492
   26.670    3.4650
   26.685    3.4018
   26.700    3.4123
   26.715    3.4439
   26.730    3.5387
   26.745    3.6124
   26.760    3.8020
   26.775    3.6440
   26.790    3.4123
   26.805    3.6862
   26.820    3.5914
   26.835    3.6967
   26.850    3.2965
   26.865    3.5282
   26.880    3.6124
   26.895    3.9389
   26.910    3.8757
   26.925    3.8125
   26.940    3.7388
   26.955    3.9284
   26.970    3.5282
   26.985    3.9284
   27.000    3.9073
   27.015    3.9179
   27.030    4.0337
   27.045    4.0232
   27.060    4.0021
   27.075    3.8020
   27.090    3.6124
   27.105    3.9073
   27.120    3.8968
   27.135    3.9073
   27.150    3.9389
   27.165    3.8231
   27.180    3.6019
   27.195    3.3070
   27.210    3.2859
   27.225    3.2859
   27.240    3.4018
   27.255    3.5914
   27.270    3.6967
   27.285    3.4229
   27.300    3.6756
   27.315    3.5176
   27.330    3.8020
   27.345    3.6651
   27.360    3.7177
   27.375    3.5808
   27.390    3.3913
   27.405    3.4439
   27.420    3.2438
   27.435    3.5492
   27.450    3.3702
   27.465    3.2333
   27.480    3.5598
   27.495    3.4650
   27.510    3.4966
   27.525    3.6862
   27.540    3.5176
   27.555    3.4966
   27.570    3.6756
   27.585    3.8652
   27.600    3.5492
   27.615    3.4860
   27.630    3.7704
   27.645    3.5598
   27.660    3.6756
   27.675    3.6019
   27.690    3.8863
   27.705    3.7388
   27.720    3.7072
   27.735    3.6546
   27.750    3.9389
   27.765    3.4544
   27.780    3.4966
   27.795    3.7809
   27.810    3.7704
   27.825    3.7599
   27.840    3.7072
   27.855    3.4650
   27.870    3.7493
   27.885    3.8336
   27.900    3.8757
   27.915    4.2233
   27.930    3.8968
   27.945    4.4128
   27.960    4.2233
   27.975    4.5076
   27.990    4.3707
   28.005    4.4339
   28.020    4.1601
   28.035    4.1074
   28.050    3.9916
   28.065    4.1285
   28.080    4.3707
   28.095    4.2127
   28.110    4.1285
   28.125    3.8863
   28.140    3.8652
   28.155    3.8968
   28.170    4.1180
   28.185    4.0653
   28.200    3.8125
   28.215    3.9284
   28.230    3.7809
   28.245    4.0232
   28.260    3.8231
   28.275    3.9073
   28.290    3.7388
   28.305    3.6967
   28.320    3.6019
   28.335    3.5176
   28.350    3.4650
   28.365    3.5387
   28.380    3.7072
   28.395    3.8757
   28.410    3.8547
   28.425    4.0548
   28.440    3.9705
   28.455    3.8757
   28.470    3.8968
   28.485    3.9494
   28.500    4.0653
   28.515    3.7493
   28.530    4.1811
   28.545    4.0758
   28.560    3.6546
   28.575    3.6440
   28.590    3.7915
   28.605    3.7388
   28.620    3.6335
   28.635    3.5492
   28.650    3.4018
   28.665    3.3913
   28.680    3.4650
   28.695    3.5492
   28.710    3.2859
   28.725    3.1174
   28.740    3.6124
   28.755    3.5808
   28.770    3.4123
   28.785    3.3913
   28.800    3.4544
   28.815    3.3702
   28.830    3.5282
   28.845    3.8020
   28.860    3.7072
   28.875    3.7915
   28.890    3.6124
   28.905    3.7809
   28.920    3.8125
   28.935    4.0758
   28.950    4.3181
   28.965    4.1811
   28.980    4.2970
   28.995    4.3602
   29.010    4.2233
   29.025    4.0442
   29.040    3.7809
   29.055    3.8231
   29.070    3.7599
   29.085    3.6440
   29.100    3.4544
   29.115    3.7599
   29.130    3.5176
   29.145    3.3807
   29.160    3.3702
   29.175    3.6546
   29.190    3.5071
   29.205    3.6546
   29.220    3.5808
   29.235    3.6546
   29.250    3.5282
   29.265    3.6546
   29.280    3.7072
   29.295    3.6862
   29.310    3.3807
   29.325    3.4229
   29.340    3.6335
   29.355    3.8020
   29.370    3.7915
   29.385    3.7388
   29.400    3.7599
   29.415    3.4860
   29.430    3.5282
   29.445    3.7915
   29.460    3.6230
   29.475    3.4966
   29.490    3.8863
   29.505    3.7599
   29.520    3.3913
   29.535    3.5071
   29.550    3.6440
   29.565    3.4229
   29.580    3.3702
   29.595    3.4018
   29.610    3.2965
   29.625    3.2333
   29.640    3.4229
   29.655    3.3175
   29.670    3.2227
   29.685    3.3913
   29.700    3.4123
   29.715    3.4650
   29.730    3.4860
   29.745    3.3807
   29.760    3.5071
   29.775    3.4544
   29.790    3.3070
   29.805    3.7283
   29.820    3.7809
   29.835    3.5703
   29.850    3.5282
   29.865    3.4123
   29.880    3.3913
   29.895    3.5914
   29.910    3.5071
   29.925    3.5703
   29.940    3.4966
   29.955    3.2543
   29.970    3.3070
   29.985    3.1385
   30.000    3.3597
   30.015    3.3491
   30.030    3.2543
   30.045    3.4966
   30.060    3.5176
   30.075    3.4229
   30.090    3.2227
   30.105    3.3491
   30.120    3.4544
   30.135    3.6124
   30.150    3.4650
   30.165    3.4439
   30.180    3.3175
   30.195    3.2122
   30.210    3.2649
   30.225    3.4860
   30.240    3.3070
   30.255    3.5914
   30.270    3.5176
   30.285    3.1912
   30.300    3.3070
   30.315    3.4018
   30.330    3.1912
   30.345    3.3491
   30.360    3.1069
   30.375    3.3807
   30.390    3.6546
   30.405    3.4860
   30.420    3.3597
   30.435    3.6967
   30.450    3.4650
   30.465    3.0648
   30.480    3.2438
   30.495    3.3175
   30.510    3.3281
   30.525    3.5598
   30.540    3.4966
   30.555    3.4650
   30.570    3.5071
   30.585    3.2649
   30.600    3.1490
   30.615    3.3281
   30.630    3.5914
   30.645    3.6440
   30.660    3.8336
   30.675    3.4229
   30.690    3.3597
   30.705    3.5071
   30.720    3.4650
   30.735    3.3491
   30.750    3.2859
   30.765    3.5387
   30.780    3.4860
   30.795    3.3281
   30.810    3.0858
   30.825    3.3913
   30.840    3.4544
   30.855    3.2438
   30.870    3.3070
   30.885    3.3913
   30.900    3.1701
   30.915    3.2649
   30.930    3.4018
   30.945    3.1490
   30.960    3.3807
   30.975    3.3070
   30.990    3.1280
   31.005    3.5282
   31.020    3.4544
   31.035    3.3175
   31.050    3.2543
   31.065    3.3807
   31.080    3.0648
   31.095    3.2017
   31.110    3.5598
   31.125    3.3491
   31.140    3.3597
   31.155    3.3175
   31.170    3.0858
   31.185    2.8752
   31.200    2.9384
   31.215    3.0332
   31.230    3.0226
   31.245    3.2227
   31.260    3.5071
   31.275    3.4229
   31.290    3.3386
   31.305    3.1912
   31.320    3.4334
   31.335    3.1806
   31.350    3.3281
   31.365    3.8441
   31.380    3.8336
   31.395    3.4123
   31.410    3.4229
   31.425    3.3175
   31.440    3.2754
   31.455    3.5703
   31.470    3.4229
   31.485    3.0753
   31.500    3.0964
   31.515    3.2333
   31.530    3.1596
   31.545    3.2333
   31.560    3.2859
   31.575    3.2543
   31.590    3.3702
   31.605    3.2438
   31.620    3.3386
   31.635    3.2649
   31.650    3.5492
   31.665    3.1385
   31.680    3.2017
   31.695    3.3913
   31.710    3.1912
   31.725    3.3597
   31.740    3.6756
   31.755    3.6440
   31.770    3.6862
   31.785    3.6756
   31.800    3.5598
   31.815    3.6230
   31.830    3.6019
   31.845    3.5176
   31.860    3.5176
   31.875    3.4123
   31.890    3.2859
   31.905    3.4123
   31.920    3.3386
   31.935    3.4439
   31.950    3.6019
   31.965    3.5071
   31.980    3.5071
   31.995    4.0864
   32.010    4.4444
   32.025    4.5182
   32.040    4.2443
   32.055    4.7920
   32.070    4.7288
   32.085    4.7920
   32.100    4.9816
   32.115    4.6024
   32.130    4.9184
   32.145    4.2233
   32.160    4.1496
   32.175    3.9179
   32.190    3.7809
   32.205    3.6651
   32.220    3.4229
   32.235    3.2965
   32.250    3.2649
   32.265    2.9068
   32.280    2.9595
   32.295    3.3175
   32.310    3.2227
   32.325    2.8436
   32.340    3.3070
   32.355    3.5492
   32.370    3.4018
   32.385    3.0648
   32.400    3.4334
   32.415    3.3281
   32.430    3.1385
   32.445    3.0753
   32.460    3.2438
   32.475    3.3913
   32.490    3.2122
   32.505    3.1596
   32.520    3.3281
   32.535    3.1701
   32.550    3.1912
   32.565    3.1596
   32.580    3.3702
   32.595    3.1490
   32.610    3.0542
   32.625    3.0437
   32.640    3.5071
   32.655    3.2543
   32.670    2.9910
   32.685    3.0016
   32.700    3.2965
   32.715    3.1490
   32.730    3.1596
   32.745    3.4334
   32.760    3.3175
   32.775    3.2649
   32.790    2.9068
   32.805    3.2649
   32.820    3.2122
   32.835    3.3913
   32.850    3.4860
   32.865    3.4334
   32.880    3.0753
   32.895    3.0648
   32.910    3.0648
   32.925    3.3702
   32.940    3.3597
   32.955    3.2438
   32.970    3.1912
   32.985    3.2122
   33.000    3.2859
   33.015    3.3491
   33.030    3.2438
   33.045    3.2754
   33.060    3.2017
   33.075    3.2965
   33.090    3.3175
   33.105    3.0858
   33.120    3.0858
   33.135    3.0542
   33.150    3.1596
   33.165    2.8541
   33.180    2.9700
   33.195    3.2122
   33.210    2.8331
   33.225    2.7909
   33.240    3.2649
   33.255    3.1912
   33.270    3.1174
   33.285    2.8541
   33.300    3.0753
   33.315    3.3702
   33.330    3.0332
   33.345    3.1490
   33.360    3.2438
   33.375    3.2122
   33.390    3.0226
   33.405    3.0121
   33.420    3.1174
   33.435    3.1701
   33.450    2.8331
   33.465    3.1490
   33.480    2.9173
   33.495    3.0016
   33.510    3.0753
   33.525    3.3175
   33.540    3.4018
   33.555    3.2333
   33.570    3.4544
   33.585    3.3702
   33.600    3.4018
   33.615    3.2965
   33.630    3.0016
   33.645    3.0648
   33.660    3.0121
   33.675    3.0226
   33.690    3.2122
   33.705    3.5282
   33.720    3.3913
   33.735    3.5914
   33.750    3.5598
   33.765    3.4755
   33.780    3.7599
   33.795    3.6862
   33.810    3.9916
   33.825    4.0126
   33.840    4.1496
   33.855    4.0548
   33.870    3.9073
   33.885    3.6230
   33.900    3.6756
   33.915    3.4966
   33.930    3.3807
   33.945    3.3913
   33.960    3.5071
   33.975    3.5808
   33.990    3.5071
   34.005    3.1912
   34.020    3.1385
   34.035    3.0858
   34.050    3.3070
   34.065    3.2965
   34.080    3.0542
   34.095    3.0437
   34.110    3.1490
   34.125    3.2227
   34.140    3.3386
   34.155    3.2122
   34.170    3.3281
   34.185    3.0121
   34.200    3.2965
   34.215    3.2122
   34.230    3.1069
   34.245    3.0437
   34.260    3.0437
   34.275    2.9279
   34.290    3.0542
   34.305    3.2438
   34.320    2.8225
   34.335    2.8963
   34.350    2.9384
   34.365    3.2122
   34.380    3.1701
   34.395    3.2649
   34.410    3.0648
   34.425    3.0753
   34.440    3.2965
   34.455    3.0226
   34.470    3.0753
   34.485    3.1385
   34.500    3.1912
   34.515    3.0332
   34.530    2.8225
   34.545    2.9068
   34.560    3.0648
   34.575    3.0437
   34.590    3.1912
   34.605    3.0648
   34.620    3.2122
   34.635    3.1385
   34.650    2.9279
   34.665    2.9068
   34.680    3.2438
   34.695    3.2227
   34.710    3.3807
   34.725    3.1806
   34.740    3.3281
   34.755    3.2122
   34.770    3.0226
   34.785    3.0964
   34.800    3.0121
   34.815    3.0542
   34.830    3.1280
   34.845    3.1385
   34.860    3.2017
   34.875    3.3175
   34.890    3.0437
   34.905    3.0858
   34.920    3.2122
   34.935    3.1596
   34.950    3.0437
   34.965    3.2227
   34.980    3.2859
   34.995    3.1385
   35.010    2.9489
   35.025    2.8647
   35.040    3.0332
   35.055    2.9279
   35.070    3.0437
   35.085    2.9910
   35.100    2.8857
   35.115    2.8436
   35.130    3.0858
   35.145    3.0753
   35.160    2.9910
   35.175    3.1912
   35.190    2.8752
   35.205    3.2227
   35.220    3.1912
   35.235    3.0964
   35.250    3.1174
   35.265    3.1069
   35.280    2.9279
   35.295    3.0753
   35.310    2.8857
   35.325    2.9489
   35.340    3.0226
   35.355    3.1806
   35.370    3.1174
   35.385    3.0542
   35.400    3.0437
   35.415    3.1069
   35.430    3.0542
   35.445    2.8225
   35.460    3.1069
   35.475    3.3491
   35.490    3.1596
   35.505    3.2543
   35.520    3.2543
   35.535    2.9068
   35.550    2.7278
   35.565    2.7488
   35.580    3.0542
   35.595    2.9489
   35.610    2.8541
   35.625    2.6330
   35.640    2.9489
   35.655    3.0016
   35.670    3.2965
   35.685    3.0964
   35.700    3.2543
   35.715    3.0858
   35.730    3.0542
   35.745    3.0753
   35.760    3.0332
   35.775    2.9910
   35.790    3.3070
   35.805    3.1490
   35.820    2.9384
   35.835    2.7804
   35.850    2.9384
   35.865    3.0753
   35.880    3.0437
   35.895    3.0753
   35.910    2.8436
   35.925    3.0226
   35.940    2.9279
   35.955    3.0016
   35.970    2.9595
   35.985    3.2438
   36.000    3.0964
   36.015    3.1174
   36.030    3.0542
   36.045    3.0016
   36.060    3.0332
   36.075    3.0226
   36.090    3.1490
   36.105    2.9173
   36.120    2.9805
   36.135    3.2227
   36.150    3.4229
   36.165    2.8015
   36.180    2.7488
   36.195    2.9595
   36.210    2.8963
   36.225    3.0648
   36.240    3.1385
   36.255    3.1912
   36.270    2.9384
   36.285    3.1912
   36.300    2.9489
   36.315    2.9384
   36.330    3.2333
   36.345    2.9173
   36.360    3.0542
   36.375    2.9384
   36.390    3.0226
   36.405    3.0226
   36.420    3.1596
   36.435    3.2543
   36.450    2.8436
   36.465    2.9910
   36.480    3.0332
   36.495    2.9595
   36.510    2.8752
   36.525    2.9489
   36.540    3.1806
   36.555    3.1174
   36.570    2.8541
   36.585    2.8963
   36.600    2.9384
   36.615    3.1912
   36.630    2.9173
   36.645    2.9173
   36.660    3.0121
   36.675    3.3386
   36.690    3.3702
   36.705    3.0964
   36.720    3.0226
   36.735    2.9489
   36.750    2.9489
   36.765    2.8647
   36.780    3.0226
   36.795    2.9279
   36.810    3.2859
   36.825    2.8541
   36.840    2.9700
   36.855    3.1596
   36.870    3.1490
   36.885    3.0121
   36.900    3.1174
   36.915    3.1490
   36.930    2.8436
   36.945    2.8857
   36.960    3.0016
   36.975    2.7593
   36.990    3.1596
   37.005    3.2122
   37.020    3.2543
   37.035    3.1912
   37.050    3.0753
   37.065    3.4018
   37.080    3.0121
   37.095    2.9805
   37.110    3.3807
   37.125    3.2227
   37.140    3.0226
   37.155    3.0964
   37.170    3.0858
   37.185    3.2965
   37.200    3.0858
   37.215    3.1490
   37.230    3.1596
   37.245    2.8436
   37.260    3.2438
   37.275    2.7383
   37.290    3.1806
   37.305    3.0016
   37.320    3.0964
   37.335    3.0121
   37.350    3.0226
   37.365    2.6962
   37.380    2.8752
   37.395    2.8752
   37.410    3.0964
   37.425    3.0016
   37.440    3.1069
   37.455    2.8963
   37.470    2.9595
   37.485    2.7383
   37.500    3.1280
   37.515    2.9279
   37.530    3.2122
   37.545    3.1490
   37.560    3.4334
   37.575    2.7804
   37.590    3.0121
   37.605    3.0437
   37.620    2.9805
   37.635    2.8752
   37.650    2.9173
   37.665    2.9910
   37.680    3.1069
   37.695    2.8436
   37.710    2.8647
   37.725    2.9489
   37.740    3.0437
   37.755    2.9595
   37.770    3.0332
   37.785    3.2649
   37.800    3.1912
   37.815    3.1280
   37.830    2.7699
   37.845    2.9910
   37.860    3.1596
   37.875    3.0542
   37.890    2.9910
   37.905    2.8541
   37.920    3.1701
   37.935    3.0858
   37.950    3.1280
   37.965    2.8963
   37.980    3.1280
   37.995    2.9595
   38.010    3.0858
   38.025    2.9700
   38.040    2.8541
   38.055    2.9384
   38.070    3.0121
   38.085    2.8436
   38.100    2.8857
   38.115    2.6962
   38.130    2.8963
   38.145    3.1069
   38.160    2.8857
   38.175    2.8015
   38.190    3.0121
   38.205    3.0332
   38.220    2.7383
   38.235    2.9068
   38.250    2.9805
   38.265    2.8120
   38.280    3.1280
   38.295    2.9279
   38.310    2.6540
   38.325    2.7804
   38.340    3.1069
   38.355    3.0753
   38.370    3.1806
   38.385    2.9173
   38.400    2.8752
   38.415    3.0964
   38.430    3.0016
   38.445    2.9700
   38.460    2.8225
   38.475    3.0016
   38.490    3.0858
   38.505    3.1280
   38.520    3.1806
   38.535    3.1280
   38.550    3.3175
   38.565    3.3386
   38.580    3.1280
   38.595    3.2333
   38.610    3.0542
   38.625    2.9910
   38.640    2.8963
   38.655    3.2333
   38.670    3.2754
   38.685    2.7593
   38.700    2.8752
   38.715    2.9595
   38.730    2.9910
   38.745    2.8647
   38.760    2.9700
   38.775    2.9489
   38.790    2.8647
   38.805    2.7383
   38.820    2.8963
   38.835    3.0437
   38.850    2.8647
   38.865    2.7278
   38.880    2.6962
   38.895    2.6119
   38.910    2.6330
   38.925    2.8436
   38.940    2.8331
   38.955    2.7909
   38.970    2.9910
   38.985    2.8120
   39.000    3.1280
   39.015    2.8120
   39.030    3.1596
   39.045    2.9279
   39.060    2.9595
   39.075    2.9068
   39.090    3.0437
   39.105    2.6646
   39.120    2.8963
   39.135    2.9279
   39.150    2.8647
   39.165    2.9910
   39.180    2.8857
   39.195    2.7804
   39.210    2.8857
   39.225    3.0648
   39.240    3.0332
   39.255    2.8015
   39.270    2.8541
   39.285    2.8963
   39.300    2.9279
   39.315    3.0648
   39.330    3.0226
   39.345    3.3491
   39.360    2.8225
   39.375    3.0016
   39.390    2.8331
   39.405    3.0226
   39.420    2.8436
   39.435    2.7488
   39.450    3.1174
   39.465    2.9700
   39.480    2.9068
   39.495    2.8436
   39.510    2.9595
   39.525    2.9489
   39.540    2.6646
   39.555    2.8963
   39.570    2.6540
   39.585    2.7804
   39.600    2.9805
   39.615    2.9279
   39.630    3.0542
   39.645    3.0437
   39.660    2.7699
   39.675    3.0648
   39.690    3.1280
   39.705    2.6856
   39.720    2.7067
   39.735    2.8225
   39.750    2.5803
   39.765    2.5908
   39.780    2.8120
   39.795    2.8225
   39.810    2.8120
   39.825    3.0121
   39.840    3.0753
   39.855    3.2017
   39.870    2.7172
   39.885    2.8857
   39.900    2.7909
   39.915    2.9595
   39.930    3.0753
   39.945    2.9173
   39.960    2.8120
   39.975    2.9173
   39.990    2.9805
