    1.500   21.6430
    1.515   22.0642
    1.530   21.2217
    1.545   20.3581
    1.560   21.0111
    1.575   19.9263
    1.590   19.5050
    1.605   18.4202
    1.620   18.1569
    1.635   17.9674
    1.650   18.1780
    1.665   18.1885
    1.680   16.6614
    1.695   16.4718
    1.710   16.5350
    1.725   16.1875
    1.740   15.3870
    1.755   14.8394
    1.770   15.1237
    1.785   15.3028
    1.800   14.5972
    1.815   13.9968
    1.830   13.7019
    1.845   13.4176
    1.860   13.5018
    1.875   13.3017
    1.890   12.8383
    1.905   12.7225
    1.920   12.6277
    1.935   12.5013
    1.950   12.4171
    1.965   11.7430
    1.980   11.6588
    1.995   11.3744
    2.010   11.5008
    2.025   11.1848
    2.040   10.3002
    2.055   10.7741
    2.070   11.0900
    2.085   10.4897
    2.100   10.3423
    2.115   10.1632
    2.130   10.5635
    2.145   10.2791
    2.160   10.1422
    2.175   10.0685
    2.190   10.3318
    2.205   10.1422
    2.220    9.5629
    2.235    9.2364
    2.250    9.6367
    2.265    9.3418
    2.280    9.4471
    2.295    9.3839
    2.310    9.0574
    2.325    9.3944
    2.340    8.8889
    2.355    8.9731
    2.370    8.6572
    2.385    8.6783
    2.400    8.7204
    2.415    8.6572
    2.430    8.5940
    2.445    8.5624
    2.460    7.8462
    2.475    7.9621
    2.490    8.4466
    2.505    8.6151
    2.520    8.6045
    2.535    8.8994
    2.550    8.4676
    2.565    8.0990
    2.580    8.4887
    2.595    8.0042
    2.610    8.1201
    2.625    8.5413
    2.640    8.0885
    2.655    8.5413
    2.670    8.6467
    2.685    8.2570
    2.700    8.2149
    2.715    8.7520
    2.730    8.5203
    2.745    8.8257
    2.760    8.8152
    2.775    9.0153
    2.790    9.1101
    2.805    9.2259
    2.820    9.1627
    2.835    9.7420
    2.850   10.1316
    2.865    9.9737
    2.880    9.5840
    2.895   10.3002
    2.910   10.8689
    2.925   10.9637
    2.940   11.0795
    2.955   10.8794
    2.970   11.4481
    2.985   12.2801
    3.000   12.3328
    3.015   12.7646
    3.030   13.4387
    3.045   13.2385
    3.060   13.7967
    3.075   14.5550
    3.090   14.7657
    3.105   15.9031
    3.120   16.1453
    3.135   17.2828
    3.150   17.8199
    3.165   19.1996
    3.180   19.6103
    3.195   20.9795
    3.210   22.0221
    3.225   22.6646
    3.240   23.8020
    3.255   25.3713
    3.270   26.6456
    3.285   29.0679
    3.300   30.4265
    3.315   32.7330
    3.330   34.9131
    3.345   37.3038
    3.360   40.5477
    3.375   43.3070
    3.390   46.3612
    3.405   50.4055
    3.420   53.3965
    3.435   54.8394
    3.450   56.3560
    3.465   59.1259
    3.480   58.2412
    3.495   56.5666
    3.510   54.2180
    3.525   50.1422
    3.540   45.9189
    3.555   40.4845
    3.570   37.3881
    3.585   34.8394
    3.600   32.3223
    3.615   30.7320
    3.630   29.8157
    3.645   29.3312
    3.660   28.7414
    3.675   28.6045
    3.690   28.7098
    3.705   29.6788
    3.720   30.3107
    3.735   32.5750
    3.750   33.3228
    3.765   35.0922
    3.780   36.9142
    3.795   39.1575
    3.810   43.0437
    3.825   47.0142
    3.840   52.4908
    3.855   59.5050
    3.870   66.1927
    3.885   69.0363
    3.900   68.0674
    3.915   59.4523
    3.930   48.0674
    3.945   33.8810
    3.960   25.9400
    3.975   23.1069
    3.990   22.2012
    4.005   22.1696
    4.020   21.8536
    4.035   21.3797
    4.050   21.1585
    4.065   21.1480
    4.080   20.8847
    4.095   19.6103
    4.110   19.5682
    4.125   18.5150
    4.140   18.0095
    4.155   17.9779
    4.170   16.8510
    4.185   16.4613
    4.200   16.6403
    4.215   15.6503
    4.230   14.5656
    4.245   14.4392
    4.260   13.9758
    4.275   12.7225
    4.290   12.4908
    4.305   12.4381
    4.320   11.6377
    4.335   10.9110
    4.350   10.2896
    4.365    9.6682
    4.380    9.1838
    4.395    9.0679
    4.410    9.0153
    4.425    8.4466
    4.440    8.4044
    4.455    8.2570
    4.470    7.8884
    4.485    7.8778
    4.500    7.2775
    4.515    6.9721
    4.530    6.6140
    4.545    6.3296
    4.560    6.0979
    4.575    6.0664
    4.590    5.6556
    4.605    5.8768
    4.620    5.8031
    4.635    5.7399
    4.650    5.5503
    4.665    5.4555
    4.680    5.0869
    4.695    5.0342
    4.710    4.8025
    4.725    4.8341
    4.740    5.2343
    4.755    4.8657
    4.770    4.5814
    4.785    4.6340
    4.800    4.5814
    4.815    4.4760
    4.830    4.4023
    4.845    4.4023
    4.860    4.3181
    4.875    4.3286
    4.890    4.3391
    4.905    4.5182
    4.920    4.6761
    4.935    4.0442
    4.950    3.8020
    4.965    4.1601
    4.980    4.2654
    4.995    4.2443
    5.010    4.1180
    5.025    4.1601
    5.040    4.0653
    5.055    4.0653
    5.070    4.2233
    5.085    4.1285
    5.100    3.9389
    5.115    4.1917
    5.130    4.3497
    5.145    4.2970
    5.160    4.0337
    5.175    4.0864
    5.190    4.8447
    5.205    4.8447
    5.220    4.4866
    5.235    4.4023
    5.250    4.9394
    5.265    5.0869
    5.280    5.0974
    5.295    4.6867
    5.310    4.8447
    5.325    5.6556
    5.340    5.6977
    5.355    5.7715
    5.370    6.0558
    5.385    6.5403
    5.400    6.8352
    5.415    7.0774
    5.430    8.0463
    5.445    8.6677
    5.460    9.8368
    5.475   11.4165
    5.490   12.6804
    5.505   13.8705
    5.520   13.2491
    5.535   12.0695
    5.550    9.7314
    5.565    6.6877
    5.580    4.7077
    5.595    3.9073
    5.610    3.7072
    5.625    3.9600
    5.640    3.4334
    5.655    3.3913
    5.670    3.3281
    5.685    3.3386
    5.700    3.2754
    5.715    3.4755
    5.730    3.2122
    5.745    3.3702
    5.760    3.4966
    5.775    3.3807
    5.790    3.2333
    5.805    3.1701
    5.820    3.4229
    5.835    3.0648
    5.850    3.3702
    5.865    3.0964
    5.880    3.3070
    5.895    3.2965
    5.910    3.3597
    5.925    3.1596
    5.940    3.0542
    5.955    3.3491
    5.970    3.5703
    5.985    3.4755
    6.000    3.3597
    6.015    3.4334
    6.030    3.2122
    6.045    3.2965
    6.060    3.4650
    6.075    3.4229
    6.090    3.2333
    6.105    3.1806
    6.120    3.2965
    6.135    3.5598
    6.150    3.1806
    6.165    3.0542
    6.180    3.2438
    6.195    3.0964
    6.210    2.9173
    6.225    3.1174
    6.240    3.1490
    6.255    3.2438
    6.270    3.0858
    6.285    3.2017
    6.300    3.2017
    6.315    3.2859
    6.330    3.1385
    6.345    3.0753
    6.360    3.0121
    6.375    3.2438
    6.390    3.4229
    6.405    3.4966
    6.420    3.5914
    6.435    3.2333
    6.450    3.4439
    6.465    3.4966
    6.480    3.1701
    6.495    3.2543
    6.510    3.5808
    6.525    3.6651
    6.540    3.6230
    6.555    3.5387
    6.570    3.7072
    6.585    3.7809
    6.600    3.7915
    6.615    3.7493
    6.630    3.6862
    6.645    3.6546
    6.660    4.4760
    6.675    4.5814
    6.690    4.6867
    6.705    4.6024
    6.720    4.7077
    6.735    5.4766
    6.750    5.7504
    6.765    5.6556
    6.780    5.9505
    6.795    5.8136
    6.810    5.5292
    6.825    5.0658
    6.840    5.4028
    6.855    5.3818
    6.870    6.0032
    6.885    6.2559
    6.900    6.8036
    6.915    6.8352
    6.930    6.6140
    6.945    7.5724
    6.960    7.6040
    6.975    7.9831
    6.990    8.0147
    7.005    7.5935
    7.020    7.3618
    7.035    6.8668
    7.050    6.6140
    7.065    5.7715
    7.080    5.4976
    7.095    5.1501
    7.110    5.0026
    7.125    4.9184
    7.140    4.3602
    7.155    4.3602
    7.170    4.0969
    7.185    4.0969
    7.200    4.0021
    7.215    3.7915
    7.230    3.3597
    7.245    3.8125
    7.260    3.6967
    7.275    3.7283
    7.290    3.5176
    7.305    3.7283
    7.320    3.4229
    7.335    3.3281
    7.350    3.7599
    7.365    3.4544
    7.380    3.4650
    7.395    3.6546
    7.410    3.4123
    7.425    3.3702
    7.440    3.5598
    7.455    3.5071
    7.470    3.4334
    7.485    3.5176
    7.500    3.4860
    7.515    3.4860
    7.530    3.2543
    7.545    3.5071
    7.560    3.8547
    7.575    3.4334
    7.590    3.8336
    7.605    3.5808
    7.620    3.8652
    7.635    3.7809
    7.650    3.5492
    7.665    4.0653
    7.680    4.1074
    7.695    4.1074
    7.710    4.4128
    7.725    4.6445
    7.740    4.8131
    7.755    4.6551
    7.770    4.9394
    7.785    5.5292
    7.800    5.8873
    7.815    5.8136
    7.830    5.2765
    7.845    5.0553
    7.860    4.6130
    7.875    4.0758
    7.890    3.7915
    7.905    3.6440
    7.920    3.8652
    7.935    3.9179
    7.950    3.9600
    7.965    4.1390
    7.980    4.1180
    7.995    3.8968
    8.010    4.0337
    8.025    4.1074
    8.040    3.8441
    8.055    3.8441
    8.070    3.8231
    8.085    4.0548
    8.100    4.0758
    8.115    4.1074
    8.130    3.9705
    8.145    4.1811
    8.160    4.3918
    8.175    4.2127
    8.190    4.2654
    8.205    4.3918
    8.220    3.8968
    8.235    4.0126
    8.250    4.3181
    8.265    4.0653
    8.280    4.1811
    8.295    4.2338
    8.310    3.9705
    8.325    4.0442
    8.340    4.0337
    8.355    4.1180
    8.370    4.2127
    8.385    4.2233
    8.400    4.6024
    8.415    4.1706
    8.430    3.8231
    8.445    4.1706
    8.460    4.2022
    8.475    4.0548
    8.490    4.1917
    8.505    4.0021
    8.520    4.0653
    8.535    4.0442
    8.550    4.2549
    8.565    3.8968
    8.580    3.6651
    8.595    3.8020
    8.610    3.8125
    8.625    3.6546
    8.640    3.8441
    8.655    4.0021
    8.670    3.5176
    8.685    3.6651
    8.700    3.9073
    8.715    3.7493
    8.730    3.7599
    8.745    3.6967
    8.760    3.7177
    8.775    3.4650
    8.790    3.4018
    8.805    3.4860
    8.820    3.3807
    8.835    3.1806
    8.850    3.5808
    8.865    3.4334
    8.880    3.3913
    8.895    3.3491
    8.910    3.2438
    8.925    3.0121
    8.940    3.0964
    8.955    3.0648
    8.970    3.1069
    8.985    3.2227
    9.000    3.0542
    9.015    3.2649
    9.030    3.3070
    9.045    2.9489
    9.060    3.0964
    9.075    3.0542
    9.090    3.2965
    9.105    3.0226
    9.120    3.2438
    9.135    3.3807
    9.150    3.2859
    9.165    3.1912
    9.180    3.0437
    9.195    2.8963
    9.210    2.8015
    9.225    2.8752
    9.240    2.9489
    9.255    3.1385
    9.270    3.1701
    9.285    3.3807
    9.300    3.2859
    9.315    3.2649
    9.330    2.9910
    9.345    2.9173
    9.360    3.1912
    9.375    3.4018
    9.390    3.2859
    9.405    3.2227
    9.420    3.3913
    9.435    3.6651
    9.450    3.7809
    9.465    3.8231
    9.480    4.1390
    9.495    4.5392
    9.510    4.8552
    9.525    5.8031
    9.540    6.5087
    9.555    6.9194
    9.570    6.8036
    9.585    7.0037
    9.600    6.1295
    9.615    5.2238
    9.630    4.3391
    9.645    3.4123
    9.660    3.0648
    9.675    3.0226
    9.690    3.0648
    9.705    3.0016
    9.720    2.7699
    9.735    3.0332
    9.750    2.9489
    9.765    2.8436
    9.780    3.0226
    9.795    3.1174
    9.810    2.8752
    9.825    2.8225
    9.840    2.8857
    9.855    2.6856
    9.870    2.9068
    9.885    2.6646
    9.900    2.8015
    9.915    2.5908
    9.930    2.5908
    9.945    2.9173
    9.960    3.0542
    9.975    3.0964
    9.990    2.8752
   10.005    2.8331
   10.020    2.7172
   10.035    2.9805
   10.050    3.2438
   10.065    3.0542
   10.080    2.8331
   10.095    2.8541
   10.110    3.0016
   10.125    3.1280
   10.140    2.7593
   10.155    2.8331
   10.170    2.9910
   10.185    2.8541
   10.200    3.4439
   10.215    3.6440
   10.230    3.2333
   10.245    3.1596
   10.260    3.4439
   10.275    3.3807
   10.290    3.5282
   10.305    4.0337
   10.320    4.0969
   10.335    4.3497
   10.350    4.6130
   10.365    4.2338
   10.380    3.8757
   10.395    3.6019
   10.410    3.1596
   10.425    3.3597
   10.440    3.4650
   10.455    3.0753
   10.470    3.2122
   10.485    3.3491
   10.500    3.0753
   10.515    3.1806
   10.530    2.9279
   10.545    3.1280
   10.560    2.9805
   10.575    2.9384
   10.590    3.0121
   10.605    3.0121
   10.620    2.9489
   10.635    2.8752
   10.650    3.0437
   10.665    2.9700
   10.680    2.8436
   10.695    2.9489
   10.710    2.8963
   10.725    2.7278
   10.740    2.6751
   10.755    2.9279
   10.770    2.8752
   10.785    2.4961
   10.800    2.7488
   10.815    2.6014
   10.830    2.8647
   10.845    2.7909
   10.860    2.9173
   10.875    2.6962
   10.890    2.5066
   10.905    2.6962
   10.920    2.7804
   10.935    2.9173
   10.950    3.0964
   10.965    3.2649
   10.980    3.2333
   10.995    3.2438
   11.010    3.4860
   11.025    3.8863
   11.040    4.0337
   11.055    3.8125
   11.070    3.9600
   11.085    3.8757
   11.100    3.5598
   11.115    3.4650
   11.130    3.0858
   11.145    2.6962
   11.160    3.0016
   11.175    2.8331
   11.190    2.9173
   11.205    2.9173
   11.220    2.8120
   11.235    2.9489
   11.250    2.8541
   11.265    2.9068
   11.280    2.6540
   11.295    2.6119
   11.310    2.7172
   11.325    2.6962
   11.340    3.0542
   11.355    2.8647
   11.370    2.8015
   11.385    2.9279
   11.400    2.5487
   11.415    2.9068
   11.430    2.7804
   11.445    2.7278
   11.460    2.5803
   11.475    2.7383
   11.490    2.8752
   11.505    2.9384
   11.520    2.9489
   11.535    2.7909
   11.550    2.8647
   11.565    2.9910
   11.580    2.6435
   11.595    3.1174
   11.610    3.1490
   11.625    3.3386
   11.640    3.2333
   11.655    3.3491
   11.670    3.4860
   11.685    3.4544
   11.700    3.7915
   11.715    4.0653
   11.730    4.0021
   11.745    4.3497
   11.760    4.1180
   11.775    3.7809
   11.790    3.3281
   11.805    2.9279
   11.820    2.9489
   11.835    2.9489
   11.850    2.8436
   11.865    2.8541
   11.880    2.8857
   11.895    2.8225
   11.910    2.5171
   11.925    2.7804
   11.940    2.8436
   11.955    3.1596
   11.970    2.9700
   11.985    3.1596
   12.000    2.8436
   12.015    2.8225
   12.030    2.6751
   12.045    2.8436
   12.060    2.8857
   12.075    2.8120
   12.090    2.6435
   12.105    3.0121
   12.120    2.8541
   12.135    2.8541
   12.150    2.9068
   12.165    2.9173
   12.180    2.8120
   12.195    2.7488
   12.210    2.7278
   12.225    2.9489
   12.240    2.9805
   12.255    2.8647
   12.270    3.1174
   12.285    2.9489
   12.300    3.0858
   12.315    2.9595
   12.330    3.0858
   12.345    3.4755
   12.360    3.1280
   12.375    2.9068
   12.390    3.1596
   12.405    3.0753
   12.420    3.0332
   12.435    2.8857
   12.450    3.2333
   12.465    2.8225
   12.480    3.0016
   12.495    2.9910
   12.510    2.8752
   12.525    2.8541
   12.540    2.9595
   12.555    3.0753
   12.570    2.5698
   12.585    2.7699
   12.600    2.8857
   12.615    2.9910
   12.630    2.6224
   12.645    2.9595
   12.660    3.0226
   12.675    3.1280
   12.690    3.1174
   12.705    2.8436
   12.720    2.8015
   12.735    2.7699
   12.750    2.9279
   12.765    2.8436
   12.780    2.8857
   12.795    2.9068
   12.810    2.8647
   12.825    2.9384
   12.840    3.0753
   12.855    3.1280
   12.870    2.6646
   12.885    2.9068
   12.900    3.0648
   12.915    3.5176
   12.930    3.4650
   12.945    3.4860
   12.960    3.9810
   12.975    3.8757
   12.990    3.8863
   13.005    3.8441
   13.020    3.6019
   13.035    3.0753
   13.050    2.9910
   13.065    2.7067
   13.080    2.7593
   13.095    2.6330
   13.110    2.8225
   13.125    2.7278
   13.140    2.7383
   13.155    2.7383
   13.170    2.6856
   13.185    2.9279
   13.200    2.9279
   13.215    2.9173
   13.230    2.9384
   13.245    2.7488
   13.260    2.6962
   13.275    2.8647
   13.290    2.7804
   13.305    2.9068
   13.320    2.8963
   13.335    2.7067
   13.350    2.9595
   13.365    2.9068
   13.380    2.5803
   13.395    2.6435
   13.410    2.8647
   13.425    2.9279
   13.440    2.7909
   13.455    3.0121
   13.470    2.8857
   13.485    3.0332
   13.500    3.0753
   13.515    2.8857
   13.530    2.9173
   13.545    3.2333
   13.560    3.1385
   13.575    3.0542
   13.590    3.2965
   13.605    3.2754
   13.620    2.6540
   13.635    2.9384
   13.650    2.7909
   13.665    2.7172
   13.680    2.8752
   13.695    2.8436
   13.710    2.4539
   13.725    2.7383
   13.740    2.7278
   13.755    2.5803
   13.770    2.6751
   13.785    2.8436
   13.800    2.9595
   13.815    2.8647
   13.830    2.7278
   13.845    2.8015
   13.860    2.6751
   13.875    2.7067
   13.890    2.6751
   13.905    2.4645
   13.920    2.6856
   13.935    2.9173
   13.950    2.9805
   13.965    2.8436
   13.980    2.8541
   13.995    2.9279
   14.010    2.8541
   14.025    3.1701
   14.040    2.9805
   14.055    3.2649
   14.070    2.8963
   14.085    3.1912
   14.100    3.2859
   14.115    3.3070
   14.130    3.4755
   14.145    3.6440
   14.160    3.0964
   14.175    2.8752
   14.190    2.8963
   14.205    2.9700
   14.220    2.7488
   14.235    2.8436
   14.250    2.7699
   14.265    2.7804
   14.280    2.5698
   14.295    2.4539
   14.310    2.4961
   14.325    2.4434
   14.340    2.6119
   14.355    2.7488
   14.370    2.8436
   14.385    2.7488
   14.400    2.9279
   14.415    2.7909
   14.430    2.9805
   14.445    2.8857
   14.460    2.5592
   14.475    2.6224
   14.490    2.8225
   14.505    2.8541
   14.520    2.6856
   14.535    2.6435
   14.550    2.9489
   14.565    2.5487
   14.580    2.4329
   14.595    2.6014
   14.610    2.6540
   14.625    2.5592
   14.640    2.5487
   14.655    2.6435
   14.670    2.6540
   14.685    2.7699
   14.700    2.6856
   14.715    2.8120
   14.730    2.6646
   14.745    2.3381
   14.760    2.6119
   14.775    2.6119
   14.790    2.6330
   14.805    2.6646
   14.820    2.6435
   14.835    2.7278
   14.850    2.4855
   14.865    2.5698
   14.880    2.7067
   14.895    2.5698
   14.910    2.4855
   14.925    2.5592
   14.940    2.4223
   14.955    2.7278
   14.970    2.7383
   14.985    2.6751
   15.000    2.5171
   15.015    2.6119
   15.030    2.5803
   15.045    2.9489
   15.060    2.6962
   15.075    3.1490
   15.090    2.7488
   15.105    2.7383
   15.120    2.7699
   15.135    2.7278
   15.150    2.7172
   15.165    3.0648
   15.180    2.9279
   15.195    2.8015
   15.210    2.7172
   15.225    2.6435
   15.240    2.6646
   15.255    2.7067
   15.270    2.6330
   15.285    2.6962
   15.300    2.5066
   15.315    2.5171
   15.330    2.6751
   15.345    2.8436
   15.360    2.7067
   15.375    2.4961
   15.390    2.8752
   15.405    2.8225
   15.420    2.7909
   15.435    2.6962
   15.450    2.7593
   15.465    3.1069
   15.480    2.6751
   15.495    2.6751
   15.510    2.8857
   15.525    2.6224
   15.540    2.5487
   15.555    2.5382
   15.570    2.6435
   15.585    2.6646
   15.600    2.9279
   15.615    2.8436
   15.630    2.4223
   15.645    2.2854
   15.660    2.6540
   15.675    2.7067
   15.690    2.8225
   15.705    2.6540
   15.720    2.6435
   15.735    2.9595
   15.750    2.8647
   15.765    3.0226
   15.780    2.9173
   15.795    2.8857
   15.810    2.7383
   15.825    3.0016
   15.840    2.7383
   15.855    2.9384
   15.870    2.8436
   15.885    2.9068
   15.900    2.9700
   15.915    2.6646
   15.930    2.7383
   15.945    2.7278
   15.960    2.7488
   15.975    2.7699
   15.990    2.8647
   16.005    2.8647
   16.020    2.9173
   16.035    2.8436
   16.050    2.6751
   16.065    3.0753
   16.080    2.9595
   16.095    2.6856
   16.110    2.6751
   16.125    2.9595
   16.140    2.9805
   16.155    2.8541
   16.170    2.9805
   16.185    2.9805
   16.200    2.4855
   16.215    2.7593
   16.230    2.8857
   16.245    2.7593
   16.260    2.8225
   16.275    2.7909
   16.290    2.7278
   16.305    2.7067
   16.320    2.7909
   16.335    2.6224
   16.350    2.5698
   16.365    2.8225
   16.380    2.7488
   16.395    2.6856
   16.410    2.8225
   16.425    2.6435
   16.440    2.4539
   16.455    2.6540
   16.470    2.4118
   16.485    2.5382
   16.500    2.7383
   16.515    2.6224
   16.530    2.7909
   16.545    2.9279
   16.560    2.7172
   16.575    2.6435
   16.590    2.7909
   16.605    3.0226
   16.620    3.2017
   16.635    2.9489
   16.650    2.8120
   16.665    3.0437
   16.680    3.1280
   16.695    3.1490
   16.710    2.8541
   16.725    2.8015
   16.740    3.0226
   16.755    2.8120
   16.770    2.6330
   16.785    2.6119
   16.800    2.4645
   16.815    2.5698
   16.830    2.6224
   16.845    2.6119
   16.860    2.6962
   16.875    2.4539
   16.890    2.4539
   16.905    2.7909
   16.920    2.6119
   16.935    2.7909
   16.950    2.6856
   16.965    2.4539
   16.980    2.6119
   16.995    2.5382
   17.010    3.0332
   17.025    2.9910
   17.040    3.1806
   17.055    3.2965
   17.070    3.1385
   17.085    3.2017
   17.100    3.4650
   17.115    3.3175
   17.130    3.4123
   17.145    3.2333
   17.160    2.5908
   17.175    2.6856
   17.190    2.6540
   17.205    2.8225
   17.220    2.7383
   17.235    2.8225
   17.250    2.6646
   17.265    2.7383
   17.280    2.5382
   17.295    2.4750
   17.310    2.7909
   17.325    2.5382
   17.340    2.5382
   17.355    2.5066
   17.370    2.7593
   17.385    2.7278
   17.400    2.7172
   17.415    2.7909
   17.430    2.8752
   17.445    2.7699
   17.460    2.6962
   17.475    2.9489
   17.490    2.9068
   17.505    3.0226
   17.520    2.6856
   17.535    2.9068
   17.550    2.9489
   17.565    3.1069
   17.580    2.9700
   17.595    2.8857
   17.610    2.9173
   17.625    2.9489
   17.640    2.8225
   17.655    2.6646
   17.670    2.6330
   17.685    2.7278
   17.700    2.8225
   17.715    2.6540
   17.730    2.8436
   17.745    2.8752
   17.760    2.7593
   17.775    2.6330
   17.790    2.6751
   17.805    2.5698
   17.820    2.7278
   17.835    2.9068
   17.850    2.9068
   17.865    2.8857
   17.880    2.8541
   17.895    2.6856
   17.910    2.7488
   17.925    2.9384
   17.940    3.0121
   17.955    2.8331
   17.970    2.8857
   17.985    2.7488
   18.000    2.7067
   18.015    2.6962
   18.030    3.0753
   18.045    2.9700
   18.060    2.6224
   18.075    2.6856
   18.090    2.7593
   18.105    2.8015
   18.120    2.7067
   18.135    2.7699
   18.150    2.8857
   18.165    2.7488
   18.180    2.5908
   18.195    2.8120
   18.210    2.8015
   18.225    2.6435
   18.240    2.8015
   18.255    2.8436
   18.270    2.8015
   18.285    2.6856
   18.300    2.7278
   18.315    2.9173
   18.330    2.6962
   18.345    2.7383
   18.360    2.6540
   18.375    2.9700
   18.390    2.9489
   18.405    3.2333
   18.420    3.0121
   18.435    2.7383
   18.450    2.7909
   18.465    2.8647
   18.480    2.8647
   18.495    2.6751
   18.510    2.5698
   18.525    2.7067
   18.540    3.1596
   18.555    2.9700
   18.570    2.7488
   18.585    2.9595
   18.600    2.8752
   18.615    2.8015
   18.630    2.6330
   18.645    2.6119
   18.660    2.7172
   18.675    2.6962
   18.690    2.7909
   18.705    2.6224
   18.720    2.8331
   18.735    2.9068
   18.750    2.4645
   18.765    2.6224
   18.780    2.8963
   18.795    3.1490
   18.810    2.9910
   18.825    2.5698
   18.840    2.4013
   18.855    2.6119
   18.870    2.9068
   18.885    2.9173
   18.900    2.7278
   18.915    2.8015
   18.930    2.7383
   18.945    2.5908
   18.960    2.7172
   18.975    3.0016
   18.990    2.7593
   19.005    2.9595
   19.020    3.0648
   19.035    2.7804
   19.050    2.6751
   19.065    2.8963
   19.080    2.9595
   19.095    2.5698
   19.110    2.8752
   19.125    2.7278
   19.140    2.8647
   19.155    2.7278
   19.170    2.9805
   19.185    2.9068
   19.200    2.9384
   19.215    2.9279
   19.230    2.7172
   19.245    2.8752
   19.260    2.7488
   19.275    2.6856
   19.290    2.7278
   19.305    2.6646
   19.320    2.7383
   19.335    2.7383
   19.350    2.7278
   19.365    2.7909
   19.380    2.9489
   19.395    2.5592
   19.410    2.4118
   19.425    2.6330
   19.440    2.9384
   19.455    2.9068
   19.470    3.1280
   19.485    2.7909
   19.500    2.5908
   19.515    2.5276
   19.530    2.8541
   19.545    2.7593
   19.560    3.0121
   19.575    2.9910
   19.590    3.0858
   19.605    2.9700
   19.620    3.0964
   19.635    3.3070
   19.650    3.1596
   19.665    3.0016
   19.680    3.1174
   19.695    2.9700
   19.710    2.9384
   19.725    2.9595
   19.740    2.7699
   19.755    2.7909
   19.770    2.9700
   19.785    2.8436
   19.800    2.8752
   19.815    2.7067
   19.830    2.8331
   19.845    3.0226
   19.860    3.0542
   19.875    2.7699
   19.890    2.8963
   19.905    3.1490
   19.920    2.9279
   19.935    2.8436
   19.950    2.8331
   19.965    2.8752
   19.980    2.7172
   19.995    2.8331
   20.010    2.8225
   20.025    2.6646
   20.040    2.9068
   20.055    3.2438
   20.070    3.1069
   20.085    3.0753
   20.100    3.0121
   20.115    3.0648
   20.130    2.7909
   20.145    2.8015
   20.160    2.8647
   20.175    3.1490
   20.190    3.0648
   20.205    2.8331
   20.220    2.8857
   20.235    3.0121
   20.250    2.9384
   20.265    3.0542
   20.280    2.9068
   20.295    3.1385
   20.310    2.9595
   20.325    3.0964
   20.340    3.0753
   20.355    2.9805
   20.370    3.1174
   20.385    3.3491
   20.400    3.4018
   20.415    3.5387
   20.430    3.4755
   20.445    3.4755
   20.460    3.3070
   20.475    2.9910
   20.490    2.9384
   20.505    2.8225
   20.520    2.9068
   20.535    2.8857
   20.550    3.0753
   20.565    2.7909
   20.580    2.8015
   20.595    2.9173
   20.610    3.2438
   20.625    3.1069
   20.640    2.8647
   20.655    2.5592
   20.670    2.6856
   20.685    2.6435
   20.700    2.9805
   20.715    3.0648
   20.730    3.0964
   20.745    3.0753
   20.760    2.9805
   20.775    3.3175
   20.790    2.9700
   20.805    2.8331
   20.820    2.8541
   20.835    3.1596
   20.850    3.0648
   20.865    2.9595
   20.880    2.8541
   20.895    2.7804
   20.910    2.9384
   20.925    3.0753
   20.940    2.8120
   20.955    2.8331
   20.970    2.9279
   20.985    2.8752
   21.000    2.8436
   21.015    3.0648
   21.030    3.0121
   21.045    2.8225
   21.060    2.8225
   21.075    2.8647
   21.090    3.1280
   21.105    2.7488
   21.120    3.0121
   21.135    3.2543
   21.150    3.0226
   21.165    2.8225
   21.180    3.0437
   21.195    2.9489
   21.210    3.2017
   21.225    3.0016
   21.240    2.6856
   21.255    2.8225
   21.270    2.7593
   21.285    3.0016
   21.300    2.9595
   21.315    2.8752
   21.330    2.8015
   21.345    2.6856
   21.360    3.1280
   21.375    2.9805
   21.390    3.0016
   21.405    2.9910
   21.420    3.2227
   21.435    2.9279
   21.450    2.9805
   21.465    3.0858
   21.480    2.9279
   21.495    2.9700
   21.510    2.8331
   21.525    3.1174
   21.540    2.9173
   21.555    2.7804
   21.570    3.0121
   21.585    3.1806
   21.600    3.0964
   21.615    3.1280
   21.630    2.8857
   21.645    2.8541
   21.660    2.7383
   21.675    2.8752
   21.690    2.7804
   21.705    2.9173
   21.720    2.7593
   21.735    2.6646
   21.750    3.0542
   21.765    2.8225
   21.780    2.7488
   21.795    2.9173
   21.810    3.2017
   21.825    3.0753
   21.840    3.0648
   21.855    3.2333
   21.870    3.0121
   21.885    2.8331
   21.900    3.1280
   21.915    3.0332
   21.930    3.0121
   21.945    3.1174
   21.960    3.1701
   21.975    3.1806
   21.990    3.0964
   22.005    2.8752
   22.020    3.1069
   22.035    2.8963
   22.050    2.8541
   22.065    3.0437
   22.080    3.1806
   22.095    2.9173
   22.110    2.9700
   22.125    2.8015
   22.140    3.1069
   22.155    3.0542
   22.170    2.9805
   22.185    3.1490
   22.200    3.0016
   22.215    2.8963
   22.230    3.2122
   22.245    2.9384
   22.260    2.9384
   22.275    3.0226
   22.290    3.3702
   22.305    3.0332
   22.320    2.9384
   22.335    2.9489
   22.350    2.9068
   22.365    2.8331
   22.380    3.0016
   22.395    2.9173
   22.410    2.8541
   22.425    2.8963
   22.440    2.7909
   22.455    2.9173
   22.470    3.0121
   22.485    3.0753
   22.500    2.8647
   22.515    2.8647
   22.530    3.5282
   22.545    3.4229
   22.560    3.1385
   22.575    3.1385
   22.590    3.4755
   22.605    3.6651
   22.620    3.5703
   22.635    3.2017
   22.650    3.4650
   22.665    3.4018
   22.680    3.3175
   22.695    3.0964
   22.710    3.1174
   22.725    3.1280
   22.740    3.2754
   22.755    3.2333
   22.770    3.0858
   22.785    2.6224
   22.800    2.8120
   22.815    3.1701
   22.830    3.1701
   22.845    3.0753
   22.860    3.0964
   22.875    3.1385
   22.890    3.1490
   22.905    3.5387
   22.920    3.4755
   22.935    3.3597
   22.950    3.5282
   22.965    3.4650
   22.980    3.6019
   22.995    3.2017
   23.010    3.3175
   23.025    3.2438
   23.040    3.3281
   23.055    2.8752
   23.070    3.0016
   23.085    2.9279
   23.100    2.7488
   23.115    2.7488
   23.130    3.1596
   23.145    3.0226
   23.160    2.7172
   23.175    2.9910
   23.190    2.7593
   23.205    2.8436
   23.220    2.8225
   23.235    2.8647
   23.250    3.0858
   23.265    2.9805
   23.280    2.8331
   23.295    3.1490
   23.310    3.0753
   23.325    2.9910
   23.340    2.9173
   23.355    3.0016
   23.370    2.9279
   23.385    2.6751
   23.400    2.8120
   23.415    2.5487
   23.430    2.8541
   23.445    2.9279
   23.460    2.8541
   23.475    2.9068
   23.490    2.8225
   23.505    2.7172
   23.520    2.6751
   23.535    2.7699
   23.550    3.0226
   23.565    2.7278
   23.580    2.7172
   23.595    2.5908
   23.610    2.8963
   23.625    3.0964
   23.640    2.8120
   23.655    3.2543
   23.670    3.1385
   23.685    2.8015
   23.700    2.8225
   23.715    2.9068
   23.730    3.1385
   23.745    2.7488
   23.760    2.7593
   23.775    2.6962
   23.790    2.8541
   23.805    2.9279
   23.820    2.6751
   23.835    3.0332
   23.850    2.9173
   23.865    2.9068
   23.880    2.8963
   23.895    3.0648
   23.910    3.1806
   23.925    3.0226
   23.940    2.7593
   23.955    2.9173
   23.970    3.1069
   23.985    3.1385
   24.000    2.9910
   24.015    3.0858
   24.030    3.0648
   24.045    2.8857
   24.060    2.7909
   24.075    2.7278
   24.090    2.8331
   24.105    2.9700
   24.120    2.7699
   24.135    2.8541
   24.150    2.8225
   24.165    2.7383
   24.180    2.6751
   24.195    2.8331
   24.210    2.8647
   24.225    2.7593
   24.240    2.8647
   24.255    2.8015
   24.270    3.1385
   24.285    2.9384
   24.300    2.8120
   24.315    2.9910
   24.330    2.8647
   24.345    2.7278
   24.360    2.6224
   24.375    2.4750
   24.390    2.4961
   24.405    2.7383
   24.420    2.7909
   24.435    2.8541
   24.450    2.6856
   24.465    2.7383
   24.480    2.5698
   24.495    2.7909
   24.510    2.7593
   24.525    2.9700
   24.540    2.9173
   24.555    3.0437
   24.570    3.0648
   24.585    2.7593
   24.600    2.7593
   24.615    3.1069
   24.630    2.5487
   24.645    3.0226
   24.660    3.1280
   24.675    2.8331
   24.690    2.8120
   24.705    2.8857
   24.720    2.9384
   24.735    2.8857
   24.750    2.8015
   24.765    2.8120
   24.780    2.9805
   24.795    2.7067
   24.810    2.8857
   24.825    2.9700
   24.840    2.9910
   24.855    3.0016
   24.870    2.9700
   24.885    2.6856
   24.900    2.5487
   24.915    2.7278
   24.930    2.8120
   24.945    2.9384
   24.960    2.9279
   24.975    2.8752
   24.990    2.6330
   25.005    2.8963
   25.020    2.5908
   25.035    2.7488
   25.050    2.7699
   25.065    2.8541
   25.080    2.9595
   25.095    2.9489
   25.110    2.8436
   25.125    2.7909
   25.140    2.6224
   25.155    2.9068
   25.170    3.0964
   25.185    2.8647
   25.200    2.6224
   25.215    2.8120
   25.230    2.7488
   25.245    2.7172
   25.260    2.7804
   25.275    2.8647
   25.290    2.8120
   25.305    2.8225
   25.320    2.6224
   25.335    2.6540
   25.350    3.0542
   25.365    3.0437
   25.380    2.6751
   25.395    2.7383
   25.410    2.6540
   25.425    2.8963
   25.440    2.6646
   25.455    2.7067
   25.470    2.6751
   25.485    2.9068
   25.500    2.8120
   25.515    2.6224
   25.530    2.5803
   25.545    2.7909
   25.560    2.6119
   25.575    2.8120
   25.590    2.8963
   25.605    2.9173
   25.620    2.7488
   25.635    2.5803
   25.650    2.5487
   25.665    2.5803
   25.680    2.6751
   25.695    2.7804
   25.710    2.8857
   25.725    2.7699
   25.740    2.6856
   25.755    2.7909
   25.770    2.7383
   25.785    2.6119
   25.800    2.8752
   25.815    2.9173
   25.830    3.0121
   25.845    3.0226
   25.860    3.1490
   25.875    3.0964
   25.890    3.0648
   25.905    3.0016
   25.920    2.9489
   25.935    2.9489
   25.950    2.7593
   25.965    2.8015
   25.980    2.7488
   25.995    2.6962
   26.010    2.7172
   26.025    2.6751
   26.040    2.6646
   26.055    2.6330
   26.070    2.5803
   26.085    2.7067
   26.100    2.7909
   26.115    2.9910
   26.130    2.5066
   26.145    2.5066
   26.160    2.7067
   26.175    2.7172
   26.190    2.6330
   26.205    2.4013
   26.220    2.6751
   26.235    2.6540
   26.250    2.6540
   26.265    2.5382
   26.280    2.4645
   26.295    2.6119
   26.310    2.7699
   26.325    2.6435
   26.340    2.7278
   26.355    2.6856
   26.370    2.7593
   26.385    2.7699
   26.400    2.7593
   26.415    2.8120
   26.430    2.8963
   26.445    2.7909
   26.460    2.7488
   26.475    2.7278
   26.490    2.5382
   26.505    2.5592
   26.520    2.5276
   26.535    2.5382
   26.550    2.6751
   26.565    2.5276
   26.580    2.3275
   26.595    2.4855
   26.610    2.5592
   26.625    2.7804
   26.640    2.6751
   26.655    2.6962
   26.670    2.8120
   26.685    2.5171
   26.700    2.4329
   26.715    2.4750
   26.730    2.5698
   26.745    2.4645
   26.760    2.5066
   26.775    2.7278
   26.790    2.5698
   26.805    2.5803
   26.820    2.6014
   26.835    2.5908
   26.850    2.4329
   26.865    2.6014
   26.880    2.8015
   26.895    2.4750
   26.910    2.6856
   26.925    2.5803
   26.940    2.9279
   26.955    2.8331
   26.970    2.6962
   26.985    2.4961
   27.000    2.7593
   27.015    2.6646
   27.030    2.8331
   27.045    2.8436
   27.060    2.8120
   27.075    2.7278
   27.090    2.5171
   27.105    2.5171
   27.120    2.5487
   27.135    2.5698
   27.150    2.5592
   27.165    2.4434
   27.180    2.5803
   27.195    2.5592
   27.210    2.5592
   27.225    2.3486
   27.240    2.2012
   27.255    2.4329
   27.270    2.7172
   27.285    2.5171
   27.300    2.5171
   27.315    2.4013
   27.330    2.4223
   27.345    2.5276
   27.360    2.2222
   27.375    2.4855
   27.390    2.5487
   27.405    2.5382
   27.420    2.5592
   27.435    2.4223
   27.450    2.7593
   27.465    2.5487
   27.480    2.2117
   27.495    2.4961
   27.510    2.5276
   27.525    2.5908
   27.540    2.6751
   27.555    2.5487
   27.570    2.6540
   27.585    2.7383
   27.600    2.5171
   27.615    2.6330
   27.630    2.4329
   27.645    2.6014
   27.660    2.6751
   27.675    2.4750
   27.690    2.3802
   27.705    2.3275
   27.720    2.5171
   27.735    2.5066
   27.750    2.4013
   27.765    2.6119
   27.780    2.6224
   27.795    2.5908
   27.810    2.6119
   27.825    2.5066
   27.840    2.6435
   27.855    2.5803
   27.870    2.6856
   27.885    2.4645
   27.900    2.3381
   27.915    2.6856
   27.930    2.3697
   27.945    2.6119
   27.960    2.7804
   27.975    2.5276
   27.990    2.5066
   28.005    2.7488
   28.020    2.8541
   28.035    2.7488
   28.050    2.6119
   28.065    2.7067
   28.080    2.4961
   28.095    2.9173
   28.110    2.9910
   28.125    2.6646
   28.140    2.7383
   28.155    2.6435
   28.170    2.9384
   28.185    2.8015
   28.200    2.6435
   28.215    2.4750
   28.230    2.8015
   28.245    2.5487
   28.260    2.5698
   28.275    2.7383
   28.290    2.5908
   28.305    2.4539
   28.320    2.7909
   28.335    2.6224
   28.350    2.4750
   28.365    2.4223
   28.380    2.7593
   28.395    2.7909
   28.410    2.6224
   28.425    2.7067
   28.440    2.4855
   28.455    2.6014
   28.470    2.8436
   28.485    2.9068
   28.500    2.7383
   28.515    2.6119
   28.530    2.3697
   28.545    2.6751
   28.560    2.6330
   28.575    2.3907
   28.590    2.3907
   28.605    2.4961
   28.620    2.7383
   28.635    2.7488
   28.650    2.5592
   28.665    2.4223
   28.680    2.5066
   28.695    2.5698
   28.710    2.6330
   28.725    2.1696
   28.740    2.5171
   28.755    2.5698
   28.770    2.4750
   28.785    2.3802
   28.800    2.4118
   28.815    2.3907
   28.830    2.6646
   28.845    2.6224
   28.860    2.5382
   28.875    2.4750
   28.890    2.6435
   28.905    2.4539
   28.920    2.4013
   28.935    2.3802
   28.950    2.5592
   28.965    2.6540
   28.980    2.4855
   28.995    2.5171
   29.010    2.3907
   29.025    2.4329
   29.040    2.7804
   29.055    2.6330
   29.070    2.5171
   29.085    2.5382
   29.100    2.2117
   29.115    2.3170
   29.130    2.5908
   29.145    2.5592
   29.160    2.5066
   29.175    2.4645
   29.190    2.7699
   29.205    2.7909
   29.220    2.4434
   29.235    2.1169
   29.250    2.4223
   29.265    2.2433
   29.280    2.5908
   29.295    2.5803
   29.310    2.6330
   29.325    2.6014
   29.340    2.4013
   29.355    2.5066
   29.370    2.5908
   29.385    2.7067
   29.400    2.5908
   29.415    2.2749
   29.430    2.4855
   29.445    2.6330
   29.460    2.5276
   29.475    2.6330
   29.490    2.6224
   29.505    2.4013
   29.520    2.5908
   29.535    2.3381
   29.550    2.2222
   29.565    2.3591
   29.580    2.4855
   29.595    2.4539
   29.610    2.4539
   29.625    2.4118
   29.640    2.5487
   29.655    2.3486
   29.670    2.4013
   29.685    2.5276
   29.700    2.6330
   29.715    2.3486
   29.730    2.4961
   29.745    2.1169
   29.760    2.3907
   29.775    2.5066
   29.790    2.5382
   29.805    2.5382
   29.820    2.7278
   29.835    2.5276
   29.850    2.6014
   29.865    2.3591
   29.880    2.4961
   29.895    2.4013
   29.910    2.6962
   29.925    2.5276
   29.940    2.4223
   29.955    2.3170
   29.970    2.4329
   29.985    2.5382
   30.000    2.5276
   30.015    2.1485
   30.030    2.3381
   30.045    2.2643
   30.060    2.3170
   30.075    2.4223
   30.090    2.5382
   30.105    2.4750
   30.120    2.3381
   30.135    2.4750
   30.150    2.4329
   30.165    2.5171
   30.180    2.5908
   30.195    2.3802
   30.210    2.3170
   30.225    2.3907
   30.240    2.4961
   30.255    2.3486
   30.270    2.2959
   30.285    2.3802
   30.300    2.3591
   30.315    2.3275
   30.330    2.4223
   30.345    2.4118
   30.360    2.4645
   30.375    2.4434
   30.390    2.6014
   30.405    2.5487
   30.420    2.2959
   30.435    2.5803
   30.450    2.3591
   30.465    2.2959
   30.480    2.5382
   30.495    2.5908
   30.510    2.5276
   30.525    2.3907
   30.540    2.5487
   30.555    2.5171
   30.570    2.5066
   30.585    2.5908
   30.600    2.4750
   30.615    2.6435
   30.630    2.5908
   30.645    2.7278
   30.660    2.7278
   30.675    2.4118
   30.690    2.5592
   30.705    2.8331
   30.720    2.5908
   30.735    2.5171
   30.750    2.4013
   30.765    2.3907
   30.780    2.3697
   30.795    2.2749
   30.810    2.3065
   30.825    2.2959
   30.840    2.4329
   30.855    2.4434
   30.870    2.3802
   30.885    2.5487
   30.900    2.3802
   30.915    2.4961
   30.930    2.4855
   30.945    2.5592
   30.960    2.4118
   30.975    2.5171
   30.990    2.5487
   31.005    2.2538
   31.020    2.2328
   31.035    2.5066
   31.050    2.3381
   31.065    2.4539
   31.080    2.4539
   31.095    2.6014
   31.110    2.3591
   31.125    2.2959
   31.140    2.2959
   31.155    2.3802
   31.170    2.2749
   31.185    2.1906
   31.200    2.3697
   31.215    2.4539
   31.230    2.6014
   31.245    2.1064
   31.260    2.1169
   31.275    2.3697
   31.290    2.2538
   31.305    2.2538
   31.320    2.3065
   31.335    2.2012
   31.350    2.2433
   31.365    2.2012
   31.380    2.3486
   31.395    2.6119
   31.410    2.3591
   31.425    2.4329
   31.440    2.3802
   31.455    2.2643
   31.470    2.1064
   31.485    2.5066
   31.500    2.5276
   31.515    2.3381
   31.530    2.2854
   31.545    2.3065
   31.560    2.2959
   31.575    2.1485
   31.590    2.2117
   31.605    2.3697
   31.620    2.5487
   31.635    2.5908
   31.650    2.4223
   31.665    2.4223
   31.680    2.4750
   31.695    2.4013
   31.710    2.4329
   31.725    2.2959
   31.740    2.2854
   31.755    2.4118
   31.770    2.6119
   31.785    2.6751
   31.800    2.4750
   31.815    2.3486
   31.830    2.3907
   31.845    2.3065
   31.860    2.4329
   31.875    2.2749
   31.890    2.3591
   31.905    2.3907
   31.920    2.4013
   31.935    2.6330
   31.950    2.5382
   31.965    2.3275
   31.980    2.2854
   31.995    2.5803
   32.010    2.5171
   32.025    2.4329
   32.040    2.3170
   32.055    2.4223
   32.070    2.5592
   32.085    2.6330
   32.100    2.5803
   32.115    2.7067
   32.130    2.5382
   32.145    2.6856
   32.160    2.2117
   32.175    2.3381
   32.190    2.2433
   32.205    2.3275
   32.220    2.2959
   32.235    2.6435
   32.250    2.3486
   32.265    2.3065
   32.280    2.0853
   32.295    2.0748
   32.310    2.2117
   32.325    2.2749
   32.340    2.4750
   32.355    2.3275
   32.370    2.3170
   32.385    2.1485
   32.400    2.1380
   32.415    2.2854
   32.430    2.1169
   32.445    2.0326
   32.460    2.2643
   32.475    2.2643
   32.490    2.2854
   32.505    2.2433
   32.520    2.1274
   32.535    2.1906
   32.550    2.1590
   32.565    2.0326
   32.580    2.0221
   32.595    2.1274
   32.610    2.2538
   32.625    2.4539
   32.640    2.2749
   32.655    2.3591
   32.670    2.1590
   32.685    2.1801
   32.700    2.3065
   32.715    2.1169
   32.730    2.1801
   32.745    2.0116
   32.760    2.3486
   32.775    2.3907
   32.790    2.3697
   32.805    2.3486
   32.820    2.2749
   32.835    2.3275
   32.850    2.3170
   32.865    2.1380
   32.880    2.2854
   32.895    2.1485
   32.910    2.1590
   32.925    2.1696
   32.940    2.3697
   32.955    2.2643
   32.970    2.3802
   32.985    2.4118
   33.000    2.5908
   33.015    2.3275
   33.030    2.3381
   33.045    2.2012
   33.060    2.1906
   33.075    2.1064
   33.090    2.1485
   33.105    2.3381
   33.120    2.2854
   33.135    2.0853
   33.150    2.3802
   33.165    2.0748
   33.180    2.2749
   33.195    2.0958
   33.210    1.9589
   33.225    2.2117
   33.240    2.2643
   33.255    2.2222
   33.270    1.9379
   33.285    1.9168
   33.300    2.0537
   33.315    2.1169
   33.330    2.2433
   33.345    2.2328
   33.360    1.9905
   33.375    2.2328
   33.390    2.4118
   33.405    2.2222
   33.420    2.3275
   33.435    2.1380
   33.450    2.1696
   33.465    2.2538
   33.480    2.2854
   33.495    2.1064
   33.510    2.2959
   33.525    2.2117
   33.540    2.3591
   33.555    2.0116
   33.570    2.1064
   33.585    2.0958
   33.600    2.1801
   33.615    2.2117
   33.630    1.9589
   33.645    2.0432
   33.660    2.0537
   33.675    2.2959
   33.690    2.2012
   33.705    2.0958
   33.720    2.2538
   33.735    2.1801
   33.750    2.3697
   33.765    2.2959
   33.780    2.1801
   33.795    2.1801
   33.810    2.1380
   33.825    2.2643
   33.840    2.1380
   33.855    2.3697
   33.870    2.3591
   33.885    2.0958
   33.900    2.2012
   33.915    2.2012
   33.930    2.4434
   33.945    2.5276
   33.960    2.2749
   33.975    2.2012
   33.990    1.9063
   34.005    2.2222
   34.020    2.0326
   34.035    2.1169
   34.050    2.0537
   34.065    2.1485
   34.080    1.9905
   34.095    1.9063
   34.110    2.0748
   34.125    2.0748
   34.140    2.4329
   34.155    2.0221
   34.170    1.9379
   34.185    2.1380
   34.200    2.2222
   34.215    2.1590
   34.230    2.0116
   34.245    1.8852
   34.260    2.0116
   34.275    2.0748
   34.290    1.9484
   34.305    2.0116
   34.320    1.9273
   34.335    1.8115
   34.350    2.0748
   34.365    2.0432
   34.380    2.0958
   34.395    1.8536
   34.410    2.0642
   34.425    1.8747
   34.440    2.0011
   34.455    1.9695
   34.470    1.9168
   34.485    1.8220
   34.500    1.8957
   34.515    2.1801
   34.530    2.0748
   34.545    2.0432
   34.560    2.0326
   34.575    2.1274
   34.590    2.0748
   34.605    1.9273
   34.620    2.0432
   34.635    1.9905
   34.650    1.9695
   34.665    2.2328
   34.680    2.0011
   34.695    2.0642
   34.710    2.1906
   34.725    2.1380
   34.740    2.2643
   34.755    2.2328
   34.770    2.2749
   34.785    2.1906
   34.800    1.9800
   34.815    2.1485
   34.830    2.1906
   34.845    2.2538
   34.860    2.0537
   34.875    1.9800
   34.890    2.0642
   34.905    2.0958
   34.920    2.1064
   34.935    2.1801
   34.950    2.0537
   34.965    1.9063
   34.980    2.1696
   34.995    2.0432
   35.010    2.0432
   35.025    1.9168
   35.040    1.8115
   35.055    2.0853
   35.070    2.0116
   35.085    2.0748
   35.100    1.8641
   35.115    1.9484
   35.130    2.1906
   35.145    2.2117
   35.160    2.2328
   35.175    2.0537
   35.190    2.0748
   35.205    1.9063
   35.220    2.0221
   35.235    1.8747
   35.250    1.9695
   35.265    2.0011
   35.280    2.0537
   35.295    2.1906
   35.310    1.9589
   35.325    1.8747
   35.340    1.9800
   35.355    2.0432
   35.370    2.1064
   35.385    2.2117
   35.400    2.0853
   35.415    2.2433
   35.430    2.3802
   35.445    2.0853
   35.460    2.0853
   35.475    1.8220
   35.490    1.9589
   35.505    2.1064
   35.520    2.0432
   35.535    1.9484
   35.550    2.0011
   35.565    1.8536
   35.580    2.1064
   35.595    2.0537
   35.610    2.1485
   35.625    1.9800
   35.640    1.9800
   35.655    1.9589
   35.670    1.9695
   35.685    2.0326
   35.700    2.0326
   35.715    2.0326
   35.730    2.0432
   35.745    1.8641
   35.760    1.9800
   35.775    1.9063
   35.790    2.0221
   35.805    2.1590
   35.820    2.0642
   35.835    2.0748
   35.850    1.9905
   35.865    2.0221
   35.880    2.0748
   35.895    1.8852
   35.910    2.1380
   35.925    1.6746
   35.940    1.8852
   35.955    1.8009
   35.970    1.9484
   35.985    1.7694
   36.000    1.9695
   36.015    1.9695
   36.030    2.0432
   36.045    1.9695
   36.060    2.0958
   36.075    2.0642
   36.090    1.8536
   36.105    1.9695
   36.120    2.1801
   36.135    2.2538
   36.150    1.9484
   36.165    2.1169
   36.180    1.9905
   36.195    2.0116
   36.210    1.9379
   36.225    1.9695
   36.240    1.8641
   36.255    1.8957
   36.270    2.0116
   36.285    1.8641
   36.300    1.9168
   36.315    1.9800
   36.330    1.8325
   36.345    1.9273
   36.360    1.9905
   36.375    2.0221
   36.390    2.0958
   36.405    1.8220
   36.420    1.8641
   36.435    2.0432
   36.450    2.0116
   36.465    1.9589
   36.480    1.9063
   36.495    1.8325
   36.510    1.8747
   36.525    2.0326
   36.540    1.8852
   36.555    1.8431
   36.570    1.9168
   36.585    1.9063
   36.600    1.9168
   36.615    1.8536
   36.630    2.2854
   36.645    1.9273
   36.660    1.8431
   36.675    1.9379
   36.690    2.1590
   36.705    1.9273
   36.720    1.8115
   36.735    1.8009
   36.750    1.8431
   36.765    2.0221
   36.780    2.0642
   36.795    1.8115
   36.810    1.8852
   36.825    1.7799
   36.840    1.9589
   36.855    2.0116
   36.870    2.0748
   36.885    2.0537
   36.900    1.9484
   36.915    2.0432
   36.930    1.8115
   36.945    2.0116
   36.960    2.0853
   36.975    1.7378
   36.990    1.6114
   37.005    1.8009
   37.020    1.9063
   37.035    1.7799
   37.050    1.9905
   37.065    1.9589
   37.080    1.8431
   37.095    1.8641
   37.110    1.8957
   37.125    1.7588
   37.140    1.9379
   37.155    2.0642
   37.170    2.2959
   37.185    2.0537
   37.200    1.8536
   37.215    1.8536
   37.230    1.9273
   37.245    1.8641
   37.260    1.9379
   37.275    1.8747
   37.290    1.7588
   37.305    1.8536
   37.320    1.9484
   37.335    1.8641
   37.350    1.8536
   37.365    1.9905
   37.380    1.9168
   37.395    1.8747
   37.410    1.7694
   37.425    1.7062
   37.440    1.9905
   37.455    2.0326
   37.470    2.0116
   37.485    2.0537
   37.500    1.8641
   37.515    1.7904
   37.530    2.0116
   37.545    2.0221
   37.560    1.7483
   37.575    1.8009
   37.590    1.9905
   37.605    1.8536
   37.620    1.8852
   37.635    1.8536
   37.650    1.8325
   37.665    1.8536
   37.680    2.0958
   37.695    2.0221
   37.710    1.8852
   37.725    1.8957
   37.740    1.8325
   37.755    1.8852
   37.770    2.1169
   37.785    1.8220
   37.800    1.9168
   37.815    1.9168
   37.830    1.8641
   37.845    2.0537
   37.860    2.0642
   37.875    1.8852
   37.890    1.9168
   37.905    1.8431
   37.920    1.9484
   37.935    1.9484
   37.950    1.8325
   37.965    1.8747
   37.980    2.1064
   37.995    2.0432
   38.010    1.9168
   38.025    1.9589
   38.040    1.9063
   38.055    1.8641
   38.070    1.9379
   38.085    1.8115
   38.100    1.7272
   38.115    1.7167
   38.130    1.8852
   38.145    1.9063
   38.160    2.0326
   38.175    1.8431
   38.190    1.8536
   38.205    1.7167
   38.220    1.6008
   38.235    1.7167
   38.250    1.9168
   38.265    1.9379
   38.280    2.2012
   38.295    1.9484
   38.310    1.7799
   38.325    1.8852
   38.340    1.7062
   38.355    2.0853
   38.370    1.9379
   38.385    1.6851
   38.400    1.4639
   38.415    1.7272
   38.430    1.8115
   38.445    1.8957
   38.460    1.8852
   38.475    1.9063
   38.490    1.8220
   38.505    1.8325
   38.520    1.7694
   38.535    1.8325
   38.550    1.9589
   38.565    2.0011
   38.580    1.9905
   38.595    1.8536
   38.610    1.8220
   38.625    1.8852
   38.640    1.9168
   38.655    1.9168
   38.670    1.8536
   38.685    1.8641
   38.700    1.8115
   38.715    2.2328
   38.730    2.0537
   38.745    1.8325
   38.760    1.6535
   38.775    1.7904
   38.790    1.8431
   38.805    1.9589
   38.820    2.0116
   38.835    1.8957
   38.850    1.8747
   38.865    1.9379
   38.880    2.0221
   38.895    1.8957
   38.910    1.8431
   38.925    1.9063
   38.940    1.8220
   38.955    2.0221
   38.970    1.9484
   38.985    1.8431
   39.000    1.7062
   39.015    1.8325
   39.030    1.6851
   39.045    1.8957
   39.060    1.8641
   39.075    1.8641
   39.090    1.6219
   39.105    1.8957
   39.120    2.0432
   39.135    1.8431
   39.150    1.8220
   39.165    1.9484
   39.180    1.8641
   39.195    1.8536
   39.210    1.9063
   39.225    1.9800
   39.240    1.9484
   39.255    1.8641
   39.270    1.8641
   39.285    2.1064
   39.300    1.9484
   39.315    1.8641
   39.330    1.8852
   39.345    2.0537
   39.360    1.7378
   39.375    1.8009
   39.390    1.8747
   39.405    2.0642
   39.420    1.7904
   39.435    1.9484
   39.450    1.7062
   39.465    1.6535
   39.480    1.8325
   39.495    1.9273
   39.510    1.8115
   39.525    1.8220
   39.540    1.7483
   39.555    2.0011
   39.570    1.8852
   39.585    1.7904
   39.600    1.8641
   39.615    1.8009
   39.630    1.9800
   39.645    1.8220
   39.660    1.7799
   39.675    1.8431
   39.690    2.0221
   39.705    1.6535
   39.720    1.8115
   39.735    1.9168
   39.750    1.8747
   39.765    1.9168
   39.780    2.0116
   39.795    1.6640
   39.810    1.7799
   39.825    1.7799
   39.840    1.6956
   39.855    1.6008
   39.870    2.0958
   39.885    1.9379
   39.900    1.8957
   39.915    1.8431
   39.930    1.9273
   39.945    1.8747
   39.960    1.7799
   39.975    1.5166
   39.990    1.6851
