    1.500   51.5710
    1.515   52.6066
    1.530   50.5354
    1.545   50.2194
    1.560   49.4471
    1.575   47.0950
    1.590   45.1115
    1.605   44.4093
    1.620   44.3567
    1.635   43.1455
    1.650   41.8466
    1.665   40.9163
    1.680   40.1790
    1.695   38.2131
    1.710   37.6163
    1.725   37.7216
    1.740   36.4929
    1.755   34.9131
    1.770   34.6674
    1.785   34.7551
    1.800   32.6839
    1.815   32.3679
    1.830   31.9466
    1.845   30.9286
    1.860   30.7355
    1.875   31.6658
    1.890   30.8759
    1.905   29.8754
    1.920   28.9977
    1.935   27.7339
    1.950   26.9440
    1.965   27.3828
    1.980   26.5929
    1.995   26.4701
    2.010   24.7850
    2.025   24.9254
    2.040   24.6270
    2.055   25.4520
    2.070   25.1009
    2.085   24.3110
    2.100   23.4509
    2.115   22.6611
    2.130   22.1871
    2.145   22.4504
    2.160   22.5908
    2.175   21.1164
    2.190   20.9233
    2.205   20.8180
    2.220   20.4494
    2.235   20.3265
    2.250   19.1855
    2.265   19.7297
    2.280   19.0627
    2.295   19.3260
    2.310   19.4137
    2.325   18.8871
    2.340   18.4132
    2.355   18.3605
    2.370   17.9919
    2.385   17.7988
    2.400   17.3249
    2.415   16.7983
    2.430   16.0786
    2.445   16.9563
    2.460   17.1143
    2.475   17.2722
    2.490   16.8685
    2.505   16.6403
    2.520   16.4824
    2.535   16.0786
    2.550   15.9031
    2.565   15.7451
    2.580   15.4467
    2.595   15.6047
    2.610   16.1664
    2.625   15.4643
    2.640   14.3233
    2.655   14.2180
    2.670   14.7095
    2.685   14.4638
    2.700   14.4286
    2.715   14.2005
    2.730   13.5159
    2.745   14.6393
    2.760   14.1302
    2.775   14.3058
    2.790   14.0776
    2.805   13.8494
    2.820   14.2882
    2.835   13.9196
    2.850   14.3233
    2.865   14.2531
    2.880   13.7967
    2.895   13.9372
    2.910   13.8318
    2.925   13.0420
    2.940   13.7090
    2.955   13.3228
    2.970   13.8318
    2.985   13.6739
    3.000   14.2005
    3.015   14.2356
    3.030   14.0074
    3.045   14.1127
    3.060   13.7265
    3.075   14.5866
    3.090   13.9372
    3.105   14.0425
    3.120   14.4111
    3.135   14.4462
    3.150   15.1132
    3.165   15.2185
    3.180   16.0786
    3.195   16.1489
    3.210   16.0084
    3.225   16.6930
    3.240   17.0090
    3.255   17.4302
    3.270   17.7286
    3.285   18.9222
    3.300   18.4132
    3.315   20.3265
    3.330   20.6775
    3.345   21.4850
    3.360   22.2047
    3.375   23.0999
    3.390   22.7839
    3.405   24.5568
    3.420   25.2765
    3.435   26.7685
    3.450   27.9445
    3.465   29.2435
    3.480   30.3669
    3.495   30.7004
    3.510   33.3860
    3.525   35.1237
    3.540   37.4759
    3.555   39.7578
    3.570   41.5306
    3.585   44.0583
    3.600   46.8843
    3.615   49.6402
    3.630   53.8880
    3.645   56.9598
    3.660   61.5587
    3.675   66.5438
    3.690   71.9677
    3.705   76.3560
    3.720   84.0618
    3.735   95.8048
    3.750  103.6861
    3.765  115.8153
    3.780  129.3663
    3.795  149.4120
    3.810  173.0385
    3.825  204.7218
    3.840  223.1877
    3.855  223.0823
    3.870  204.0899
    3.885  165.5959
    3.900  118.6941
    3.915   73.4246
    3.930   44.7077
    3.945   28.6993
    3.960   20.9057
    3.975   18.0972
    3.990   15.6047
    4.005   14.6744
    4.020   12.8664
    4.035   12.2170
    4.050   11.9712
    4.065   11.4446
    4.080   10.4616
    4.095   11.2691
    4.110   10.3563
    4.125   10.2861
    4.140    9.8297
    4.155    9.3382
    4.170    9.3207
    4.185    9.5664
    4.200    9.1978
    4.215    9.3031
    4.230    9.0223
    4.245    8.7063
    4.260    8.8117
    4.275    8.5659
    4.290    8.8819
    4.305    8.6537
    4.320    8.7239
    4.335    8.9521
    4.350    8.7414
    4.365    8.5659
    4.380    8.4606
    4.395    8.3377
    4.410    8.0569
    4.425    8.4255
    4.440    8.2149
    4.455    8.4430
    4.470    8.1973
    4.485    8.1622
    4.500    8.3553
    4.515    8.2675
    4.530    8.0744
    4.545    8.0569
    4.560    7.9867
    4.575    8.0569
    4.590    7.6005
    4.605    7.7234
    4.620    7.9691
    4.635    7.3899
    4.650    7.1617
    4.665    8.0569
    4.680    8.2675
    4.695    7.6356
    4.710    7.3547
    4.725    7.8989
    4.740    7.9691
    4.755    7.4074
    4.770    7.4425
    4.785    7.5127
    4.800    8.1095
    4.815    8.2851
    4.830    7.8462
    4.845    7.4952
    4.860    7.3372
    4.875    7.4776
    4.890    7.7234
    4.905    8.0569
    4.920    7.5478
    4.935    7.8638
    4.950    7.8638
    4.965    7.9340
    4.980    8.0393
    4.995    8.5308
    5.010    8.6010
    5.025    8.6010
    5.040    8.5659
    5.055    8.3202
    5.070    8.8117
    5.085    8.9872
    5.100    8.6010
    5.115    8.8819
    5.130    9.1627
    5.145    9.0750
    5.160    9.4611
    5.175    9.3734
    5.190   10.2686
    5.205   11.3042
    5.220   11.9186
    5.235   12.1116
    5.250   12.2170
    5.265   13.3930
    5.280   13.7441
    5.295   13.6388
    5.310   14.3233
    5.325   15.7802
    5.340   17.6584
    5.355   18.8169
    5.370   19.9228
    5.385   22.3100
    5.400   24.4690
    5.415   28.1376
    5.430   32.6488
    5.445   38.3535
    5.460   41.5131
    5.475   43.3035
    5.490   40.2317
    5.505   35.2642
    5.520   27.9972
    5.535   21.2568
    5.550   14.3760
    5.565   10.9356
    5.580    9.7244
    5.595    9.1803
    5.610    8.6888
    5.625    7.7409
    5.640    7.7585
    5.655    7.7936
    5.670    7.7409
    5.685    7.3899
    5.700    7.2143
    5.715    7.4601
    5.730    7.3899
    5.745    7.3547
    5.760    7.4952
    5.775    7.0388
    5.790    7.0915
    5.805    6.7228
    5.820    6.9159
    5.835    6.9335
    5.850    7.2319
    5.865    6.7930
    5.880    6.9686
    5.895    7.2494
    5.910    7.2494
    5.925    7.0915
    5.940    6.4069
    5.955    6.8282
    5.970    6.7404
    5.985    7.0915
    6.000    6.5473
    6.015    6.7053
    6.030    6.6877
    6.045    7.0563
    6.060    6.8282
    6.075    6.7404
    6.090    6.6702
    6.105    6.5298
    6.120    6.7930
    6.135    6.8984
    6.150    6.7053
    6.165    6.4595
    6.180    6.4420
    6.195    6.8457
    6.210    6.8282
    6.225    6.6000
    6.240    6.8457
    6.255    6.6175
    6.270    6.8282
    6.285    6.6526
    6.300    6.7228
    6.315    5.9681
    6.330    6.6526
    6.345    6.7579
    6.360    6.4595
    6.375    6.6702
    6.390    6.6526
    6.405    7.0388
    6.420    6.5649
    6.435    6.4771
    6.450    6.0909
    6.465    6.8633
    6.480    6.6351
    6.495    6.5473
    6.510    7.2319
    6.525    6.6351
    6.540    7.0739
    6.555    7.1792
    6.570    7.4776
    6.585    7.2845
    6.600    7.4952
    6.615    7.8813
    6.630    8.0744
    6.645    8.0393
    6.660    8.3904
    6.675    8.6537
    6.690    9.1627
    6.705    9.2154
    6.720    9.0750
    6.735    9.7946
    6.750    9.3207
    6.765    8.6712
    6.780    7.9164
    6.795    7.4601
    6.810    7.6005
    6.825    7.1441
    6.840    6.7228
    6.855    6.8457
    6.870    6.4946
    6.885    7.0388
    6.900    6.5649
    6.915    6.7579
    6.930    7.2319
    6.945    6.5824
    6.960    6.7053
    6.975    6.5122
    6.990    6.5122
    7.005    6.8984
    7.020    6.7755
    7.035    6.3893
    7.050    6.9686
    7.065    6.7228
    7.080    6.2489
    7.095    6.7755
    7.110    6.2313
    7.125    6.9335
    7.140    6.4946
    7.155    6.6175
    7.170    6.9510
    7.185    6.3191
    7.200    6.1260
    7.215    6.5824
    7.230    6.8633
    7.245    6.9159
    7.260    7.1090
    7.275    6.7053
    7.290    6.4771
    7.305    6.6702
    7.320    6.8984
    7.335    6.3191
    7.350    6.8984
    7.365    7.1968
    7.380    6.9510
    7.395    6.9686
    7.410    6.6877
    7.425    6.4771
    7.440    6.9861
    7.455    7.2143
    7.470    7.3723
    7.485    7.4074
    7.500    7.5127
    7.515    7.3723
    7.530    7.1090
    7.545    7.3547
    7.560    7.2319
    7.575    7.6707
    7.590    7.8638
    7.605    8.8819
    7.620    9.0047
    7.635    9.1276
    7.650    9.5489
    7.665   10.8478
    7.680   11.3217
    7.695   11.6728
    7.710   13.6739
    7.725   15.1132
    7.740   16.5701
    7.755   18.6940
    7.770   19.2206
    7.785   19.3084
    7.800   18.5536
    7.815   15.4116
    7.830   12.7084
    7.845   10.3212
    7.860    8.2851
    7.875    7.8638
    7.890    7.0739
    7.905    6.7228
    7.920    7.4425
    7.935    7.0739
    7.950    6.9335
    7.965    6.7053
    7.980    6.8984
    7.995    7.1090
    8.010    7.1441
    8.025    6.9159
    8.040    7.1968
    8.055    7.0915
    8.070    6.4771
    8.085    6.9686
    8.100    7.6005
    8.115    7.3372
    8.130    6.6351
    8.145    6.8984
    8.160    6.3893
    8.175    6.4771
    8.190    6.7053
    8.205    6.7053
    8.220    7.1090
    8.235    7.0037
    8.250    6.8984
    8.265    6.4946
    8.280    6.7404
    8.295    7.3021
    8.310    7.5478
    8.325    6.8457
    8.340    6.3893
    8.355    6.8984
    8.370    7.3372
    8.385    6.9686
    8.400    6.8633
    8.415    6.7404
    8.430    6.7228
    8.445    6.9335
    8.460    6.8282
    8.475    6.8106
    8.490    6.9159
    8.505    6.9335
    8.520    7.3723
    8.535    6.4244
    8.550    6.9686
    8.565    7.0037
    8.580    7.0388
    8.595    7.4601
    8.610    7.7409
    8.625    7.5127
    8.640    7.7936
    8.655    8.3904
    8.670    9.1101
    8.685    9.7771
    8.700   10.0228
    8.715    9.2154
    8.730    8.6888
    8.745    8.1095
    8.760    7.4601
    8.775    7.8111
    8.790    7.5478
    8.805    6.7930
    8.820    7.0212
    8.835    7.1617
    8.850    7.0739
    8.865    6.9861
    8.880    6.8633
    8.895    6.8808
    8.910    6.8984
    8.925    6.7228
    8.940    6.8808
    8.955    6.4946
    8.970    6.5122
    8.985    6.7755
    9.000    6.7755
    9.015    6.3367
    9.030    6.5122
    9.045    6.6175
    9.060    6.8106
    9.075    6.8457
    9.090    6.7755
    9.105    6.9861
    9.120    6.6000
    9.135    6.7930
    9.150    6.4771
    9.165    7.2319
    9.180    7.7409
    9.195    6.9510
    9.210    6.5298
    9.225    6.9335
    9.240    7.1441
    9.255    6.7755
    9.270    6.7053
    9.285    7.1441
    9.300    7.8813
    9.315    7.8813
    9.330    7.8287
    9.345    7.4601
    9.360    8.1622
    9.375    8.2324
    9.390    8.6010
    9.405    9.2856
    9.420    9.6015
    9.435   10.6021
    9.450   11.8308
    9.465   11.9712
    9.480   13.1473
    9.495   16.2893
    9.510   17.0441
    9.525   19.8350
    9.540   20.7653
    9.555   19.3786
    9.570   18.1324
    9.585   15.4292
    9.600   11.6026
    9.615    9.4787
    9.630    8.6361
    9.645    8.0218
    9.660    7.7409
    9.675    7.0563
    9.690    6.8984
    9.705    7.0388
    9.720    7.0388
    9.735    6.6702
    9.750    7.1441
    9.765    7.0915
    9.780    6.9861
    9.795    6.6351
    9.810    7.0212
    9.825    6.7755
    9.840    6.8633
    9.855    7.3196
    9.870    6.7404
    9.885    7.1090
    9.900    7.1266
    9.915    7.1266
    9.930    7.1441
    9.945    6.2489
    9.960    7.2670
    9.975    7.6707
    9.990    7.5829
   10.005    7.4601
   10.020    7.0388
   10.035    6.4946
   10.050    6.9861
   10.065    6.3718
   10.080    6.8282
   10.095    7.0563
   10.110    7.5303
   10.125    7.1792
   10.140    7.6005
   10.155    7.4250
   10.170    7.4250
   10.185    7.5654
   10.200    7.7585
   10.215    8.5308
   10.230    8.6361
   10.245    9.0750
   10.260   10.2686
   10.275   10.3914
   10.290   11.9537
   10.305   11.6904
   10.320   11.4271
   10.335   11.2866
   10.350   10.7776
   10.365    9.2329
   10.380    8.5484
   10.395    7.9340
   10.410    7.6883
   10.425    7.3899
   10.440    7.2494
   10.455    7.1792
   10.470    6.7404
   10.485    6.3367
   10.500    6.8457
   10.515    6.7755
   10.530    6.7930
   10.545    6.3191
   10.560    6.4069
   10.575    6.9159
   10.590    6.9686
   10.605    7.1792
   10.620    6.7579
   10.635    6.6351
   10.650    6.7579
   10.665    7.1792
   10.680    6.7053
   10.695    6.6175
   10.710    6.2665
   10.725    6.4771
   10.740    6.5473
   10.755    6.9159
   10.770    6.8282
   10.785    6.3718
   10.800    6.5298
   10.815    6.7053
   10.830    6.8808
   10.845    6.7053
   10.860    7.1441
   10.875    7.5478
   10.890    7.0388
   10.905    7.7058
   10.920    7.6005
   10.935    8.2149
   10.950    8.3553
   10.965    9.5313
   10.980   10.5143
   10.995   11.0233
   11.010   11.4973
   11.025   11.7606
   11.040   11.6026
   11.055   11.6553
   11.070   10.5494
   11.085    8.9345
   11.100    7.6532
   11.115    7.1617
   11.130    6.8808
   11.145    6.9510
   11.160    6.8633
   11.175    6.9510
   11.190    7.0563
   11.205    6.8282
   11.220    6.1436
   11.235    6.3893
   11.250    6.7579
   11.265    6.6877
   11.280    6.1787
   11.295    6.4595
   11.310    6.4946
   11.325    6.4244
   11.340    6.2665
   11.355    6.4595
   11.370    6.4595
   11.385    6.4771
   11.400    6.3718
   11.415    6.5824
   11.430    6.6877
   11.445    6.2313
   11.460    6.5824
   11.475    6.5824
   11.490    6.2665
   11.505    6.3893
   11.520    6.3718
   11.535    6.8282
   11.550    7.1792
   11.565    6.7053
   11.580    7.0563
   11.595    7.1792
   11.610    8.1095
   11.625    8.3026
   11.640    9.0750
   11.655    9.2856
   11.670   10.7952
   11.685   11.7606
   11.700   12.0063
   11.715   11.9010
   11.730   10.7425
   11.745   10.3212
   11.760    9.2329
   11.775    8.6712
   11.790    7.5127
   11.805    7.2845
   11.820    6.9510
   11.835    6.5473
   11.850    6.4595
   11.865    6.1787
   11.880    6.3542
   11.895    6.4946
   11.910    6.3016
   11.925    6.0032
   11.940    6.0207
   11.955    5.9154
   11.970    6.3367
   11.985    6.0909
   12.000    6.0909
   12.015    6.2138
   12.030    6.1787
   12.045    6.4244
   12.060    6.1436
   12.075    5.9329
   12.090    6.3367
   12.105    6.4946
   12.120    6.4595
   12.135    6.2138
   12.150    5.7925
   12.165    5.9856
   12.180    6.4595
   12.195    6.1611
   12.210    6.2840
   12.225    6.6877
   12.240    6.6351
   12.255    6.5473
   12.270    6.4069
   12.285    6.6877
   12.300    6.3367
   12.315    6.4946
   12.330    7.0739
   12.345    7.3547
   12.360    7.0739
   12.375    7.3723
   12.390    6.9861
   12.405    7.1968
   12.420    6.6351
   12.435    5.7399
   12.450    5.7750
   12.465    6.1611
   12.480    6.2138
   12.495    5.9856
   12.510    5.5643
   12.525    6.0207
   12.540    6.2665
   12.555    6.3542
   12.570    6.2138
   12.585    6.3016
   12.600    6.3191
   12.615    5.8452
   12.630    5.5468
   12.645    5.7750
   12.660    5.9681
   12.675    5.8452
   12.690    5.7223
   12.705    6.3893
   12.720    6.3718
   12.735    6.0558
   12.750    5.9856
   12.765    5.7399
   12.780    6.0032
   12.795    5.9505
   12.810    6.1260
   12.825    6.9159
   12.840    6.5824
   12.855    6.4946
   12.870    6.8633
   12.885    7.7760
   12.900    7.7936
   12.915    8.4079
   12.930    9.1803
   12.945    9.3909
   12.960    9.4787
   12.975    8.8117
   12.990    8.1271
   13.005    8.0920
   13.020    7.4952
   13.035    6.8984
   13.050    6.6175
   13.065    6.3191
   13.080    6.6526
   13.095    6.2840
   13.110    6.4595
   13.125    6.5649
   13.140    5.8276
   13.155    5.8978
   13.170    6.1611
   13.185    5.7925
   13.200    6.3367
   13.215    6.0558
   13.230    5.8978
   13.245    6.0734
   13.260    5.8276
   13.275    5.5468
   13.290    6.3893
   13.305    5.6170
   13.320    5.5292
   13.335    5.1255
   13.350    5.7399
   13.365    5.9505
   13.380    6.5298
   13.395    6.4069
   13.410    5.5117
   13.425    6.1436
   13.440    6.7579
   13.455    6.7053
   13.470    6.8457
   13.485    6.7404
   13.500    6.9159
   13.515    7.4074
   13.530    7.4250
   13.545    7.5829
   13.560    7.4952
   13.575    7.1441
   13.590    7.0388
   13.605    6.5824
   13.620    5.9329
   13.635    5.8803
   13.650    5.8101
   13.665    5.7399
   13.680    5.8803
   13.695    5.8276
   13.710    5.8276
   13.725    5.9329
   13.740    5.8978
   13.755    5.4064
   13.770    5.2308
   13.785    5.4415
   13.800    6.4244
   13.815    6.2665
   13.830    6.1260
   13.845    5.7399
   13.860    6.0032
   13.875    5.8627
   13.890    5.8276
   13.905    5.7750
   13.920    5.8978
   13.935    5.9856
   13.950    6.2138
   13.965    6.7404
   13.980    6.4595
   13.995    6.7930
   14.010    6.6175
   14.025    6.6702
   14.040    7.6180
   14.055    8.1271
   14.070    9.1803
   14.085    8.9696
   14.100    8.7941
   14.115    8.7063
   14.130    8.3202
   14.145    7.6707
   14.160    7.3547
   14.175    6.4420
   14.190    6.2138
   14.205    6.2840
   14.220    5.7925
   14.235    5.7750
   14.250    6.0207
   14.265    5.6521
   14.280    5.5643
   14.295    5.9505
   14.310    5.9505
   14.325    5.6170
   14.340    5.6170
   14.355    5.6521
   14.370    5.9681
   14.385    5.8627
   14.400    5.5994
   14.415    5.7048
   14.430    5.7750
   14.445    6.0909
   14.460    5.9154
   14.475    6.0734
   14.490    5.9329
   14.505    6.1436
   14.520    5.3712
   14.535    6.0558
   14.550    6.0558
   14.565    5.8101
   14.580    5.3361
   14.595    5.2133
   14.610    5.6872
   14.625    5.3186
   14.640    5.5643
   14.655    5.9856
   14.670    5.8978
   14.685    5.8803
   14.700    5.4590
   14.715    5.7048
   14.730    5.4239
   14.745    5.5117
   14.760    5.2659
   14.775    5.7223
   14.790    5.7399
   14.805    6.2313
   14.820    6.6351
   14.835    6.3893
   14.850    5.9681
   14.865    6.1436
   14.880    5.4239
   14.895    6.0909
   14.910    6.1085
   14.925    6.1962
   14.940    5.9329
   14.955    6.0909
   14.970    6.0207
   14.985    6.0734
   15.000    5.5819
   15.015    5.7750
   15.030    6.5473
   15.045    6.3016
   15.060    5.8978
   15.075    6.3191
   15.090    6.0734
   15.105    7.3196
   15.120    7.0388
   15.135    6.8808
   15.150    7.4601
   15.165    7.3899
   15.180    7.4776
   15.195    6.6702
   15.210    6.7579
   15.225    6.4069
   15.240    6.0207
   15.255    6.7228
   15.270    5.7925
   15.285    5.8452
   15.300    5.9154
   15.315    5.9329
   15.330    5.9329
   15.345    5.5292
   15.360    5.2659
   15.375    5.2484
   15.390    5.4590
   15.405    6.0383
   15.420    5.8452
   15.435    5.3010
   15.450    5.7925
   15.465    6.1611
   15.480    5.5994
   15.495    5.8101
   15.510    5.8803
   15.525    5.6697
   15.540    6.3367
   15.555    6.0383
   15.570    5.7048
   15.585    5.9856
   15.600    5.3361
   15.615    6.2665
   15.630    5.8803
   15.645    5.4415
   15.660    5.7223
   15.675    5.8803
   15.690    5.7925
   15.705    5.9154
   15.720    6.2489
   15.735    6.0383
   15.750    5.6170
   15.765    5.4590
   15.780    5.6697
   15.795    5.9856
   15.810    6.2313
   15.825    6.1085
   15.840    5.5643
   15.855    6.1787
   15.870    6.0032
   15.885    5.9681
   15.900    6.1962
   15.915    5.5994
   15.930    5.9154
   15.945    5.6345
   15.960    5.8452
   15.975    6.2840
   15.990    6.0032
   16.005    5.5994
   16.020    5.8978
   16.035    5.8978
   16.050    5.9154
   16.065    5.8276
   16.080    6.4595
   16.095    6.6000
   16.110    6.7755
   16.125    6.7053
   16.140    7.1090
   16.155    7.1441
   16.170    6.7053
   16.185    6.4244
   16.200    6.6702
   16.215    6.1962
   16.230    6.0207
   16.245    5.8978
   16.260    5.6697
   16.275    5.8627
   16.290    6.1436
   16.305    6.1436
   16.320    5.8452
   16.335    6.1962
   16.350    5.8452
   16.365    5.7925
   16.380    5.8101
   16.395    6.0558
   16.410    5.8803
   16.425    5.3537
   16.440    5.8978
   16.455    5.3361
   16.470    5.5292
   16.485    6.0734
   16.500    6.2313
   16.515    6.8633
   16.530    6.3191
   16.545    6.3893
   16.560    6.6526
   16.575    6.4244
   16.590    6.9159
   16.605    7.9691
   16.620    7.1441
   16.635    7.1792
   16.650    7.0915
   16.665    6.8984
   16.680    6.5649
   16.695    6.5298
   16.710    6.0734
   16.725    6.5298
   16.740    6.1085
   16.755    5.7223
   16.770    5.9681
   16.785    5.7574
   16.800    6.0734
   16.815    5.6872
   16.830    6.0383
   16.845    6.1611
   16.860    6.0383
   16.875    5.7223
   16.890    5.8627
   16.905    5.7925
   16.920    5.9681
   16.935    6.1260
   16.950    6.1611
   16.965    6.8808
   16.980    6.7755
   16.995    6.4771
   17.010    6.7755
   17.025    7.4952
   17.040    8.2675
   17.055    8.8819
   17.070    8.6537
   17.085    8.8292
   17.100    8.4957
   17.115    8.1797
   17.130    7.4601
   17.145    7.2319
   17.160    6.7228
   17.175    6.4595
   17.190    6.3367
   17.205    6.0207
   17.220    6.1611
   17.235    5.7750
   17.250    5.6872
   17.265    6.0558
   17.280    6.2138
   17.295    6.4244
   17.310    5.4415
   17.325    5.9856
   17.340    5.8803
   17.355    6.0558
   17.370    6.3542
   17.385    6.3016
   17.400    5.8627
   17.415    6.0558
   17.430    6.2665
   17.445    6.4069
   17.460    6.6175
   17.475    6.7579
   17.490    6.2840
   17.505    6.8457
   17.520    7.2670
   17.535    5.9154
   17.550    6.3718
   17.565    6.8106
   17.580    6.0207
   17.595    6.3016
   17.610    6.1787
   17.625    6.1260
   17.640    6.2313
   17.655    6.0032
   17.670    5.8627
   17.685    6.3367
   17.700    6.0734
   17.715    5.7925
   17.730    5.9154
   17.745    6.1611
   17.760    6.1260
   17.775    6.0734
   17.790    6.5298
   17.805    5.7223
   17.820    5.7399
   17.835    5.8276
   17.850    6.0032
   17.865    5.6170
   17.880    6.1787
   17.895    6.4069
   17.910    6.5122
   17.925    6.6877
   17.940    6.7228
   17.955    6.4771
   17.970    6.2665
   17.985    6.7228
   18.000    6.8633
   18.015    6.3016
   18.030    6.2313
   18.045    6.2665
   18.060    5.8978
   18.075    6.2489
   18.090    6.1260
   18.105    5.7399
   18.120    5.7223
   18.135    5.8803
   18.150    5.6521
   18.165    5.4590
   18.180    5.7048
   18.195    5.8101
   18.210    6.2489
   18.225    6.3191
   18.240    6.2313
   18.255    6.1085
   18.270    5.9856
   18.285    6.6526
   18.300    6.2313
   18.315    6.2665
   18.330    6.1436
   18.345    6.1085
   18.360    6.4069
   18.375    6.8282
   18.390    6.4244
   18.405    6.3542
   18.420    6.7755
   18.435    6.4244
   18.450    6.4069
   18.465    6.5298
   18.480    5.8803
   18.495    5.5643
   18.510    6.0909
   18.525    5.8276
   18.540    5.8101
   18.555    5.5468
   18.570    6.1436
   18.585    5.8276
   18.600    5.8276
   18.615    6.2489
   18.630    6.1436
   18.645    6.3893
   18.660    6.1260
   18.675    6.1436
   18.690    5.6521
   18.705    6.3542
   18.720    6.3016
   18.735    5.9856
   18.750    6.0207
   18.765    6.7404
   18.780    6.5649
   18.795    6.4069
   18.810    6.4771
   18.825    6.1962
   18.840    6.3893
   18.855    6.9861
   18.870    6.2665
   18.885    6.0383
   18.900    6.0207
   18.915    6.4771
   18.930    6.4946
   18.945    6.0909
   18.960    6.3191
   18.975    6.0909
   18.990    5.9681
   19.005    5.8452
   19.020    6.0558
   19.035    5.6170
   19.050    5.7925
   19.065    6.5649
   19.080    5.7048
   19.095    5.6872
   19.110    5.5117
   19.125    5.5643
   19.140    6.1611
   19.155    6.0734
   19.170    6.2665
   19.185    6.2313
   19.200    6.0909
   19.215    6.4771
   19.230    6.2138
   19.245    5.8978
   19.260    5.7223
   19.275    5.7048
   19.290    5.6697
   19.305    5.5643
   19.320    6.1611
   19.335    6.0558
   19.350    5.7925
   19.365    5.7048
   19.380    6.0207
   19.395    5.8276
   19.410    5.5117
   19.425    6.0032
   19.440    6.3016
   19.455    6.0032
   19.470    6.0207
   19.485    5.7925
   19.500    6.2138
   19.515    6.0207
   19.530    6.0032
   19.545    6.3718
   19.560    6.8457
   19.575    7.2143
   19.590    7.0563
   19.605    7.1441
   19.620    7.2319
   19.635    7.2845
   19.650    6.7579
   19.665    7.1968
   19.680    7.2319
   19.695    6.7755
   19.710    5.9856
   19.725    5.6345
   19.740    6.0734
   19.755    5.9505
   19.770    5.5117
   19.785    5.8803
   19.800    6.3016
   19.815    5.7399
   19.830    5.6872
   19.845    5.9856
   19.860    6.0383
   19.875    5.9154
   19.890    6.0383
   19.905    6.1085
   19.920    6.0207
   19.935    5.4941
   19.950    5.6872
   19.965    6.4595
   19.980    6.2138
   19.995    6.5473
   20.010    6.3016
   20.025    6.3191
   20.040    6.4946
   20.055    6.1962
   20.070    6.6702
   20.085    6.0207
   20.100    6.3367
   20.115    6.4244
   20.130    5.8452
   20.145    5.7750
   20.160    5.9681
   20.175    6.3191
   20.190    5.8101
   20.205    5.8978
   20.220    5.9505
   20.235    5.9856
   20.250    6.2489
   20.265    6.6175
   20.280    6.4771
   20.295    6.5298
   20.310    6.7053
   20.325    7.0739
   20.340    6.9159
   20.355    7.8462
   20.370    8.1622
   20.385    8.3202
   20.400    8.0569
   20.415    7.9691
   20.430    7.6532
   20.445    7.8638
   20.460    7.4776
   20.475    7.0388
   20.490    6.9159
   20.505    6.3367
   20.520    6.6351
   20.535    6.1962
   20.550    5.9681
   20.565    6.1962
   20.580    6.0558
   20.595    6.1085
   20.610    5.7925
   20.625    6.0032
   20.640    5.9681
   20.655    5.8276
   20.670    5.3361
   20.685    6.2489
   20.700    5.8452
   20.715    6.4244
   20.730    6.3542
   20.745    5.8627
   20.760    5.7399
   20.775    5.9329
   20.790    6.0909
   20.805    6.7053
   20.820    6.4244
   20.835    5.9329
   20.850    6.2840
   20.865    6.0909
   20.880    5.8452
   20.895    6.1787
   20.910    6.6000
   20.925    5.8276
   20.940    6.0207
   20.955    6.0909
   20.970    5.8101
   20.985    5.9154
   21.000    6.4069
   21.015    6.0734
   21.030    6.5122
   21.045    6.3191
   21.060    6.4595
   21.075    6.1787
   21.090    5.7399
   21.105    6.2138
   21.120    6.6351
   21.135    5.6170
   21.150    6.0383
   21.165    6.2489
   21.180    6.0734
   21.195    5.8978
   21.210    6.2665
   21.225    6.0558
   21.240    5.8452
   21.255    5.9681
   21.270    5.8627
   21.285    6.0734
   21.300    6.3016
   21.315    5.7574
   21.330    6.1260
   21.345    6.1787
   21.360    5.8452
   21.375    6.0558
   21.390    5.8276
   21.405    6.3016
   21.420    6.1611
   21.435    5.6521
   21.450    5.9154
   21.465    5.8276
   21.480    5.9681
   21.495    6.4069
   21.510    6.7228
   21.525    6.0383
   21.540    6.2138
   21.555    6.1611
   21.570    6.3542
   21.585    5.9681
   21.600    5.7399
   21.615    6.0207
   21.630    6.2665
   21.645    6.0909
   21.660    6.2489
   21.675    6.4946
   21.690    6.3893
   21.705    6.1962
   21.720    6.4420
   21.735    6.3893
   21.750    5.7399
   21.765    6.5122
   21.780    6.6877
   21.795    6.3367
   21.810    6.4771
   21.825    7.1090
   21.840    6.8282
   21.855    7.0212
   21.870    6.4771
   21.885    6.4420
   21.900    6.8633
   21.915    6.8984
   21.930    6.3542
   21.945    6.5473
   21.960    6.2489
   21.975    6.7930
   21.990    6.2313
   22.005    6.0207
   22.020    6.1611
   22.035    6.3191
   22.050    6.1962
   22.065    5.7574
   22.080    6.0383
   22.095    6.6877
   22.110    6.1260
   22.125    6.3191
   22.140    6.1787
   22.155    6.3893
   22.170    6.1260
   22.185    6.2665
   22.200    6.3718
   22.215    7.0915
   22.230    6.5298
   22.245    6.2313
   22.260    7.2319
   22.275    7.4074
   22.290    6.4420
   22.305    6.3016
   22.320    6.4244
   22.335    6.6351
   22.350    6.6526
   22.365    6.1260
   22.380    6.2313
   22.395    6.2840
   22.410    6.1085
   22.425    5.9856
   22.440    6.4244
   22.455    6.5298
   22.470    7.1617
   22.485    6.4946
   22.500    6.8808
   22.515    7.0388
   22.530    7.1968
   22.545    7.6356
   22.560    7.8287
   22.575    8.3553
   22.590    8.1271
   22.605    8.7414
   22.620    8.3728
   22.635    8.0393
   22.650    7.5829
   22.665    7.1968
   22.680    6.6175
   22.695    6.8633
   22.710    6.9510
   22.725    6.6175
   22.740    6.2665
   22.755    6.4244
   22.770    6.5824
   22.785    6.9159
   22.800    7.1441
   22.815    6.2665
   22.830    6.8457
   22.845    7.6707
   22.860    7.5478
   22.875    8.0569
   22.890    8.5308
   22.905    8.7239
   22.920    8.7590
   22.935    8.3202
   22.950    8.8643
   22.965    8.8117
   22.980    8.6712
   22.995    8.0393
   23.010    7.7760
   23.025    6.6526
   23.040    6.7228
   23.055    6.7404
   23.070    6.8984
   23.085    6.4420
   23.100    6.3542
   23.115    6.5122
   23.130    6.1962
   23.145    6.3367
   23.160    6.5473
   23.175    6.4771
   23.190    6.7579
   23.205    6.4946
   23.220    6.2665
   23.235    7.1441
   23.250    7.0563
   23.265    7.1441
   23.280    7.0739
   23.295    6.8808
   23.310    6.8633
   23.325    6.9686
   23.340    6.1787
   23.355    6.2840
   23.370    6.6526
   23.385    6.8984
   23.400    6.4420
   23.415    6.0909
   23.430    5.9154
   23.445    7.1266
   23.460    6.5298
   23.475    6.5824
   23.490    6.1962
   23.505    5.7399
   23.520    6.3016
   23.535    6.2489
   23.550    6.7053
   23.565    6.5473
   23.580    6.3191
   23.595    6.2840
   23.610    6.2665
   23.625    6.7053
   23.640    6.4595
   23.655    6.3016
   23.670    5.8803
   23.685    6.1962
   23.700    6.0909
   23.715    5.8978
   23.730    6.3016
   23.745    5.8978
   23.760    5.8627
   23.775    5.3537
   23.790    5.6697
   23.805    6.1085
   23.820    6.2665
   23.835    6.1611
   23.850    6.0909
   23.865    5.8276
   23.880    6.2489
   23.895    6.7053
   23.910    6.6175
   23.925    6.7228
   23.940    7.1090
   23.955    6.9159
   23.970    6.7930
   23.985    6.8106
   24.000    6.7930
   24.015    6.4946
   24.030    6.5473
   24.045    6.3191
   24.060    6.2489
   24.075    5.8627
   24.090    5.4941
   24.105    5.5468
   24.120    6.0032
   24.135    5.9856
   24.150    6.4420
   24.165    6.1085
   24.180    6.2138
   24.195    6.6526
   24.210    5.9681
   24.225    6.3542
   24.240    6.2138
   24.255    6.1611
   24.270    5.8101
   24.285    5.6697
   24.300    6.0909
   24.315    6.2840
   24.330    5.8803
   24.345    6.1085
   24.360    5.3888
   24.375    5.9856
   24.390    5.9681
   24.405    5.6872
   24.420    5.7750
   24.435    5.6521
   24.450    5.8276
   24.465    5.7750
   24.480    5.9681
   24.495    6.1085
   24.510    5.4415
   24.525    5.5643
   24.540    6.1787
   24.555    6.3718
   24.570    5.7399
   24.585    6.3191
   24.600    6.4420
   24.615    6.3367
   24.630    5.9505
   24.645    6.2313
   24.660    5.9329
   24.675    6.0032
   24.690    5.7925
   24.705    5.6697
   24.720    5.7399
   24.735    6.1260
   24.750    6.0909
   24.765    5.5468
   24.780    6.0032
   24.795    6.0383
   24.810    5.9505
   24.825    5.9856
   24.840    5.7750
   24.855    5.9681
   24.870    5.5117
   24.885    6.1787
   24.900    6.1085
   24.915    5.7574
   24.930    6.0383
   24.945    6.0207
   24.960    5.8803
   24.975    5.4941
   24.990    5.6697
   25.005    6.2665
   25.020    6.0383
   25.035    5.8978
   25.050    5.9505
   25.065    5.3888
   25.080    6.0909
   25.095    5.7574
   25.110    5.5643
   25.125    5.5292
   25.140    5.4941
   25.155    5.8803
   25.170    6.3367
   25.185    6.0734
   25.200    6.2313
   25.215    5.9856
   25.230    6.0032
   25.245    5.8978
   25.260    5.7750
   25.275    6.1085
   25.290    6.0734
   25.305    5.8627
   25.320    5.6345
   25.335    6.1085
   25.350    6.2489
   25.365    5.5994
   25.380    6.0909
   25.395    6.1787
   25.410    6.1962
   25.425    5.6697
   25.440    6.3191
   25.455    6.2138
   25.470    5.7750
   25.485    6.3191
   25.500    5.7925
   25.515    5.8803
   25.530    6.3542
   25.545    6.2840
   25.560    6.1611
   25.575    6.0558
   25.590    5.4766
   25.605    5.7048
   25.620    5.9505
   25.635    5.8276
   25.650    5.7399
   25.665    5.7223
   25.680    6.0032
   25.695    5.8627
   25.710    6.2313
   25.725    6.3367
   25.740    6.3893
   25.755    6.3542
   25.770    6.2840
   25.785    6.8808
   25.800    7.4250
   25.815    6.8106
   25.830    7.4250
   25.845    7.9691
   25.860    7.7409
   25.875    7.5478
   25.890    6.9335
   25.905    6.4069
   25.920    6.3542
   25.935    6.2138
   25.950    5.8452
   25.965    5.7574
   25.980    6.4595
   25.995    5.7750
   26.010    5.7925
   26.025    5.8978
   26.040    5.6345
   26.055    5.9856
   26.070    5.8803
   26.085    5.4590
   26.100    5.4064
   26.115    5.9505
   26.130    6.1611
   26.145    6.0558
   26.160    6.0032
   26.175    5.8978
   26.190    5.9154
   26.205    5.8276
   26.220    5.6170
   26.235    6.0909
   26.250    6.0909
   26.265    5.8452
   26.280    6.0207
   26.295    5.9856
   26.310    5.9856
   26.325    6.1436
   26.340    6.0032
   26.355    5.5292
   26.370    5.6521
   26.385    5.9329
   26.400    6.3893
   26.415    5.9856
   26.430    6.2840
   26.445    6.2840
   26.460    6.1787
   26.475    6.6351
   26.490    6.0909
   26.505    6.4946
   26.520    6.1085
   26.535    5.7750
   26.550    5.6521
   26.565    6.0909
   26.580    6.0558
   26.595    5.5292
   26.610    5.8452
   26.625    5.7399
   26.640    5.7223
   26.655    5.7925
   26.670    5.7925
   26.685    5.4239
   26.700    5.4941
   26.715    5.7750
   26.730    5.6521
   26.745    5.5292
   26.760    5.8803
   26.775    5.4239
   26.790    5.4415
   26.805    5.7574
   26.820    5.5292
   26.835    5.4766
   26.850    5.9505
   26.865    6.0558
   26.880    6.1611
   26.895    6.2665
   26.910    6.2138
   26.925    6.2138
   26.940    6.1611
   26.955    5.8276
   26.970    5.8627
   26.985    5.7223
   27.000    5.9154
   27.015    6.2138
   27.030    6.1787
   27.045    6.1436
   27.060    6.1787
   27.075    6.4244
   27.090    6.0032
   27.105    5.9154
   27.120    6.0032
   27.135    5.8803
   27.150    5.5643
   27.165    5.6872
   27.180    5.7574
   27.195    5.3361
   27.210    5.5468
   27.225    5.6345
   27.240    5.4239
   27.255    5.5994
   27.270    5.2835
   27.285    5.6345
   27.300    5.7048
   27.315    5.1080
   27.330    5.1957
   27.345    5.8101
   27.360    5.4766
   27.375    5.6345
   27.390    5.7223
   27.405    5.9856
   27.420    5.5117
   27.435    5.6345
   27.450    5.7750
   27.465    5.7925
   27.480    5.8101
   27.495    5.9681
   27.510    5.4415
   27.525    5.3537
   27.540    5.4941
   27.555    6.4420
   27.570    6.1611
   27.585    5.1606
   27.600    5.8276
   27.615    6.1085
   27.630    6.1085
   27.645    6.0383
   27.660    6.1260
   27.675    5.8276
   27.690    5.9681
   27.705    5.8276
   27.720    5.7399
   27.735    5.3712
   27.750    5.8276
   27.765    5.5292
   27.780    5.4064
   27.795    5.5117
   27.810    5.5468
   27.825    5.5819
   27.840    5.3537
   27.855    5.2835
   27.870    5.3010
   27.885    5.8978
   27.900    5.6697
   27.915    5.5643
   27.930    6.0558
   27.945    5.6170
   27.960    5.6872
   27.975    5.5819
   27.990    5.7750
   28.005    5.5994
   28.020    5.6170
   28.035    5.3537
   28.050    5.4766
   28.065    5.3010
   28.080    5.2484
   28.095    6.1962
   28.110    5.7925
   28.125    5.6521
   28.140    5.9856
   28.155    5.8627
   28.170    6.1787
   28.185    6.0558
   28.200    6.2313
   28.215    5.8978
   28.230    6.0207
   28.245    6.2840
   28.260    6.0207
   28.275    5.7750
   28.290    5.9154
   28.305    6.0383
   28.320    5.8803
   28.335    5.5117
   28.350    5.6345
   28.365    5.6170
   28.380    5.5468
   28.395    5.8627
   28.410    5.6521
   28.425    5.7048
   28.440    5.7925
   28.455    6.2489
   28.470    6.0383
   28.485    6.1085
   28.500    6.0558
   28.515    6.2840
   28.530    5.7925
   28.545    5.5468
   28.560    6.0207
   28.575    5.7223
   28.590    5.5994
   28.605    5.3712
   28.620    5.6345
   28.635    5.4590
   28.650    5.7223
   28.665    5.5468
   28.680    5.7399
   28.695    5.6872
   28.710    5.2835
   28.725    5.1080
   28.740    5.5117
   28.755    5.5468
   28.770    5.1782
   28.785    5.1782
   28.800    5.5292
   28.815    5.8627
   28.830    5.1255
   28.845    4.8798
   28.860    5.4590
   28.875    5.4941
   28.890    5.9505
   28.905    5.6872
   28.920    5.4239
   28.935    5.5819
   28.950    5.3537
   28.965    5.4766
   28.980    5.3361
   28.995    5.2835
   29.010    5.7925
   29.025    5.3888
   29.040    5.7399
   29.055    5.3186
   29.070    5.2835
   29.085    5.4239
   29.100    5.3537
   29.115    5.6345
   29.130    5.1957
   29.145    4.9851
   29.160    5.0377
   29.175    5.6170
   29.190    5.5292
   29.205    5.7223
   29.220    5.7574
   29.235    6.1260
   29.250    5.5819
   29.265    5.8101
   29.280    5.8627
   29.295    5.9154
   29.310    5.7750
   29.325    5.8452
   29.340    6.2313
   29.355    5.6872
   29.370    5.2835
   29.385    5.3712
   29.400    5.8627
   29.415    5.7750
   29.430    5.8276
   29.445    5.6521
   29.460    5.4064
   29.475    5.3537
   29.490    5.3888
   29.505    5.0553
   29.520    5.2659
   29.535    5.5117
   29.550    5.5819
   29.565    5.4415
   29.580    5.2659
   29.595    5.5292
   29.610    5.6170
   29.625    5.5994
   29.640    5.1957
   29.655    5.4239
   29.670    5.2484
   29.685    5.1782
   29.700    5.3537
   29.715    4.8447
   29.730    5.4590
   29.745    5.5643
   29.760    5.2133
   29.775    5.8627
   29.790    5.6697
   29.805    5.8452
   29.820    5.1431
   29.835    5.3888
   29.850    5.4590
   29.865    5.3888
   29.880    5.3186
   29.895    5.3712
   29.910    5.7925
   29.925    5.3010
   29.940    5.5643
   29.955    5.5292
   29.970    5.3010
   29.985    5.4239
   30.000    5.1606
   30.015    5.4766
   30.030    5.4415
   30.045    5.3888
   30.060    5.7750
   30.075    5.1255
   30.090    5.3186
   30.105    5.0377
   30.120    5.2484
   30.135    5.8803
   30.150    5.3888
   30.165    5.0026
   30.180    4.8447
   30.195    5.0728
   30.210    5.2659
   30.225    5.6872
   30.240    5.4941
   30.255    5.4064
   30.270    5.3361
   30.285    5.5643
   30.300    5.4239
   30.315    5.3361
   30.330    5.3712
   30.345    5.3010
   30.360    5.5117
   30.375    5.5292
   30.390    5.7574
   30.405    5.3537
   30.420    4.8447
   30.435    4.9324
   30.450    5.5117
   30.465    4.9324
   30.480    5.3186
   30.495    5.1782
   30.510    4.8973
   30.525    5.0202
   30.540    5.4064
   30.555    5.0904
   30.570    5.1431
   30.585    6.0734
   30.600    5.6521
   30.615    5.4239
   30.630    5.3888
   30.645    5.3361
   30.660    5.2835
   30.675    5.5117
   30.690    5.4064
   30.705    5.5994
   30.720    5.4766
   30.735    5.6872
   30.750    5.0377
   30.765    5.1431
   30.780    5.4415
   30.795    5.0728
   30.810    5.2484
   30.825    5.2835
   30.840    4.8095
   30.855    4.8973
   30.870    5.1606
   30.885    4.6691
   30.900    4.8095
   30.915    5.1606
   30.930    5.1606
   30.945    5.7399
   30.960    5.5994
   30.975    5.6697
   30.990    5.1782
   31.005    4.6165
   31.020    5.3537
   31.035    5.1957
   31.050    4.9675
   31.065    4.9500
   31.080    5.3010
   31.095    5.1782
   31.110    5.2835
   31.125    4.9500
   31.140    4.7569
   31.155    5.0377
   31.170    4.9500
   31.185    4.9149
   31.200    5.3712
   31.215    5.2835
   31.230    4.9851
   31.245    5.0904
   31.260    5.0904
   31.275    5.0904
   31.290    5.2308
   31.305    5.8452
   31.320    5.2484
   31.335    5.5643
   31.350    4.8798
   31.365    5.2835
   31.380    5.4064
   31.395    5.0377
   31.410    5.6872
   31.425    5.2308
   31.440    5.3537
   31.455    5.4590
   31.470    5.8452
   31.485    5.2484
   31.500    5.5994
   31.515    5.3537
   31.530    5.1080
   31.545    5.4590
   31.560    4.9149
   31.575    5.3888
   31.590    5.2133
   31.605    5.5117
   31.620    5.5468
   31.635    5.2659
   31.650    5.4766
   31.665    5.2133
   31.680    5.1782
   31.695    4.6340
   31.710    4.8095
   31.725    4.9149
   31.740    4.9149
   31.755    5.6170
   31.770    5.7048
   31.785    5.8276
   31.800    5.3712
   31.815    5.1782
   31.830    5.2133
   31.845    5.3712
   31.860    4.8973
   31.875    5.1957
   31.890    5.1255
   31.905    5.2484
   31.920    5.7925
   31.935    5.1957
   31.950    5.0553
   31.965    5.5117
   31.980    5.6697
   31.995    5.2484
   32.010    5.2133
   32.025    5.4590
   32.040    5.0553
   32.055    5.2835
   32.070    5.2835
   32.085    4.6340
   32.100    4.9675
   32.115    5.2835
   32.130    5.0553
   32.145    5.2835
   32.160    5.2835
   32.175    5.3537
   32.190    4.7393
   32.205    4.9675
   32.220    5.2308
   32.235    4.6691
   32.250    5.1431
   32.265    5.3888
   32.280    5.7574
   32.295    5.1782
   32.310    5.4941
   32.325    5.5117
   32.340    5.0904
   32.355    4.8973
   32.370    4.8095
   32.385    5.0202
   32.400    5.3712
   32.415    5.3712
   32.430    5.4941
   32.445    4.9149
   32.460    4.8271
   32.475    4.8271
   32.490    5.0026
   32.505    4.4936
   32.520    4.8973
   32.535    5.6170
   32.550    4.9851
   32.565    4.5814
   32.580    5.0202
   32.595    5.1606
   32.610    5.0728
   32.625    4.8973
   32.640    4.7218
   32.655    5.0377
   32.670    5.0728
   32.685    4.8973
   32.700    5.2133
   32.715    4.7920
   32.730    5.0026
   32.745    5.1431
   32.760    4.9149
   32.775    5.4941
   32.790    5.4766
   32.805    5.3361
   32.820    5.4766
   32.835    5.2835
   32.850    4.8622
   32.865    5.2308
   32.880    5.7574
   32.895    5.1431
   32.910    5.1782
   32.925    5.5117
   32.940    5.6170
   32.955    5.1782
   32.970    5.4415
   32.985    5.0728
   33.000    4.8798
   33.015    5.0026
   33.030    5.1080
   33.045    5.4590
   33.060    5.6697
   33.075    5.4590
   33.090    4.9675
   33.105    5.0377
   33.120    5.1782
   33.135    5.5643
   33.150    5.1957
   33.165    5.1782
   33.180    4.9675
   33.195    5.4239
   33.210    4.7920
   33.225    4.7218
   33.240    4.8271
   33.255    4.7920
   33.270    4.9500
   33.285    5.1957
   33.300    5.0202
   33.315    4.8622
   33.330    4.7920
   33.345    4.7569
   33.360    5.0377
   33.375    4.9324
   33.390    4.7744
   33.405    4.3883
   33.420    4.6340
   33.435    5.0026
   33.450    5.0904
   33.465    4.9851
   33.480    4.7042
   33.495    4.9851
   33.510    4.9675
   33.525    5.2484
   33.540    5.0202
   33.555    5.1782
   33.570    5.0202
   33.585    5.0202
   33.600    4.7042
   33.615    4.5287
   33.630    4.8798
   33.645    5.1255
   33.660    5.2484
   33.675    5.1431
   33.690    5.2835
   33.705    4.8622
   33.720    4.7744
   33.735    5.0904
   33.750    4.9500
   33.765    4.9324
   33.780    4.4409
   33.795    5.1080
   33.810    5.4941
   33.825    4.9149
   33.840    5.0377
   33.855    5.3010
   33.870    5.4415
   33.885    5.3888
   33.900    5.0377
   33.915    5.3010
   33.930    5.8101
   33.945    5.6872
   33.960    5.4590
   33.975    4.9324
   33.990    5.1080
   34.005    5.4239
   34.020    5.3361
   34.035    5.4064
   34.050    4.8622
   34.065    4.7042
   34.080    5.0904
   34.095    5.3361
   34.110    4.7042
   34.125    4.9149
   34.140    5.1431
   34.155    5.4766
   34.170    5.4064
   34.185    5.0904
   34.200    4.9851
   34.215    5.4239
   34.230    5.0553
   34.245    5.1431
   34.260    5.0377
   34.275    4.9851
   34.290    4.9324
   34.305    4.8798
   34.320    4.6867
   34.335    4.6691
   34.350    4.7218
   34.365    5.3186
   34.380    5.3888
   34.395    5.2659
   34.410    4.9149
   34.425    5.0377
   34.440    5.0728
   34.455    4.8095
   34.470    5.2133
   34.485    4.9675
   34.500    5.0728
   34.515    5.2133
   34.530    4.7920
   34.545    4.6867
   34.560    5.3361
   34.575    4.9324
   34.590    4.9851
   34.605    4.9851
   34.620    4.9149
   34.635    4.6165
   34.650    5.1431
   34.665    5.0904
   34.680    4.7744
   34.695    4.7393
   34.710    5.1255
   34.725    5.1606
   34.740    5.0026
   34.755    4.8095
   34.770    5.1080
   34.785    4.9675
   34.800    5.1080
   34.815    5.3537
   34.830    5.2835
   34.845    4.9324
   34.860    4.6691
   34.875    5.2484
   34.890    5.1782
   34.905    4.8622
   34.920    5.1431
   34.935    5.0026
   34.950    4.7744
   34.965    4.7744
   34.980    4.5287
   34.995    5.0026
   35.010    4.8973
   35.025    5.2659
   35.040    5.1431
   35.055    4.8622
   35.070    4.5287
   35.085    4.5638
   35.100    4.6867
   35.115    4.9851
   35.130    4.7393
   35.145    4.9675
   35.160    5.3186
   35.175    4.4936
   35.190    4.6867
   35.205    4.5989
   35.220    5.1606
   35.235    5.1606
   35.250    4.4936
   35.265    4.7218
   35.280    5.0553
   35.295    4.6867
   35.310    5.1782
   35.325    4.9851
   35.340    4.8622
   35.355    4.9675
   35.370    4.8447
   35.385    4.8622
   35.400    4.9324
   35.415    5.0377
   35.430    4.6691
   35.445    4.8095
   35.460    4.6691
   35.475    4.8271
   35.490    5.0553
   35.505    5.1080
   35.520    4.5638
   35.535    4.7744
   35.550    4.5814
   35.565    4.8095
   35.580    4.8447
   35.595    4.7042
   35.610    4.7393
   35.625    4.5463
   35.640    4.7218
   35.655    4.9149
   35.670    4.8271
   35.685    4.6691
   35.700    5.0728
   35.715    4.9149
   35.730    4.8798
   35.745    4.7042
   35.760    4.8095
   35.775    5.0728
   35.790    5.0728
   35.805    4.9500
   35.820    4.4058
   35.835    4.7569
   35.850    5.3186
   35.865    5.0026
   35.880    4.7920
   35.895    5.0553
   35.910    5.0377
   35.925    5.1957
   35.940    4.6691
   35.955    4.6165
   35.970    4.7744
   35.985    4.9149
   36.000    5.1606
   36.015    5.0553
   36.030    4.9149
   36.045    4.9149
   36.060    4.5989
   36.075    4.3356
   36.090    5.0026
   36.105    4.8798
   36.120    4.5638
   36.135    4.3883
   36.150    4.6165
   36.165    5.3361
   36.180    4.9149
   36.195    4.9500
   36.210    4.8622
   36.225    4.5814
   36.240    4.6691
   36.255    4.6516
   36.270    4.7042
   36.285    4.8095
   36.300    4.7393
   36.315    4.7393
   36.330    4.9324
   36.345    5.0026
   36.360    5.0026
   36.375    4.6165
   36.390    4.7744
   36.405    4.8622
   36.420    4.6340
   36.435    4.3883
   36.450    4.6340
   36.465    5.2308
   36.480    4.9851
   36.495    4.7218
   36.510    4.6867
   36.525    4.5638
   36.540    4.8271
   36.555    4.5814
   36.570    5.0202
   36.585    4.7218
   36.600    4.7393
   36.615    4.6516
   36.630    4.5814
   36.645    5.0377
   36.660    4.8798
   36.675    4.5638
   36.690    4.9500
   36.705    4.7569
   36.720    4.7393
   36.735    4.6340
   36.750    4.7393
   36.765    4.7744
   36.780    4.6165
   36.795    4.6867
   36.810    4.5287
   36.825    4.7042
   36.840    4.7393
   36.855    5.0026
   36.870    4.8095
   36.885    4.2654
   36.900    4.7042
   36.915    5.0026
   36.930    5.0026
   36.945    4.7218
   36.960    4.8973
   36.975    4.3532
   36.990    4.4585
   37.005    4.5814
   37.020    4.7744
   37.035    4.8095
   37.050    4.7920
   37.065    5.1080
   37.080    5.0026
   37.095    4.8973
   37.110    5.0728
   37.125    4.7042
   37.140    4.8973
   37.155    4.5814
   37.170    4.6867
   37.185    4.9149
   37.200    4.7744
   37.215    4.3883
   37.230    4.5814
   37.245    4.6867
   37.260    4.4936
   37.275    4.8447
   37.290    4.6867
   37.305    4.6340
   37.320    4.6691
   37.335    4.7393
   37.350    5.0202
   37.365    4.4585
   37.380    4.5111
   37.395    4.7218
   37.410    4.7569
   37.425    5.0026
   37.440    4.9324
   37.455    4.7744
   37.470    4.7920
   37.485    5.0202
   37.500    4.6516
   37.515    4.9149
   37.530    4.9324
   37.545    4.8271
   37.560    4.6867
   37.575    4.4585
   37.590    4.9675
   37.605    4.6691
   37.620    4.8447
   37.635    4.9851
   37.650    4.6340
   37.665    4.6691
   37.680    4.7569
   37.695    4.5287
   37.710    4.7920
   37.725    4.7744
   37.740    4.8622
   37.755    4.6867
   37.770    4.5814
   37.785    4.5638
   37.800    4.8447
   37.815    4.7218
   37.830    5.1782
   37.845    5.1080
   37.860    4.7569
   37.875    4.7042
   37.890    4.4936
   37.905    4.6867
   37.920    4.9675
   37.935    5.2133
   37.950    4.8271
   37.965    4.6516
   37.980    4.6165
   37.995    4.6165
   38.010    4.6516
   38.025    4.9851
   38.040    5.0202
   38.055    5.0553
   38.070    4.6165
   38.085    4.4234
   38.100    4.7218
   38.115    4.3883
   38.130    3.9846
   38.145    4.2654
   38.160    4.5814
   38.175    5.2484
   38.190    4.5463
   38.205    4.5989
   38.220    4.8095
   38.235    4.5463
   38.250    4.8271
   38.265    4.0548
   38.280    4.4936
   38.295    3.8792
   38.310    4.3707
   38.325    4.9324
   38.340    5.1957
   38.355    4.8622
   38.370    4.9500
   38.385    4.9149
   38.400    4.8973
   38.415    4.8973
   38.430    4.7569
   38.445    4.5463
   38.460    4.7042
   38.475    4.6867
   38.490    4.5814
   38.505    4.7920
   38.520    4.5989
   38.535    5.0377
   38.550    5.0026
   38.565    4.6340
   38.580    4.5111
   38.595    4.3883
   38.610    4.6516
   38.625    4.2303
   38.640    4.5287
   38.655    4.4760
   38.670    4.7744
   38.685    4.6340
   38.700    4.4936
   38.715    4.3532
   38.730    5.0728
   38.745    4.7218
   38.760    4.6516
   38.775    4.5287
   38.790    4.3883
   38.805    4.1952
   38.820    4.6867
   38.835    4.7569
   38.850    4.4234
   38.865    4.8973
   38.880    4.7393
   38.895    4.7744
   38.910    4.2830
   38.925    4.4058
   38.940    4.3707
   38.955    4.7744
   38.970    4.9500
   38.985    4.5463
   39.000    4.6691
   39.015    4.7920
   39.030    4.7393
   39.045    4.7042
   39.060    4.5638
   39.075    4.1952
   39.090    4.3356
   39.105    4.5638
   39.120    4.3532
   39.135    4.8271
   39.150    4.7393
   39.165    4.5989
   39.180    4.8447
   39.195    4.8447
   39.210    4.7042
   39.225    4.1601
   39.240    4.3356
   39.255    4.8095
   39.270    4.8798
   39.285    4.6516
   39.300    4.4234
   39.315    4.3532
   39.330    5.0377
   39.345    4.9500
   39.360    4.5463
   39.375    4.7744
   39.390    4.6340
   39.405    4.4585
   39.420    4.8622
   39.435    4.9324
   39.450    4.6691
   39.465    4.6340
   39.480    4.7920
   39.495    4.8622
   39.510    4.7042
   39.525    4.7569
   39.540    4.6867
   39.555    4.4058
   39.570    5.2308
   39.585    4.9500
   39.600    4.6516
   39.615    4.3707
   39.630    4.3181
   39.645    4.8798
   39.660    4.9149
   39.675    4.7744
   39.690    4.8798
   39.705    4.5463
   39.720    4.8271
   39.735    4.8447
   39.750    4.7920
   39.765    4.5111
   39.780    4.4409
   39.795    4.3356
   39.810    4.7744
   39.825    4.7393
   39.840    4.3005
   39.855    4.6691
   39.870    4.3707
   39.885    5.0377
   39.900    4.8447
   39.915    4.9500
   39.930    4.4058
   39.945    4.5814
   39.960    4.7569
   39.975    4.3532
   39.990    4.2127
