    1.500   13.7792
    1.515   13.8669
    1.530   13.6914
    1.545   12.9893
    1.560   13.3228
    1.575   12.8489
    1.590   12.5680
    1.605   12.5680
    1.620   12.6909
    1.635   12.2345
    1.650   12.6382
    1.665   12.2345
    1.680   12.5856
    1.695   12.1116
    1.710   11.7957
    1.725   11.3042
    1.740   11.5499
    1.755   11.2691
    1.770   11.4095
    1.785   11.2515
    1.800   11.4797
    1.815   11.0058
    1.830   10.9882
    1.845   11.0233
    1.860   10.8654
    1.875   10.8303
    1.890   10.9531
    1.905   11.2515
    1.920   10.2510
    1.935   10.2335
    1.950   10.2861
    1.965   10.0404
    1.980    9.7420
    1.995   10.3739
    2.010    9.8122
    2.025   10.4441
    2.040    9.9526
    2.055    9.3734
    2.070    9.6718
    2.085    9.8297
    2.100    9.5489
    2.115    9.3207
    2.130    9.6191
    2.145    9.5840
    2.160    9.3734
    2.175    9.4611
    2.190    9.8122
    2.205    9.6015
    2.220    9.6893
    2.235    9.3207
    2.250    9.1978
    2.265    9.1627
    2.280    8.6010
    2.295    8.4430
    2.310    9.4962
    2.325    8.8117
    2.340    8.9521
    2.355    9.1101
    2.370    8.4255
    2.385    8.6361
    2.400    8.3377
    2.415    8.2324
    2.430    8.6712
    2.445    8.8292
    2.460    8.1446
    2.475    8.3553
    2.490    8.4606
    2.505    7.9691
    2.520    8.3553
    2.535    8.3553
    2.550    8.0393
    2.565    7.8989
    2.580    8.0920
    2.595    8.0393
    2.610    8.3728
    2.625    8.6537
    2.640    8.1095
    2.655    7.9516
    2.670    7.5127
    2.685    7.6356
    2.700    8.1271
    2.715    8.0920
    2.730    7.3196
    2.745    7.5303
    2.760    7.7234
    2.775    8.4079
    2.790    7.8462
    2.805    7.8111
    2.820    7.6883
    2.835    7.8813
    2.850    7.9867
    2.865    7.6532
    2.880    7.9164
    2.895    7.7585
    2.910    7.8287
    2.925    7.8462
    2.940    8.3377
    2.955    7.7760
    2.970    8.1271
    2.985    8.4781
    3.000    7.5478
    3.015    7.3021
    3.030    7.5478
    3.045    7.7058
    3.060    7.3899
    3.075    7.8462
    3.090    7.6180
    3.105    7.8989
    3.120    8.2324
    3.135    7.7760
    3.150    7.2670
    3.165    7.7409
    3.180    7.6532
    3.195    7.9867
    3.210    7.6883
    3.225    7.8989
    3.240    7.4601
    3.255    7.9867
    3.270    8.2675
    3.285    8.0218
    3.300    8.3026
    3.315    8.4606
    3.330    8.6361
    3.345    8.3026
    3.360    8.1271
    3.375    8.7941
    3.390    8.2324
    3.405    8.6361
    3.420    9.1276
    3.435    8.7590
    3.450    8.8292
    3.465    9.0047
    3.480    8.9521
    3.495    9.0398
    3.510   10.0228
    3.525    9.6367
    3.540    9.0574
    3.555    9.3734
    3.570   10.2861
    3.585    9.9702
    3.600   10.4090
    3.615   10.6547
    3.630   11.1638
    3.645   10.9356
    3.660   12.1643
    3.675   11.6553
    3.690   11.9361
    3.705   12.9015
    3.720   13.4457
    3.735   13.9898
    3.750   14.9552
    3.765   15.9733
    3.780   16.9914
    3.795   17.9393
    3.810   19.5893
    3.825   23.0297
    3.840   25.9259
    3.855   25.9961
    3.870   23.6440
    3.885   21.8361
    3.900   17.8339
    3.915   12.4100
    3.930    9.4260
    3.945    8.5133
    3.960    8.4781
    3.975    7.4425
    3.990    7.9340
    4.005    7.2670
    4.020    7.5478
    4.035    7.8287
    4.050    7.6356
    4.065    7.4952
    4.080    7.5478
    4.095    7.2319
    4.110    7.1617
    4.125    7.6532
    4.140    7.3899
    4.155    6.9510
    4.170    7.7936
    4.185    8.0569
    4.200    7.0563
    4.215    6.7930
    4.230    6.9686
    4.245    7.2845
    4.260    7.7760
    4.275    7.2670
    4.290    7.4952
    4.305    7.2319
    4.320    7.1266
    4.335    6.7053
    4.350    7.7760
    4.365    7.5303
    4.380    7.1792
    4.395    7.3372
    4.410    7.1266
    4.425    7.1792
    4.440    7.1617
    4.455    7.5478
    4.470    7.4601
    4.485    7.4776
    4.500    7.2494
    4.515    7.4074
    4.530    7.3021
    4.545    7.1792
    4.560    7.4952
    4.575    7.2494
    4.590    6.9510
    4.605    7.1441
    4.620    7.3372
    4.635    7.5478
    4.650    7.5127
    4.665    7.7760
    4.680    7.5654
    4.695    7.7058
    4.710    7.6005
    4.725    7.5127
    4.740    6.9510
    4.755    7.2845
    4.770    7.0739
    4.785    7.9164
    4.800    8.0920
    4.815    8.3026
    4.830    7.8462
    4.845    7.2143
    4.860    7.9516
    4.875    7.2494
    4.890    7.5478
    4.905    7.8111
    4.920    7.7234
    4.935    8.0920
    4.950    8.4255
    4.965    8.1797
    4.980    8.1446
    4.995    8.6712
    5.010    8.1095
    5.025    7.8638
    5.040    7.7585
    5.055    8.5133
    5.070    8.4606
    5.085    8.6361
    5.100    8.5308
    5.115    8.9345
    5.130    9.2856
    5.145    8.7239
    5.160    9.0750
    5.175    9.3734
    5.190    9.2154
    5.205    9.4611
    5.220    9.7244
    5.235   10.0404
    5.250    9.7420
    5.265   10.2510
    5.280   10.3388
    5.295   10.4792
    5.310   10.6021
    5.325   10.8829
    5.340   11.2340
    5.355   11.4271
    5.370   11.4797
    5.385   12.0765
    5.400   12.3223
    5.415   12.7962
    5.430   13.5334
    5.445   14.4813
    5.460   15.5169
    5.475   16.1489
    5.490   15.2536
    5.505   14.3233
    5.520   13.3579
    5.535   12.6031
    5.550   10.9356
    5.565   10.4090
    5.580   10.3563
    5.595    9.8297
    5.610   10.1457
    5.625    9.6893
    5.640   10.0053
    5.655    9.3558
    5.670    9.5664
    5.685   10.1457
    5.700    9.5840
    5.715    9.4260
    5.730    9.2856
    5.745    9.4260
    5.760    9.3909
    5.775    8.4957
    5.790    9.0750
    5.805    8.9696
    5.820    8.7590
    5.835    8.4430
    5.850    8.0218
    5.865    8.1446
    5.880    8.3202
    5.895    7.6883
    5.910    7.8462
    5.925    7.7760
    5.940    7.9164
    5.955    7.5478
    5.970    7.2670
    5.985    7.7234
    6.000    7.1792
    6.015    7.7585
    6.030    7.6180
    6.045    7.3372
    6.060    7.2319
    6.075    7.1792
    6.090    7.4425
    6.105    6.9335
    6.120    7.3723
    6.135    7.3723
    6.150    7.7234
    6.165    7.3372
    6.180    6.8984
    6.195    6.6702
    6.210    6.9335
    6.225    7.2319
    6.240    7.4250
    6.255    7.4074
    6.270    6.6000
    6.285    6.9686
    6.300    7.2494
    6.315    6.8808
    6.330    7.8287
    6.345    7.6883
    6.360    7.2494
    6.375    7.1792
    6.390    7.0037
    6.405    6.9686
    6.420    7.1441
    6.435    6.8106
    6.450    6.8808
    6.465    6.6526
    6.480    6.4771
    6.495    7.0212
    6.510    6.9861
    6.525    6.9861
    6.540    7.0037
    6.555    7.0037
    6.570    7.0563
    6.585    6.7228
    6.600    7.5829
    6.615    7.4952
    6.630    7.6883
    6.645    7.4952
    6.660    7.4074
    6.675    8.2675
    6.690    8.5659
    6.705    9.5664
    6.720    9.8122
    6.735    9.3558
    6.750    9.0750
    6.765    8.4781
    6.780    7.6005
    6.795    6.6877
    6.810    6.1436
    6.825    6.2489
    6.840    6.0909
    6.855    5.9329
    6.870    6.2138
    6.885    6.2313
    6.900    6.3893
    6.915    6.0558
    6.930    6.2665
    6.945    6.3542
    6.960    6.1611
    6.975    6.1787
    6.990    5.9505
    7.005    6.1260
    7.020    6.1787
    7.035    6.1436
    7.050    5.8978
    7.065    5.7574
    7.080    5.8101
    7.095    6.0383
    7.110    5.9505
    7.125    6.5824
    7.140    6.0032
    7.155    5.6872
    7.170    6.0032
    7.185    6.0383
    7.200    5.8803
    7.215    6.1260
    7.230    6.0032
    7.245    6.1787
    7.260    5.8276
    7.275    5.6697
    7.290    5.6170
    7.305    5.8452
    7.320    5.2133
    7.335    5.0904
    7.350    5.4766
    7.365    5.2835
    7.380    5.0377
    7.395    5.3537
    7.410    5.3712
    7.425    5.2835
    7.440    5.3537
    7.455    5.7399
    7.470    5.5468
    7.485    5.4415
    7.500    5.3361
    7.515    5.7223
    7.530    5.5994
    7.545    5.5994
    7.560    6.0558
    7.575    5.4941
    7.590    5.8978
    7.605    5.8101
    7.620    5.5643
    7.635    5.5292
    7.650    5.6521
    7.665    5.8803
    7.680    5.4590
    7.695    5.5468
    7.710    5.4590
    7.725    5.7925
    7.740    6.3367
    7.755    6.9861
    7.770    6.6526
    7.785    6.5122
    7.800    5.9505
    7.815    5.5819
    7.830    5.6872
    7.845    5.6697
    7.860    5.2308
    7.875    4.8622
    7.890    4.9500
    7.905    4.9851
    7.920    4.7218
    7.935    5.1255
    7.950    5.0026
    7.965    4.4585
    7.980    4.8973
    7.995    4.7218
    8.010    4.9675
    8.025    4.8973
    8.040    5.1080
    8.055    5.3537
    8.070    4.9851
    8.085    4.9324
    8.100    5.0553
    8.115    4.8622
    8.130    5.1255
    8.145    5.4941
    8.160    4.6867
    8.175    4.5111
    8.190    4.5287
    8.205    4.9149
    8.220    4.4585
    8.235    4.5638
    8.250    4.5989
    8.265    4.1776
    8.280    4.6340
    8.295    4.8095
    8.310    4.6867
    8.325    5.0026
    8.340    4.5814
    8.355    4.3707
    8.370    4.6340
    8.385    4.4936
    8.400    4.9675
    8.415    5.1431
    8.430    4.5814
    8.445    4.7042
    8.460    4.9500
    8.475    4.5989
    8.490    5.0026
    8.505    4.9500
    8.520    4.6165
    8.535    4.6340
    8.550    4.6691
    8.565    4.5287
    8.580    4.4234
    8.595    4.5814
    8.610    4.3181
    8.625    4.4234
    8.640    4.5463
    8.655    4.6691
    8.670    4.6340
    8.685    4.7920
    8.700    4.7920
    8.715    4.7569
    8.730    4.7042
    8.745    4.8798
    8.760    4.6165
    8.775    4.9149
    8.790    4.1074
    8.805    3.9670
    8.820    4.5111
    8.835    4.4058
    8.850    4.1776
    8.865    4.3883
    8.880    4.7393
    8.895    4.8271
    8.910    4.4409
    8.925    4.0548
    8.940    4.3532
    8.955    4.4760
    8.970    4.5989
    8.985    4.3532
    9.000    4.4409
    9.015    4.7569
    9.030    4.4234
    9.045    4.7569
    9.060    4.5814
    9.075    4.4585
    9.090    4.4409
    9.105    4.6516
    9.120    4.4234
    9.135    4.1776
    9.150    3.8792
    9.165    4.4058
    9.180    4.3005
    9.195    4.9851
    9.210    4.1776
    9.225    4.0021
    9.240    4.3883
    9.255    4.5989
    9.270    4.5814
    9.285    4.4936
    9.300    4.7569
    9.315    4.6165
    9.330    5.0553
    9.345    4.8622
    9.360    4.6867
    9.375    5.1606
    9.390    5.2484
    9.405    5.0377
    9.420    4.8447
    9.435    5.3186
    9.450    5.5643
    9.465    6.0909
    9.480    6.0207
    9.495    6.7228
    9.510    7.7058
    9.525    8.4957
    9.540    8.5484
    9.555    8.1446
    9.570    7.2845
    9.585    6.3367
    9.600    5.6521
    9.615    5.1080
    9.630    4.7920
    9.645    4.5111
    9.660    4.2303
    9.675    4.4234
    9.690    4.3356
    9.705    4.4409
    9.720    4.3356
    9.735    4.5111
    9.750    4.5463
    9.765    4.2478
    9.780    4.0372
    9.795    4.4409
    9.810    4.9851
    9.825    4.4409
    9.840    4.3707
    9.855    4.7920
    9.870    4.5287
    9.885    4.7218
    9.900    4.5814
    9.915    4.2478
    9.930    4.4409
    9.945    4.5814
    9.960    4.3532
    9.975    4.5111
    9.990    4.2127
   10.005    4.6691
   10.020    4.3005
   10.035    4.5287
   10.050    4.6340
   10.065    4.1425
   10.080    4.2478
   10.095    4.4585
   10.110    4.5287
   10.125    4.9851
   10.140    4.5989
   10.155    4.3707
   10.170    4.3707
   10.185    4.3532
   10.200    4.3707
   10.215    4.6867
   10.230    4.9675
   10.245    5.1080
   10.260    4.9851
   10.275    5.7048
   10.290    5.6170
   10.305    5.9856
   10.320    6.7404
   10.335    5.3712
   10.350    5.5117
   10.365    5.2308
   10.380    5.0904
   10.395    4.8973
   10.410    4.6165
   10.425    4.4409
   10.440    4.3181
   10.455    4.1425
   10.470    4.2303
   10.485    4.4585
   10.500    4.2830
   10.515    4.6340
   10.530    4.2303
   10.545    4.5287
   10.560    4.3181
   10.575    3.9846
   10.590    3.8792
   10.605    4.6867
   10.620    4.5638
   10.635    4.5638
   10.650    4.3532
   10.665    4.5814
   10.680    4.3532
   10.695    4.6165
   10.710    4.5111
   10.725    4.5638
   10.740    4.3883
   10.755    4.4409
   10.770    4.3005
   10.785    4.5814
   10.800    4.9324
   10.815    4.6691
   10.830    4.5814
   10.845    4.7569
   10.860    4.6340
   10.875    4.9324
   10.890    5.0026
   10.905    5.0202
   10.920    5.0377
   10.935    5.3537
   10.950    5.1782
   10.965    5.6345
   10.980    5.3712
   10.995    5.5994
   11.010    6.1260
   11.025    6.1611
   11.040    6.2138
   11.055    6.0558
   11.070    5.6521
   11.085    5.5643
   11.100    4.7569
   11.115    4.6165
   11.130    4.5111
   11.145    4.5814
   11.160    4.6340
   11.175    4.7920
   11.190    4.8973
   11.205    4.7218
   11.220    5.0202
   11.235    4.5814
   11.250    4.4409
   11.265    4.1601
   11.280    4.4760
   11.295    5.1606
   11.310    4.8622
   11.325    4.7569
   11.340    4.7744
   11.355    4.4585
   11.370    4.9149
   11.385    4.6165
   11.400    4.3356
   11.415    4.5638
   11.430    4.3707
   11.445    4.5287
   11.460    4.8447
   11.475    4.6691
   11.490    4.4936
   11.505    4.8095
   11.520    4.8798
   11.535    4.7393
   11.550    4.6867
   11.565    4.6340
   11.580    4.9324
   11.595    4.9675
   11.610    5.3361
   11.625    4.9675
   11.640    4.9149
   11.655    4.9500
   11.670    5.8452
   11.685    6.4244
   11.700    6.3718
   11.715    6.2313
   11.730    6.1611
   11.745    5.5468
   11.760    5.2835
   11.775    5.0026
   11.790    5.0026
   11.805    4.6691
   11.820    4.7393
   11.835    4.5989
   11.850    4.5638
   11.865    4.8095
   11.880    4.5638
   11.895    4.3532
   11.910    4.5287
   11.925    4.3005
   11.940    4.8973
   11.955    4.5989
   11.970    4.5814
   11.985    5.0728
   12.000    4.7042
   12.015    4.6516
   12.030    4.6691
   12.045    4.5287
   12.060    4.6516
   12.075    4.3181
   12.090    4.2830
   12.105    4.5638
   12.120    4.4409
   12.135    4.3181
   12.150    4.3707
   12.165    4.3707
   12.180    4.0899
   12.195    4.5463
   12.210    4.5111
   12.225    4.1074
   12.240    3.9670
   12.255    4.2830
   12.270    4.3883
   12.285    4.4936
   12.300    4.3707
   12.315    4.4585
   12.330    4.6691
   12.345    4.9324
   12.360    4.7744
   12.375    4.4409
   12.390    4.5111
   12.405    4.3532
   12.420    4.5814
   12.435    4.3532
   12.450    4.2830
   12.465    4.3356
   12.480    4.3707
   12.495    4.2127
   12.510    4.1952
   12.525    4.2478
   12.540    4.5463
   12.555    4.3005
   12.570    4.3181
   12.585    4.2478
   12.600    4.4058
   12.615    4.5638
   12.630    4.2830
   12.645    4.6165
   12.660    4.5287
   12.675    4.3356
   12.690    4.4409
   12.705    4.5287
   12.720    4.1601
   12.735    4.0372
   12.750    4.0372
   12.765    3.8792
   12.780    4.4409
   12.795    4.3532
   12.810    4.6516
   12.825    4.7218
   12.840    4.6516
   12.855    4.4234
   12.870    4.5463
   12.885    4.8271
   12.900    4.8095
   12.915    4.9675
   12.930    5.1431
   12.945    5.1606
   12.960    4.9675
   12.975    5.1957
   12.990    4.8973
   13.005    4.7042
   13.020    4.6165
   13.035    4.4234
   13.050    4.5989
   13.065    4.6516
   13.080    4.0723
   13.095    4.4760
   13.110    4.0197
   13.125    4.1952
   13.140    4.1952
   13.155    4.0197
   13.170    4.0723
   13.185    4.2830
   13.200    4.4409
   13.215    4.1250
   13.230    4.4760
   13.245    4.3356
   13.260    3.8617
   13.275    4.3181
   13.290    4.3707
   13.305    4.0723
   13.320    4.1776
   13.335    4.4058
   13.350    4.0899
   13.365    3.9319
   13.380    4.0899
   13.395    4.1952
   13.410    4.3883
   13.425    4.5638
   13.440    4.6516
   13.455    4.6867
   13.470    4.8271
   13.485    4.6340
   13.500    4.8622
   13.515    4.6165
   13.530    5.1957
   13.545    5.0377
   13.560    4.8798
   13.575    4.5814
   13.590    4.6516
   13.605    4.5638
   13.620    4.4234
   13.635    4.2830
   13.650    4.0197
   13.665    4.3532
   13.680    4.2127
   13.695    4.2654
   13.710    4.5814
   13.725    4.6340
   13.740    4.5287
   13.755    4.3883
   13.770    4.3883
   13.785    3.9319
   13.800    4.0372
   13.815    4.3707
   13.830    4.1250
   13.845    4.3707
   13.860    4.4760
   13.875    3.9670
   13.890    4.4058
   13.905    4.4234
   13.920    4.5814
   13.935    4.2478
   13.950    4.3707
   13.965    4.4936
   13.980    4.5287
   13.995    4.4234
   14.010    4.4234
   14.025    4.3356
   14.040    4.5287
   14.055    4.9500
   14.070    5.6521
   14.085    5.4941
   14.100    5.6697
   14.115    5.2133
   14.130    4.8798
   14.145    4.9500
   14.160    4.3707
   14.175    4.3532
   14.190    4.5989
   14.205    5.2659
   14.220    4.8622
   14.235    4.9675
   14.250    4.8973
   14.265    4.4936
   14.280    4.7042
   14.295    4.7569
   14.310    4.3532
   14.325    4.2478
   14.340    4.5287
   14.355    5.0202
   14.370    4.9851
   14.385    4.6867
   14.400    4.4585
   14.415    4.6691
   14.430    5.0026
   14.445    4.8447
   14.460    4.7042
   14.475    4.3356
   14.490    4.8622
   14.505    4.6516
   14.520    5.0026
   14.535    4.3707
   14.550    4.3883
   14.565    4.6165
   14.580    4.2127
   14.595    4.5989
   14.610    4.5638
   14.625    4.4234
   14.640    4.3181
   14.655    5.1431
   14.670    5.1606
   14.685    4.7569
   14.700    4.3005
   14.715    4.3532
   14.730    4.1601
   14.745    4.4058
   14.760    4.7393
   14.775    4.4936
   14.790    4.7569
   14.805    4.6165
   14.820    5.0728
   14.835    4.7569
   14.850    4.5638
   14.865    4.8622
   14.880    4.5814
   14.895    4.4760
   14.910    4.2830
   14.925    4.1952
   14.940    4.4234
   14.955    4.5463
   14.970    4.2303
   14.985    3.9846
   15.000    4.3181
   15.015    4.6165
   15.030    4.2830
   15.045    4.3005
   15.060    4.1952
   15.075    4.0899
   15.090    4.5463
   15.105    4.7920
   15.120    4.8271
   15.135    4.5111
   15.150    4.1601
   15.165    4.3005
   15.180    4.4760
   15.195    4.5287
   15.210    4.0548
   15.225    4.1952
   15.240    4.4585
   15.255    4.3181
   15.270    4.0723
   15.285    4.2478
   15.300    4.0899
   15.315    4.3181
   15.330    4.3356
   15.345    4.3356
   15.360    4.4760
   15.375    4.1250
   15.390    3.8968
   15.405    4.1952
   15.420    4.3707
   15.435    4.3707
   15.450    4.3883
   15.465    4.3005
   15.480    4.3707
   15.495    4.2830
   15.510    4.3707
   15.525    4.3707
   15.540    4.3883
   15.555    4.3532
   15.570    4.2830
   15.585    3.9143
   15.600    4.0372
   15.615    4.0899
   15.630    4.3181
   15.645    4.5638
   15.660    4.0021
   15.675    4.0548
   15.690    4.2830
   15.705    4.1074
   15.720    3.8090
   15.735    4.4058
   15.750    4.4585
   15.765    4.6516
   15.780    4.5463
   15.795    4.3532
   15.810    4.0197
   15.825    4.2303
   15.840    3.8266
   15.855    4.0197
   15.870    3.9846
   15.885    4.0548
   15.900    4.3181
   15.915    4.0899
   15.930    4.3356
   15.945    4.7569
   15.960    4.7920
   15.975    3.8968
   15.990    4.1425
   16.005    4.2830
   16.020    4.4936
   16.035    4.2127
   16.050    3.8266
   16.065    4.2830
   16.080    4.4058
   16.095    3.9846
   16.110    3.6510
   16.125    4.1250
   16.140    4.7744
   16.155    4.6867
   16.170    4.5111
   16.185    4.0723
   16.200    4.0548
   16.215    4.3532
   16.230    4.2127
   16.245    4.4058
   16.260    4.3005
   16.275    4.2830
   16.290    3.9670
   16.305    4.2830
   16.320    4.4936
   16.335    4.0021
   16.350    4.1250
   16.365    4.2654
   16.380    4.4234
   16.395    4.5463
   16.410    4.5814
   16.425    4.2127
   16.440    4.1074
   16.455    4.0021
   16.470    4.1074
   16.485    4.3883
   16.500    4.2127
   16.515    3.7915
   16.530    4.0548
   16.545    4.4585
   16.560    4.1776
   16.575    4.3883
   16.590    4.3707
   16.605    4.4409
   16.620    4.3883
   16.635    4.3005
   16.650    4.3181
   16.665    4.4058
   16.680    4.1250
   16.695    4.4409
   16.710    4.2303
   16.725    4.3356
   16.740    4.0548
   16.755    3.8617
   16.770    4.4585
   16.785    4.1074
   16.800    4.2654
   16.815    4.3005
   16.830    4.0197
   16.845    4.0548
   16.860    3.9319
   16.875    3.9494
   16.890    4.0548
   16.905    3.8266
   16.920    4.1601
   16.935    4.6165
   16.950    3.9846
   16.965    3.7037
   16.980    4.3181
   16.995    4.3356
   17.010    4.5814
   17.025    4.6340
   17.040    4.3181
   17.055    5.1431
   17.070    5.2835
   17.085    5.2484
   17.100    4.4760
   17.115    5.0553
   17.130    4.4585
   17.145    4.0899
   17.160    4.4409
   17.175    4.1425
   17.190    3.9670
   17.205    4.0197
   17.220    3.9846
   17.235    4.0197
   17.250    4.0548
   17.265    3.9846
   17.280    3.7564
   17.295    4.0723
   17.310    4.3005
   17.325    3.9494
   17.340    3.8792
   17.355    3.9494
   17.370    4.7042
   17.385    4.4760
   17.400    4.4058
   17.415    4.2478
   17.430    4.0723
   17.445    4.5989
   17.460    4.3532
   17.475    4.1074
   17.490    4.0723
   17.505    4.2303
   17.520    3.7915
   17.535    3.7037
   17.550    4.5111
   17.565    4.2127
   17.580    4.1952
   17.595    4.2127
   17.610    4.3356
   17.625    4.4058
   17.640    3.8792
   17.655    3.8617
   17.670    3.7213
   17.685    4.2127
   17.700    4.3181
   17.715    4.1250
   17.730    3.9670
   17.745    4.1074
   17.760    4.0899
   17.775    4.5111
   17.790    4.0372
   17.805    4.2478
   17.820    4.0899
   17.835    4.6867
   17.850    4.3707
   17.865    4.6691
   17.880    4.6691
   17.895    4.4585
   17.910    4.0021
   17.925    4.3707
   17.940    4.8447
   17.955    4.2478
   17.970    4.4058
   17.985    4.8271
   18.000    4.8622
   18.015    4.7218
   18.030    4.1952
   18.045    4.8095
   18.060    4.5463
   18.075    4.6340
   18.090    4.6867
   18.105    4.7218
   18.120    4.6691
   18.135    4.2654
   18.150    3.9846
   18.165    4.3883
   18.180    4.1952
   18.195    3.9319
   18.210    4.3356
   18.225    3.8090
   18.240    3.9846
   18.255    3.9670
   18.270    3.9143
   18.285    4.0372
   18.300    3.9846
   18.315    4.2303
   18.330    4.4058
   18.345    4.5111
   18.360    4.1074
   18.375    4.5814
   18.390    4.6867
   18.405    4.5287
   18.420    4.3356
   18.435    4.3707
   18.450    4.1425
   18.465    3.8968
   18.480    3.9846
   18.495    3.7564
   18.510    3.9143
   18.525    3.6686
   18.540    3.8090
   18.555    3.9846
   18.570    4.3181
   18.585    3.9846
   18.600    4.1250
   18.615    3.6862
   18.630    3.9319
   18.645    4.0723
   18.660    4.1952
   18.675    3.7915
   18.690    4.4585
   18.705    4.4409
   18.720    4.1074
   18.735    4.4936
   18.750    4.5287
   18.765    4.7042
   18.780    4.4058
   18.795    4.2830
   18.810    3.7739
   18.825    4.2478
   18.840    4.5287
   18.855    4.4936
   18.870    4.1250
   18.885    4.3532
   18.900    4.1601
   18.915    4.3883
   18.930    4.7744
   18.945    5.2308
   18.960    5.5117
   18.975    5.4064
   18.990    5.2308
   19.005    5.5292
   19.020    5.0553
   19.035    4.4936
   19.050    4.4936
   19.065    4.1776
   19.080    3.5457
   19.095    3.7915
   19.110    4.2303
   19.125    3.7739
   19.140    3.7037
   19.155    3.8792
   19.170    3.5282
   19.185    4.1601
   19.200    3.8792
   19.215    4.0021
   19.230    3.9494
   19.245    4.3181
   19.260    3.5457
   19.275    4.0548
   19.290    4.2127
   19.305    3.8266
   19.320    3.6159
   19.335    3.8441
   19.350    3.8968
   19.365    4.1425
   19.380    3.6159
   19.395    3.7037
   19.410    4.0899
   19.425    4.0197
   19.440    4.2127
   19.455    4.0197
   19.470    4.3707
   19.485    4.1952
   19.500    4.0723
   19.515    4.3181
   19.530    4.4936
   19.545    3.9494
   19.560    3.8441
   19.575    4.0372
   19.590    4.2303
   19.605    4.3356
   19.620    4.1425
   19.635    3.9670
   19.650    4.2478
   19.665    4.0197
   19.680    4.2830
   19.695    4.3707
   19.710    4.2303
   19.725    3.9846
   19.740    4.0548
   19.755    4.2127
   19.770    4.0372
   19.785    3.7564
   19.800    3.9143
   19.815    3.9319
   19.830    3.9319
   19.845    3.9670
   19.860    3.9670
   19.875    4.4409
   19.890    4.2654
   19.905    4.0197
   19.920    3.8266
   19.935    3.7388
   19.950    4.1250
   19.965    3.9670
   19.980    4.0197
   19.995    3.6862
   20.010    3.6862
   20.025    3.7213
   20.040    3.9846
   20.055    4.2303
   20.070    3.8441
   20.085    3.9846
   20.100    4.3707
   20.115    3.8090
   20.130    3.8090
   20.145    3.8266
   20.160    3.6862
   20.175    3.3351
   20.190    3.6510
   20.205    3.9846
   20.220    4.1776
   20.235    4.0197
   20.250    4.1074
   20.265    3.9670
   20.280    3.7388
   20.295    3.9846
   20.310    3.8968
   20.325    3.9494
   20.340    4.1074
   20.355    3.9494
   20.370    3.8617
   20.385    4.0899
   20.400    4.0899
   20.415    4.2478
   20.430    4.1250
   20.445    4.0372
   20.460    3.5984
   20.475    3.8266
   20.490    3.7564
   20.505    4.0197
   20.520    3.7213
   20.535    3.8968
   20.550    3.9143
   20.565    3.5633
   20.580    3.2473
   20.595    3.5106
   20.610    3.4580
   20.625    3.8617
   20.640    3.5633
   20.655    3.6862
   20.670    3.8266
   20.685    3.3877
   20.700    3.7037
   20.715    3.7388
   20.730    3.6510
   20.745    3.8266
   20.760    3.8441
   20.775    3.8266
   20.790    4.0021
   20.805    3.3351
   20.820    3.5106
   20.835    3.6510
   20.850    3.5808
   20.865    3.8792
   20.880    3.4404
   20.895    4.0197
   20.910    3.8090
   20.925    3.6159
   20.940    3.5633
   20.955    3.6510
   20.970    3.4580
   20.985    3.8090
   21.000    3.9494
   21.015    4.0372
   21.030    3.8266
   21.045    3.4580
   21.060    3.3351
   21.075    3.4404
   21.090    3.7037
   21.105    3.7037
   21.120    3.8968
   21.135    3.6159
   21.150    3.4755
   21.165    3.5282
   21.180    3.5984
   21.195    3.6510
   21.210    3.6510
   21.225    3.7388
   21.240    3.5457
   21.255    3.5984
   21.270    3.8090
   21.285    3.8266
   21.300    4.0021
   21.315    3.5984
   21.330    3.7915
   21.345    3.7739
   21.360    3.8792
   21.375    3.7213
   21.390    3.8441
   21.405    3.7388
   21.420    3.4580
   21.435    3.5808
   21.450    3.6510
   21.465    3.5457
   21.480    3.7213
   21.495    3.6159
   21.510    3.3877
   21.525    3.4404
   21.540    3.4755
   21.555    3.8266
   21.570    3.8792
   21.585    3.6510
   21.600    3.8266
   21.615    3.7388
   21.630    3.3526
   21.645    3.5984
   21.660    3.5808
   21.675    3.4053
   21.690    3.3702
   21.705    3.6862
   21.720    3.8792
   21.735    3.7564
   21.750    3.5106
   21.765    3.4229
   21.780    3.9670
   21.795    3.8090
   21.810    3.4931
   21.825    3.4931
   21.840    3.7739
   21.855    3.6510
   21.870    3.9494
   21.885    3.4755
   21.900    3.3175
   21.915    3.6686
   21.930    3.3877
   21.945    3.7564
   21.960    3.7739
   21.975    3.7037
   21.990    3.7213
   22.005    3.1947
   22.020    3.5633
   22.035    3.5984
   22.050    3.3877
   22.065    3.2824
   22.080    3.2649
   22.095    3.1596
   22.110    3.3351
   22.125    3.5282
   22.140    3.4931
   22.155    4.0723
   22.170    3.8090
   22.185    3.7037
   22.200    3.7739
   22.215    3.8441
   22.230    4.0021
   22.245    3.7739
   22.260    3.7739
   22.275    3.5633
   22.290    3.5633
   22.305    3.6335
   22.320    3.5282
   22.335    3.5633
   22.350    3.9143
   22.365    3.4404
   22.380    3.2824
   22.395    3.3877
   22.410    3.7213
   22.425    3.4931
   22.440    3.3526
   22.455    3.4580
   22.470    3.5808
   22.485    3.4931
   22.500    3.6159
   22.515    3.6686
   22.530    3.6686
   22.545    3.9846
   22.560    4.1952
   22.575    4.5287
   22.590    4.3883
   22.605    3.9494
   22.620    4.2654
   22.635    4.3532
   22.650    3.7037
   22.665    3.5457
   22.680    3.1596
   22.695    3.7037
   22.710    3.2473
   22.725    3.4931
   22.740    3.0893
   22.755    3.4229
   22.770    3.4931
   22.785    3.5106
   22.800    3.5106
   22.815    3.5106
   22.830    3.3000
   22.845    3.3526
   22.860    3.1947
   22.875    3.2824
   22.890    3.7388
   22.905    4.0548
   22.920    3.9494
   22.935    3.8090
   22.950    4.0372
   22.965    3.9846
   22.980    4.2303
   22.995    3.6686
   23.010    3.6510
   23.025    3.4580
   23.040    3.5282
   23.055    3.4229
   23.070    3.4931
   23.085    3.5457
   23.100    3.8441
   23.115    3.4229
   23.130    3.4580
   23.145    3.7388
   23.160    3.7388
   23.175    3.7564
   23.190    3.4229
   23.205    3.4931
   23.220    3.4053
   23.235    3.6159
   23.250    4.0548
   23.265    3.8090
   23.280    3.1771
   23.295    3.7388
   23.310    3.0718
   23.325    3.2824
   23.340    3.2649
   23.355    3.2473
   23.370    3.3000
   23.385    3.0893
   23.400    3.0718
   23.415    3.2649
   23.430    3.4053
   23.445    3.2824
   23.460    3.1771
   23.475    3.2298
   23.490    3.2649
   23.505    2.9665
   23.520    3.2649
   23.535    3.5106
   23.550    3.2298
   23.565    3.9319
   23.580    3.9494
   23.595    3.6159
   23.610    3.3702
   23.625    3.6686
   23.640    3.6686
   23.655    3.5106
   23.670    3.2473
   23.685    3.3351
   23.700    3.2298
   23.715    3.2298
   23.730    3.2649
   23.745    3.5808
   23.760    3.3526
   23.775    2.8612
   23.790    3.1596
   23.805    2.9314
   23.820    3.2649
   23.835    3.5282
   23.850    3.5457
   23.865    3.3000
   23.880    3.3526
   23.895    3.4755
   23.910    3.2649
   23.925    3.0016
   23.940    3.2122
   23.955    3.1947
   23.970    3.3877
   23.985    3.3000
   24.000    3.0191
   24.015    3.1947
   24.030    3.0893
   24.045    3.1947
   24.060    3.3351
   24.075    3.3175
   24.090    3.0191
   24.105    3.2298
   24.120    3.3000
   24.135    3.0191
   24.150    3.1771
   24.165    3.1245
   24.180    3.0718
   24.195    2.9138
   24.210    3.1420
   24.225    3.4404
   24.240    3.3526
   24.255    3.5808
   24.270    3.3000
   24.285    3.3000
   24.300    3.1947
   24.315    3.3000
   24.330    3.2824
   24.345    3.1947
   24.360    3.2122
   24.375    3.0367
   24.390    3.1245
   24.405    3.1245
   24.420    3.1420
   24.435    3.2649
   24.450    2.8963
   24.465    3.1420
   24.480    3.0016
   24.495    3.3877
   24.510    3.1596
   24.525    3.2473
   24.540    2.9489
   24.555    2.7383
   24.570    2.8085
   24.585    3.0191
   24.600    2.8612
   24.615    3.3702
   24.630    3.3351
   24.645    3.4580
   24.660    3.1596
   24.675    3.2473
   24.690    3.2298
   24.705    3.2298
   24.720    2.9489
   24.735    2.9314
   24.750    3.0191
   24.765    3.3175
   24.780    3.0542
   24.795    3.3000
   24.810    3.2473
   24.825    3.1069
   24.840    3.4931
   24.855    3.2824
   24.870    3.0191
   24.885    3.4053
   24.900    3.3526
   24.915    2.8963
   24.930    2.9314
   24.945    3.1245
   24.960    3.0016
   24.975    2.6330
   24.990    3.1596
   25.005    3.2824
   25.020    3.4053
   25.035    3.0893
   25.050    3.1947
   25.065    3.0542
   25.080    2.7734
   25.095    2.6330
   25.110    2.9489
   25.125    3.0542
   25.140    3.0893
   25.155    3.1947
   25.170    3.1420
   25.185    3.0893
   25.200    3.2122
   25.215    2.8085
   25.230    2.9840
   25.245    2.8260
   25.260    3.0893
   25.275    3.1596
   25.290    3.3877
   25.305    3.1947
   25.320    2.8963
   25.335    2.9489
   25.350    3.2473
   25.365    3.1596
   25.380    2.6330
   25.395    2.6505
   25.410    2.9314
   25.425    3.0016
   25.440    3.0718
   25.455    3.1947
   25.470    3.2298
   25.485    3.0893
   25.500    3.1069
   25.515    3.5282
   25.530    3.0718
   25.545    3.2122
   25.560    3.5282
   25.575    3.1596
   25.590    3.2824
   25.605    3.1245
   25.620    2.9840
   25.635    3.0367
   25.650    3.2122
   25.665    3.4053
   25.680    3.3351
   25.695    3.1245
   25.710    2.9840
   25.725    3.2122
   25.740    3.5457
   25.755    3.1771
   25.770    3.0367
   25.785    3.3702
   25.800    3.5106
   25.815    3.5633
   25.830    3.1245
   25.845    3.4404
   25.860    3.2298
   25.875    3.3000
   25.890    3.0893
   25.905    3.2473
   25.920    3.1771
   25.935    3.0893
   25.950    3.0893
   25.965    2.9665
   25.980    2.6154
   25.995    2.7032
   26.010    3.0016
   26.025    3.0191
   26.040    2.6681
   26.055    2.9314
   26.070    3.1596
   26.085    3.0542
   26.100    3.2473
   26.115    3.0893
   26.130    3.0542
   26.145    3.0718
   26.160    2.9314
   26.175    3.3526
   26.190    3.0718
   26.205    2.6505
   26.220    3.1596
   26.235    3.2122
   26.250    2.8436
   26.265    2.9840
   26.280    3.2122
   26.295    2.9489
   26.310    3.1771
   26.325    3.0016
   26.340    2.8436
   26.355    3.0191
   26.370    3.2824
   26.385    3.0016
   26.400    3.0718
   26.415    3.0893
   26.430    2.9138
   26.445    3.0718
   26.460    2.9665
   26.475    2.7909
   26.490    2.6856
   26.505    3.0016
   26.520    2.9314
   26.535    2.9138
   26.550    2.6154
   26.565    2.6681
   26.580    3.0893
   26.595    3.1420
   26.610    2.8787
   26.625    2.7558
   26.640    2.5979
   26.655    2.7383
   26.670    2.8436
   26.685    2.6505
   26.700    2.6856
   26.715    2.8085
   26.730    2.8260
   26.745    3.1420
   26.760    3.1947
   26.775    2.9840
   26.790    2.5803
   26.805    2.7032
   26.820    3.1069
   26.835    2.7032
   26.850    2.5276
   26.865    2.6681
   26.880    2.7909
   26.895    2.7032
   26.910    2.9840
   26.925    3.2473
   26.940    2.8436
   26.955    2.5979
   26.970    2.4574
   26.985    3.1069
   27.000    2.6330
   27.015    2.7383
   27.030    2.9314
   27.045    2.9665
   27.060    3.2824
   27.075    2.8787
   27.090    2.7909
   27.105    2.8963
   27.120    2.8787
   27.135    3.0542
   27.150    2.6154
   27.165    2.7734
   27.180    2.8085
   27.195    3.1420
   27.210    2.8963
   27.225    2.5101
   27.240    2.8787
   27.255    2.4750
   27.270    2.7207
   27.285    2.7383
   27.300    2.4399
   27.315    2.6856
   27.330    2.8612
   27.345    2.8260
   27.360    2.7032
   27.375    2.6505
   27.390    2.8612
   27.405    2.6154
   27.420    2.5452
   27.435    2.6154
   27.450    2.8085
   27.465    2.4925
   27.480    2.5101
   27.495    2.6856
   27.510    2.9665
   27.525    2.5979
   27.540    2.9314
   27.555    2.8963
   27.570    2.7734
   27.585    2.5803
   27.600    2.7207
   27.615    3.1420
   27.630    2.9314
   27.645    2.9840
   27.660    2.8260
   27.675    2.8612
   27.690    2.6330
   27.705    2.7383
   27.720    2.9665
   27.735    2.4925
   27.750    2.7383
   27.765    3.3000
   27.780    2.9138
   27.795    2.5979
   27.810    2.7558
   27.825    2.7734
   27.840    2.8085
   27.855    2.4574
   27.870    2.4750
   27.885    2.7383
   27.900    2.9665
   27.915    2.9665
   27.930    2.5276
   27.945    3.0718
   27.960    3.3702
   27.975    3.9143
   27.990    4.2478
   28.005    4.3005
   28.020    4.2830
   28.035    3.6159
   28.050    3.0893
   28.065    2.9314
   28.080    3.1069
   28.095    2.9840
   28.110    2.6330
   28.125    2.4925
   28.140    2.7734
   28.155    2.8436
   28.170    2.6681
   28.185    2.7207
   28.200    2.8963
   28.215    2.8787
   28.230    2.7032
   28.245    2.7207
   28.260    2.6154
   28.275    2.9314
   28.290    2.7032
   28.305    2.4574
   28.320    2.5276
   28.335    2.3521
   28.350    2.6681
   28.365    2.8085
   28.380    2.7383
   28.395    2.8260
   28.410    2.7383
   28.425    2.5101
   28.440    2.9665
   28.455    2.8787
   28.470    2.5803
   28.485    2.8612
   28.500    2.7032
   28.515    2.7558
   28.530    2.8436
   28.545    2.8787
   28.560    2.7383
   28.575    2.6681
   28.590    2.6505
   28.605    2.6856
   28.620    2.6681
   28.635    2.7909
   28.650    2.8260
   28.665    2.7909
   28.680    2.5979
   28.695    2.7207
   28.710    2.6856
   28.725    2.4399
   28.740    2.4048
   28.755    2.6154
   28.770    2.7207
   28.785    2.4399
   28.800    2.6330
   28.815    2.6856
   28.830    2.4223
   28.845    2.6505
   28.860    2.5803
   28.875    2.7734
   28.890    3.1771
   28.905    3.3175
   28.920    3.7564
   28.935    4.0021
   28.950    5.2659
   28.965    5.0553
   28.980    5.1080
   28.995    4.5638
   29.010    3.6510
   29.025    3.0893
   29.040    2.7558
   29.055    2.5452
   29.070    2.6856
   29.085    2.5452
   29.100    2.6154
   29.115    2.6154
   29.130    2.7734
   29.145    2.9138
   29.160    2.4750
   29.175    2.2995
   29.190    2.7383
   29.205    2.6330
   29.220    2.7032
   29.235    2.8085
   29.250    2.5979
   29.265    2.5979
   29.280    2.5276
   29.295    2.5803
   29.310    2.6681
   29.325    2.7383
   29.340    2.5979
   29.355    2.6330
   29.370    2.3697
   29.385    2.7207
   29.400    2.5101
   29.415    2.4223
   29.430    2.3697
   29.445    2.5628
   29.460    2.2292
   29.475    2.2117
   29.490    2.4223
   29.505    2.4399
   29.520    2.5101
   29.535    2.4399
   29.550    2.4750
   29.565    2.4925
   29.580    2.4223
   29.595    2.2468
   29.610    2.4399
   29.625    2.3170
   29.640    2.1415
   29.655    2.4925
   29.670    2.3346
   29.685    2.5979
   29.700    2.6330
   29.715    2.3170
   29.730    2.5979
   29.745    2.5803
   29.760    2.4750
   29.775    2.4574
   29.790    2.7909
   29.805    2.4399
   29.820    2.4048
   29.835    2.2292
   29.850    2.0537
   29.865    2.5101
   29.880    2.5101
   29.895    2.1064
   29.910    2.2819
   29.925    2.1941
   29.940    2.4399
   29.955    2.0186
   29.970    2.1941
   29.985    2.1766
   30.000    2.3346
   30.015    2.3697
   30.030    2.4223
   30.045    2.3697
   30.060    2.2643
   30.075    2.1064
   30.090    2.2292
   30.105    2.4399
   30.120    2.3346
   30.135    2.0186
   30.150    2.2643
   30.165    2.2643
   30.180    2.2819
   30.195    2.2995
   30.210    2.1415
   30.225    2.2292
   30.240    2.5101
   30.255    2.1941
   30.270    2.0888
   30.285    2.1239
   30.300    2.2117
   30.315    2.3170
   30.330    2.0888
   30.345    2.1239
   30.360    2.3346
   30.375    2.1064
   30.390    2.4750
   30.405    2.3521
   30.420    2.1941
   30.435    2.1239
   30.450    2.3170
   30.465    1.9133
   30.480    2.1766
   30.495    2.2292
   30.510    1.8957
   30.525    1.8080
   30.540    2.1590
   30.555    2.2643
   30.570    2.2643
   30.585    2.0362
   30.600    1.8957
   30.615    2.2117
   30.630    2.2292
   30.645    2.5979
   30.660    2.2995
   30.675    2.1941
   30.690    2.3170
   30.705    2.2995
   30.720    2.4223
   30.735    2.2819
   30.750    2.3346
   30.765    2.2995
   30.780    2.1590
   30.795    2.1239
   30.810    2.2292
   30.825    2.3170
   30.840    2.4574
   30.855    2.2468
   30.870    2.2117
   30.885    1.9484
   30.900    1.9484
   30.915    2.3170
   30.930    2.2819
   30.945    2.1415
   30.960    2.0537
   30.975    2.2995
   30.990    2.2468
   31.005    2.1766
   31.020    2.1239
   31.035    2.2995
   31.050    2.3170
   31.065    2.2468
   31.080    2.1415
   31.095    2.3697
   31.110    2.2292
   31.125    2.1766
   31.140    2.1239
   31.155    2.3170
   31.170    2.4750
   31.185    2.0362
   31.200    1.7729
   31.215    1.9308
   31.230    2.0888
   31.245    2.2468
   31.260    2.0537
   31.275    2.1239
   31.290    2.2643
   31.305    2.2995
   31.320    2.1239
   31.335    2.2468
   31.350    1.8431
   31.365    2.1766
   31.380    2.0713
   31.395    2.1590
   31.410    2.1590
   31.425    2.3170
   31.440    1.8255
   31.455    2.0011
   31.470    2.2117
   31.485    1.9133
   31.500    2.0537
   31.515    2.0011
   31.530    1.9659
   31.545    2.0713
   31.560    1.9835
   31.575    2.0888
   31.590    1.8782
   31.605    2.0362
   31.620    2.0011
   31.635    2.1064
   31.650    2.1941
   31.665    1.9835
   31.680    2.1239
   31.695    2.1941
   31.710    2.3170
   31.725    2.3521
   31.740    2.2995
   31.755    2.3346
   31.770    2.4048
   31.785    2.3170
   31.800    2.7032
   31.815    2.5803
   31.830    2.6681
   31.845    2.5803
   31.860    2.4399
   31.875    2.8085
   31.890    2.1239
   31.905    2.0011
   31.920    2.0362
   31.935    2.0186
   31.950    1.9484
   31.965    2.0537
   31.980    2.3521
   31.995    2.4048
   32.010    2.3170
   32.025    2.7734
   32.040    3.3702
   32.055    4.4760
   32.070    5.3888
   32.085    5.3537
   32.100    6.0383
   32.115    5.8803
   32.130    4.6867
   32.145    4.2830
   32.160    3.2298
   32.175    2.7558
   32.190    2.4399
   32.205    2.0537
   32.220    2.1941
   32.235    2.2643
   32.250    2.2819
   32.265    1.8255
   32.280    1.9835
   32.295    1.6675
   32.310    1.7904
   32.325    2.2117
   32.340    1.9659
   32.355    1.9308
   32.370    1.6851
   32.385    1.9659
   32.400    2.2292
   32.415    2.3521
   32.430    1.7202
   32.445    1.8957
   32.460    2.2468
   32.475    2.1766
   32.490    2.1415
   32.505    1.8606
   32.520    1.9835
   32.535    2.0186
   32.550    1.9308
   32.565    1.8606
   32.580    2.1064
   32.595    2.1415
   32.610    2.0888
   32.625    2.3170
   32.640    2.0186
   32.655    2.1766
   32.670    1.9835
   32.685    1.8957
   32.700    1.8080
   32.715    1.7553
   32.730    1.7202
   32.745    1.7904
   32.760    1.5271
   32.775    1.8255
   32.790    1.7027
   32.805    1.9835
   32.820    2.3170
   32.835    2.3346
   32.850    2.0362
   32.865    2.1064
   32.880    2.0011
   32.895    1.7904
   32.910    2.0537
   32.925    1.9835
   32.940    1.9659
   32.955    2.0011
   32.970    1.9659
   32.985    2.0713
   33.000    2.2468
   33.015    2.1239
   33.030    1.8782
   33.045    2.0537
   33.060    2.0011
   33.075    2.0186
   33.090    2.0888
   33.105    2.0362
   33.120    2.2117
   33.135    2.0362
   33.150    1.9659
   33.165    1.9308
   33.180    2.0537
   33.195    1.8431
   33.210    1.8255
   33.225    1.8606
   33.240    1.8255
   33.255    1.9484
   33.270    1.8782
   33.285    1.9484
   33.300    2.0186
   33.315    2.0011
   33.330    1.8606
   33.345    1.7378
   33.360    1.7378
   33.375    2.0537
   33.390    1.5973
   33.405    2.0011
   33.420    2.1941
   33.435    1.8957
   33.450    1.8606
   33.465    2.1766
   33.480    2.0362
   33.495    1.9659
   33.510    2.1239
   33.525    2.1941
   33.540    2.0362
   33.555    2.0011
   33.570    1.9835
   33.585    1.7729
   33.600    1.8957
   33.615    1.8782
   33.630    1.7027
   33.645    1.9133
   33.660    2.1239
   33.675    1.9133
   33.690    1.8080
   33.705    2.1239
   33.720    2.0186
   33.735    2.1064
   33.750    2.2468
   33.765    2.4750
   33.780    2.8085
   33.795    3.0367
   33.810    2.6330
   33.825    2.9138
   33.840    2.9138
   33.855    2.6856
   33.870    2.4574
   33.885    2.1239
   33.900    2.1064
   33.915    2.2819
   33.930    1.8782
   33.945    2.0011
   33.960    1.9133
   33.975    1.8431
   33.990    1.8957
   34.005    2.0537
   34.020    2.1064
   34.035    2.1415
   34.050    1.8782
   34.065    1.7553
   34.080    1.8255
   34.095    1.8782
   34.110    1.7027
   34.125    1.8431
   34.140    1.8431
   34.155    2.1239
   34.170    1.8957
   34.185    1.8782
   34.200    1.8782
   34.215    1.8431
   34.230    1.8080
   34.245    1.8255
   34.260    1.5973
   34.275    1.8255
   34.290    1.8606
   34.305    1.5798
   34.320    1.8606
   34.335    1.8255
   34.350    1.6500
   34.365    1.7202
   34.380    1.4569
   34.395    1.6500
   34.410    1.9484
   34.425    1.9835
   34.440    1.7729
   34.455    1.7027
   34.470    1.8782
   34.485    1.8957
   34.500    1.8255
   34.515    1.7027
   34.530    1.7729
   34.545    1.5447
   34.560    1.7729
   34.575    1.8782
   34.590    1.6851
   34.605    1.6149
   34.620    1.6851
   34.635    1.7729
   34.650    1.6500
   34.665    1.8255
   34.680    1.8957
   34.695    1.8957
   34.710    1.8957
   34.725    1.7553
   34.740    1.7202
   34.755    1.9308
   34.770    1.7378
   34.785    1.8957
   34.800    1.9835
   34.815    1.9835
   34.830    1.8080
   34.845    1.8431
   34.860    1.6500
   34.875    2.1415
   34.890    1.9133
   34.905    2.1766
   34.920    2.0011
   34.935    1.9659
   34.950    1.8782
   34.965    1.6500
   34.980    1.7378
   34.995    1.7904
   35.010    1.8255
   35.025    1.7378
   35.040    1.9835
   35.055    1.8080
   35.070    1.6149
   35.085    1.8080
   35.100    1.7904
   35.115    1.9308
   35.130    1.9659
   35.145    1.8957
   35.160    1.8957
   35.175    1.8782
   35.190    1.9308
   35.205    1.8782
   35.220    1.7202
   35.235    2.0186
   35.250    1.7729
   35.265    1.8255
   35.280    1.7553
   35.295    1.8782
   35.310    1.8606
   35.325    1.8080
   35.340    1.8431
   35.355    1.9484
   35.370    1.8606
   35.385    1.8080
   35.400    1.8606
   35.415    1.8255
   35.430    1.7729
   35.445    1.6851
   35.460    1.8255
   35.475    1.8255
   35.490    1.6851
   35.505    1.6149
   35.520    1.9133
   35.535    1.8957
   35.550    1.9659
   35.565    1.9308
   35.580    1.7202
   35.595    1.6500
   35.610    1.9133
   35.625    1.9133
   35.640    1.8782
   35.655    1.8957
   35.670    1.7202
   35.685    1.5622
   35.700    1.6324
   35.715    1.8080
   35.730    2.0186
   35.745    2.1415
   35.760    1.8782
   35.775    1.5973
   35.790    1.7027
   35.805    1.7378
   35.820    1.7553
   35.835    1.7553
   35.850    1.9133
   35.865    1.8957
   35.880    1.5622
   35.895    1.6851
   35.910    1.7729
   35.925    1.6500
   35.940    1.7904
   35.955    1.8255
   35.970    1.8255
   35.985    1.7904
   36.000    1.8431
   36.015    1.8606
   36.030    1.9308
   36.045    1.8957
   36.060    1.9308
   36.075    1.8080
   36.090    1.7553
   36.105    1.4920
   36.120    1.7553
   36.135    1.8255
   36.150    1.7904
   36.165    1.5973
   36.180    1.8080
   36.195    1.7729
   36.210    1.7553
   36.225    1.9835
   36.240    1.8080
   36.255    1.6675
   36.270    1.8255
   36.285    1.8255
   36.300    1.7378
   36.315    1.8957
   36.330    1.6500
   36.345    1.7378
   36.360    1.8255
   36.375    2.0186
   36.390    2.0713
   36.405    2.0011
   36.420    1.8080
   36.435    2.0186
   36.450    1.7553
   36.465    1.7553
   36.480    1.7553
   36.495    1.9835
   36.510    1.9133
   36.525    1.8431
   36.540    1.8957
   36.555    1.7553
   36.570    1.7553
   36.585    1.6675
   36.600    2.0537
   36.615    1.9308
   36.630    1.9484
   36.645    1.8431
   36.660    1.8080
   36.675    1.9484
   36.690    1.9133
   36.705    1.8080
   36.720    1.7378
   36.735    1.8255
   36.750    1.5973
   36.765    1.6149
   36.780    1.6675
   36.795    1.8606
   36.810    1.8080
   36.825    1.6675
   36.840    1.7729
   36.855    1.8431
   36.870    1.9133
   36.885    1.8255
   36.900    1.6324
   36.915    1.6851
   36.930    1.7027
   36.945    1.7202
   36.960    1.8080
   36.975    1.6675
   36.990    1.6324
   37.005    1.7904
   37.020    1.6675
   37.035    1.6324
   37.050    1.9308
   37.065    1.5447
   37.080    1.5447
   37.095    1.5271
   37.110    2.0713
   37.125    1.7553
   37.140    1.7027
   37.155    1.6851
   37.170    2.0186
   37.185    1.7202
   37.200    2.0011
   37.215    1.8606
   37.230    1.5798
   37.245    1.7553
   37.260    1.8431
   37.275    1.6500
   37.290    2.0186
   37.305    1.7904
   37.320    1.6851
   37.335    1.5622
   37.350    1.7904
   37.365    1.8782
   37.380    1.6851
   37.395    1.6851
   37.410    1.4920
   37.425    1.5798
   37.440    1.7553
   37.455    1.9308
   37.470    1.9835
   37.485    1.6149
   37.500    1.5798
   37.515    1.7553
   37.530    1.9133
   37.545    1.7027
   37.560    1.5096
   37.575    1.6324
   37.590    1.5622
   37.605    1.5096
   37.620    1.6149
   37.635    1.7202
   37.650    1.6324
   37.665    1.7729
   37.680    1.7729
   37.695    1.6149
   37.710    1.6675
   37.725    1.5271
   37.740    1.7553
   37.755    1.9659
   37.770    1.7729
   37.785    1.7553
   37.800    1.9484
   37.815    1.7027
   37.830    1.7553
   37.845    1.5447
   37.860    1.6500
   37.875    1.7553
   37.890    1.8255
   37.905    1.6851
   37.920    1.7729
   37.935    1.4745
   37.950    1.5798
   37.965    1.5973
   37.980    1.5973
   37.995    1.7378
   38.010    1.8080
   38.025    1.6500
   38.040    1.6500
   38.055    1.6675
   38.070    1.6851
   38.085    1.8080
   38.100    1.7378
   38.115    1.6675
   38.130    1.2814
   38.145    1.5973
   38.160    1.5973
   38.175    1.6324
   38.190    1.7202
   38.205    1.7904
   38.220    1.6500
   38.235    1.7202
   38.250    1.6324
   38.265    1.6851
   38.280    1.8080
   38.295    1.6500
   38.310    1.6675
   38.325    1.9308
   38.340    1.7202
   38.355    1.4569
   38.370    1.7378
   38.385    1.8080
   38.400    1.6851
   38.415    1.5798
   38.430    1.7202
   38.445    1.5447
   38.460    1.8957
   38.475    1.5973
   38.490    1.7202
   38.505    1.4920
   38.520    1.7202
   38.535    1.8255
   38.550    1.8957
   38.565    2.1415
   38.580    2.2643
   38.595    2.5979
   38.610    2.6330
   38.625    1.9835
   38.640    1.9835
   38.655    1.7729
   38.670    1.5096
   38.685    1.3867
   38.700    1.3516
   38.715    1.7202
   38.730    1.7202
   38.745    1.6149
   38.760    1.4394
   38.775    1.6675
   38.790    1.8255
   38.805    1.7378
   38.820    1.6324
   38.835    1.6324
   38.850    1.5271
   38.865    1.5096
   38.880    1.4920
   38.895    1.5798
   38.910    1.5973
   38.925    1.7378
   38.940    1.8782
   38.955    1.7202
   38.970    1.5447
   38.985    1.5622
   39.000    1.4394
   39.015    1.4745
   39.030    1.5622
   39.045    1.5096
   39.060    1.5622
   39.075    1.7027
   39.090    1.7027
   39.105    1.6851
   39.120    1.6675
   39.135    1.5622
   39.150    1.6851
   39.165    1.7378
   39.180    1.4569
   39.195    1.4745
   39.210    1.7202
   39.225    1.6851
   39.240    1.7202
   39.255    1.4920
   39.270    1.6324
   39.285    1.4920
   39.300    1.3867
   39.315    1.8080
   39.330    1.7729
   39.345    1.5798
   39.360    1.4745
   39.375    1.7378
   39.390    1.7904
   39.405    1.5271
   39.420    1.9484
   39.435    1.7378
   39.450    1.5973
   39.465    1.8080
   39.480    1.5096
   39.495    1.6851
   39.510    1.4569
   39.525    1.3867
   39.540    1.3691
   39.555    1.4569
   39.570    1.8080
   39.585    1.7202
   39.600    1.5973
   39.615    1.7027
   39.630    1.4218
   39.645    1.7729
   39.660    1.7553
   39.675    1.6500
   39.690    1.7202
   39.705    1.4218
   39.720    1.6675
   39.735    1.6324
   39.750    1.5096
   39.765    1.5271
   39.780    1.6851
   39.795    1.5447
   39.810    1.7729
   39.825    1.8080
   39.840    1.5798
   39.855    1.6851
   39.870    1.7729
   39.885    1.5973
   39.900    1.5447
   39.915    1.6851
   39.930    1.5096
   39.945    1.5096
   39.960    1.4745
   39.975    1.6675
   39.990    1.6149
