    1.500   15.4292
    1.515   15.6925
    1.530   15.1834
    1.545   14.8324
    1.560   15.4116
    1.575   15.0079
    1.590   15.0255
    1.605   14.3058
    1.620   13.9372
    1.635   14.6217
    1.650   13.8143
    1.665   13.6563
    1.680   13.2701
    1.695   13.9196
    1.710   13.8494
    1.725   13.6914
    1.740   13.4632
    1.755   13.5334
    1.770   12.0590
    1.785   12.6382
    1.800   12.8313
    1.815   13.7090
    1.830   13.1122
    1.845   13.2701
    1.860   12.9717
    1.875   12.4978
    1.890   12.2345
    1.905   11.6377
    1.920   11.7957
    1.935   12.7084
    1.950   12.2170
    1.965   12.1994
    1.980   11.5499
    1.995   12.0063
    2.010   11.8483
    2.025   11.2164
    2.040   11.1638
    2.055   11.2164
    2.070   10.4792
    2.085   10.8127
    2.100   11.1813
    2.115   11.4973
    2.130   11.4797
    2.145   11.1638
    2.160   11.2164
    2.175   10.7952
    2.190   10.8829
    2.205   11.2515
    2.220   11.4797
    2.235   11.2515
    2.250   10.7776
    2.265   10.4792
    2.280   10.7952
    2.295   10.5143
    2.310   10.7952
    2.325   10.4616
    2.340   10.9707
    2.355   10.6021
    2.370   10.3212
    2.385   10.0755
    2.400    9.9702
    2.415   10.1632
    2.430   10.3739
    2.445    9.9702
    2.460    9.6191
    2.475   10.2510
    2.490   10.0579
    2.505    9.9877
    2.520   10.2510
    2.535   10.0579
    2.550   10.3212
    2.565   10.1632
    2.580    9.7069
    2.595    9.0925
    2.610    9.8999
    2.625   10.1632
    2.640   10.2686
    2.655    9.6718
    2.670    9.8122
    2.685   10.0404
    2.700   10.0579
    2.715    9.6893
    2.730    9.4260
    2.745    9.3382
    2.760    9.3382
    2.775    8.6010
    2.790    9.8297
    2.805    9.7595
    2.820   10.2159
    2.835    9.3734
    2.850    9.4260
    2.865    9.3734
    2.880    9.6191
    2.895    9.7244
    2.910    9.6542
    2.925    9.3558
    2.940    9.1978
    2.955    9.0047
    2.970    9.2505
    2.985    9.1803
    3.000    9.3909
    3.015    9.2154
    3.030    9.0047
    3.045    9.2680
    3.060    9.4260
    3.075   10.0579
    3.090    9.5489
    3.105    9.8824
    3.120    9.9877
    3.135    9.9877
    3.150    9.8824
    3.165    9.3734
    3.180    9.3558
    3.195    9.4436
    3.210    9.7420
    3.225    9.2505
    3.240   10.4792
    3.255   10.2159
    3.270    9.9351
    3.285   10.6723
    3.300   10.1106
    3.315   10.2335
    3.330    9.9175
    3.345   10.6898
    3.360   11.0585
    3.375   10.9180
    3.390   10.4616
    3.405   11.7430
    3.420   11.9361
    3.435   11.8308
    3.450   12.3574
    3.465   12.1292
    3.480   12.1467
    3.495   12.9366
    3.510   13.6388
    3.525   13.5861
    3.540   13.3404
    3.555   14.8148
    3.570   16.0260
    3.585   16.6228
    3.600   16.8159
    3.615   16.7808
    3.630   17.3425
    3.645   19.0276
    3.660   20.8882
    3.675   22.5908
    3.690   24.2935
    3.705   24.4866
    3.720   28.0147
    3.735   31.1216
    3.750   34.7727
    3.765   38.4413
    3.780   41.3902
    3.795   39.3716
    3.810   34.2461
    3.825   29.3663
    3.840   21.6430
    3.855   16.8159
    3.870   12.9191
    3.885   10.9005
    3.900    9.6718
    3.915    9.7069
    3.930    9.4436
    3.945    9.4260
    3.960    8.6712
    3.975    9.6718
    3.990    8.7590
    4.005    8.3377
    4.020    8.1095
    4.035    8.0393
    4.050    9.2329
    4.065    9.1452
    4.080    9.0750
    4.095    8.6010
    4.110    8.6888
    4.125    8.3202
    4.140    8.7063
    4.155    8.1446
    4.170    9.0223
    4.185    8.5308
    4.200    8.2324
    4.215    8.6888
    4.230    8.0744
    4.245    8.1271
    4.260    8.0744
    4.275    8.7414
    4.290    9.0047
    4.305    8.4606
    4.320    8.4255
    4.335    8.0393
    4.350    8.0569
    4.365    8.7414
    4.380    8.3553
    4.395    8.3904
    4.410    7.9164
    4.425    8.0569
    4.440    8.2851
    4.455    8.2149
    4.470    9.2505
    4.485    9.2154
    4.500    8.6010
    4.515    8.4430
    4.530    8.2149
    4.545    8.4606
    4.560    8.6361
    4.575    8.8994
    4.590    8.2675
    4.605    8.3377
    4.620    8.6010
    4.635    8.5308
    4.650    8.2149
    4.665    8.3026
    4.680    8.6888
    4.695    8.4957
    4.710    8.8819
    4.725    9.1276
    4.740    8.1271
    4.755    8.1973
    4.770    8.0744
    4.785    8.8117
    4.800    9.0047
    4.815    8.7063
    4.830    8.0744
    4.845    8.5484
    4.860    8.8994
    4.875    8.8292
    4.890    8.8468
    4.905    8.9345
    4.920    9.0398
    4.935    8.4079
    4.950    8.4957
    4.965    8.4606
    4.980    9.0047
    4.995    9.5313
    5.010    9.1627
    5.025    9.5664
    5.040    9.6718
    5.055   10.0579
    5.070    9.1627
    5.085    9.2154
    5.100    9.6367
    5.115    9.9702
    5.130   10.4968
    5.145    9.5664
    5.160    9.9175
    5.175   10.2510
    5.190    9.8297
    5.205   10.4616
    5.220   10.3739
    5.235   11.1638
    5.250   11.7255
    5.265   11.6728
    5.280   11.0233
    5.295   12.3398
    5.310   12.2345
    5.325   12.6031
    5.340   12.3574
    5.355   12.9015
    5.370   13.3052
    5.385   13.1122
    5.400   13.4457
    5.415   13.0420
    5.430   12.0063
    5.445   12.0590
    5.460   11.7430
    5.475   11.7957
    5.490   11.2866
    5.505   11.3217
    5.520   11.3217
    5.535   11.7255
    5.550   10.9180
    5.565   11.3042
    5.580   11.2866
    5.595   10.4792
    5.610   10.5670
    5.625   10.7776
    5.640   10.3563
    5.655   10.7600
    5.670   10.8478
    5.685   11.0936
    5.700   11.0233
    5.715   10.4441
    5.730    9.8122
    5.745    9.8999
    5.760   10.3212
    5.775    9.5840
    5.790    9.6191
    5.805    9.8297
    5.820    9.3031
    5.835    9.2154
    5.850    8.9696
    5.865    9.6015
    5.880    9.5138
    5.895    8.9872
    5.910    9.1627
    5.925    9.3031
    5.940    8.3553
    5.955    8.3904
    5.970    8.5308
    5.985    8.7414
    6.000    8.8117
    6.015    8.3728
    6.030    8.5659
    6.045    8.5484
    6.060    8.8292
    6.075    8.3728
    6.090    8.4255
    6.105    8.5835
    6.120    8.5133
    6.135    9.0750
    6.150    8.5133
    6.165    8.4079
    6.180    9.1276
    6.195    8.5308
    6.210    8.3377
    6.225    8.4781
    6.240    8.3553
    6.255    8.0218
    6.270    8.1973
    6.285    8.3904
    6.300    8.1446
    6.315    7.6180
    6.330    7.9516
    6.345    7.6883
    6.360    7.9516
    6.375    7.6356
    6.390    8.0920
    6.405    8.0393
    6.420    8.1446
    6.435    8.0042
    6.450    7.1792
    6.465    7.3021
    6.480    8.4781
    6.495    8.3728
    6.510    8.3202
    6.525    8.5835
    6.540    8.3377
    6.555    8.5659
    6.570    8.4606
    6.585    8.3728
    6.600    8.3377
    6.615    7.9867
    6.630    7.8989
    6.645    7.6883
    6.660    7.2845
    6.675    6.7228
    6.690    7.0037
    6.705    7.2143
    6.720    7.0563
    6.735    7.3372
    6.750    6.7930
    6.765    7.1792
    6.780    7.3372
    6.795    6.9861
    6.810    6.9510
    6.825    6.8633
    6.840    7.4601
    6.855    6.6351
    6.870    7.2670
    6.885    7.1090
    6.900    6.8282
    6.915    6.5824
    6.930    6.5298
    6.945    7.3547
    6.960    6.8808
    6.975    7.3723
    6.990    6.8633
    7.005    7.0915
    7.020    7.2494
    7.035    6.6526
    7.050    5.8803
    7.065    6.9335
    7.080    7.1792
    7.095    6.8984
    7.110    7.4250
    7.125    7.4776
    7.140    6.8633
    7.155    6.8984
    7.170    6.4595
    7.185    6.1260
    7.200    6.8984
    7.215    6.5298
    7.230    6.4069
    7.245    6.6877
    7.260    6.4420
    7.275    6.3191
    7.290    6.0734
    7.305    6.3893
    7.320    6.8282
    7.335    6.6000
    7.350    6.4595
    7.365    6.6175
    7.380    6.2313
    7.395    6.1787
    7.410    6.5473
    7.425    6.8633
    7.440    6.6877
    7.455    6.6702
    7.470    6.3718
    7.485    6.3191
    7.500    6.4244
    7.515    6.4946
    7.530    6.4946
    7.545    5.9329
    7.560    6.3718
    7.575    6.8106
    7.590    6.7579
    7.605    6.3016
    7.620    6.6175
    7.635    7.1441
    7.650    7.3899
    7.665    6.9686
    7.680    6.6526
    7.695    6.5473
    7.710    5.8101
    7.725    6.0032
    7.740    5.7574
    7.755    5.5819
    7.770    6.3542
    7.785    5.7574
    7.800    5.6170
    7.815    5.9329
    7.830    6.0207
    7.845    5.8627
    7.860    5.7048
    7.875    5.4590
    7.890    6.2138
    7.905    5.6697
    7.920    5.5819
    7.935    5.5819
    7.950    5.7925
    7.965    5.5819
    7.980    5.6697
    7.995    5.4766
    8.010    5.5643
    8.025    5.3186
    8.040    5.5643
    8.055    5.8101
    8.070    5.6521
    8.085    5.2835
    8.100    5.1431
    8.115    5.8276
    8.130    5.8452
    8.145    5.6521
    8.160    5.4766
    8.175    5.1957
    8.190    5.2659
    8.205    4.9675
    8.220    5.8452
    8.235    5.4239
    8.250    5.5994
    8.265    5.8978
    8.280    6.1085
    8.295    5.5468
    8.310    5.2659
    8.325    5.5117
    8.340    5.4239
    8.355    5.5292
    8.370    5.5643
    8.385    5.5292
    8.400    5.4941
    8.415    5.5994
    8.430    5.9329
    8.445    5.6521
    8.460    5.5643
    8.475    5.4590
    8.490    5.6170
    8.505    5.8101
    8.520    6.0383
    8.535    5.9856
    8.550    5.8276
    8.565    5.9154
    8.580    5.9329
    8.595    5.3888
    8.610    5.3186
    8.625    5.3361
    8.640    5.6170
    8.655    5.7750
    8.670    5.0553
    8.685    5.1431
    8.700    5.3712
    8.715    5.4239
    8.730    4.9851
    8.745    4.9500
    8.760    5.0026
    8.775    5.2835
    8.790    5.0553
    8.805    5.5819
    8.820    4.8622
    8.835    4.5463
    8.850    4.7042
    8.865    4.7920
    8.880    5.2308
    8.895    5.0202
    8.910    5.3888
    8.925    5.4766
    8.940    5.4590
    8.955    5.2835
    8.970    5.2484
    8.985    5.0728
    9.000    4.8095
    9.015    4.8622
    9.030    5.0904
    9.045    5.1431
    9.060    5.1957
    9.075    5.3537
    9.090    5.0026
    9.105    5.1606
    9.120    5.2659
    9.135    4.7569
    9.150    4.9500
    9.165    5.3537
    9.180    5.1431
    9.195    5.0553
    9.210    5.0026
    9.225    5.6872
    9.240    5.5117
    9.255    5.1606
    9.270    5.7925
    9.285    5.5292
    9.300    5.1255
    9.315    5.7399
    9.330    5.5468
    9.345    5.5994
    9.360    6.0909
    9.375    5.7750
    9.390    5.9329
    9.405    6.0909
    9.420    5.3537
    9.435    5.2659
    9.450    5.1957
    9.465    5.0377
    9.480    4.8271
    9.495    5.2308
    9.510    5.2484
    9.525    5.2133
    9.540    4.9675
    9.555    4.9675
    9.570    4.8271
    9.585    5.1782
    9.600    5.3537
    9.615    5.3888
    9.630    4.8095
    9.645    5.1957
    9.660    5.3537
    9.675    5.1957
    9.690    4.8447
    9.705    5.2484
    9.720    4.9500
    9.735    5.3888
    9.750    5.1431
    9.765    4.5463
    9.780    4.8798
    9.795    4.9675
    9.810    5.1255
    9.825    4.3707
    9.840    4.7042
    9.855    4.6516
    9.870    4.7218
    9.885    5.3186
    9.900    5.2835
    9.915    5.1255
    9.930    5.0202
    9.945    5.1957
    9.960    5.0377
    9.975    5.2835
    9.990    5.3712
   10.005    5.3010
   10.020    5.2133
   10.035    5.2835
   10.050    5.2659
   10.065    5.6872
   10.080    6.1611
   10.095    5.7750
   10.110    6.2840
   10.125    6.4771
   10.140    6.0207
   10.155    5.7574
   10.170    5.6170
   10.185    5.6697
   10.200    5.5117
   10.215    5.1080
   10.230    5.1431
   10.245    4.8973
   10.260    5.1782
   10.275    5.0202
   10.290    5.3010
   10.305    4.8622
   10.320    5.0728
   10.335    5.2308
   10.350    4.9851
   10.365    4.7920
   10.380    5.3186
   10.395    5.4064
   10.410    5.5994
   10.425    4.9851
   10.440    5.2659
   10.455    4.7920
   10.470    5.1606
   10.485    5.3186
   10.500    5.2835
   10.515    5.1431
   10.530    5.1606
   10.545    5.4590
   10.560    5.2659
   10.575    5.2484
   10.590    5.1782
   10.605    5.3712
   10.620    5.5292
   10.635    5.1782
   10.650    5.7223
   10.665    5.5468
   10.680    5.4239
   10.695    5.1080
   10.710    5.6697
   10.725    5.2308
   10.740    5.6521
   10.755    5.4941
   10.770    6.2665
   10.785    6.1611
   10.800    5.4239
   10.815    5.5994
   10.830    6.3191
   10.845    5.9505
   10.860    5.5468
   10.875    5.6170
   10.890    5.9154
   10.905    5.6697
   10.920    5.8101
   10.935    5.4239
   10.950    5.3361
   10.965    5.3537
   10.980    5.5468
   10.995    5.3361
   11.010    4.9851
   11.025    5.3010
   11.040    5.3361
   11.055    5.1431
   11.070    5.1606
   11.085    5.3888
   11.100    5.2133
   11.115    5.3712
   11.130    4.8447
   11.145    5.2308
   11.160    5.3010
   11.175    4.9149
   11.190    5.2484
   11.205    5.5819
   11.220    5.7048
   11.235    5.3361
   11.250    5.1957
   11.265    4.9675
   11.280    4.9149
   11.295    5.5292
   11.310    5.1782
   11.325    5.0202
   11.340    5.1957
   11.355    5.4064
   11.370    5.3010
   11.385    5.1957
   11.400    5.2659
   11.415    5.1782
   11.430    5.7925
   11.445    5.8276
   11.460    5.6872
   11.475    5.9505
   11.490    5.4590
   11.505    5.4239
   11.520    5.3712
   11.535    5.3537
   11.550    5.2835
   11.565    5.2484
   11.580    5.0202
   11.595    5.1080
   11.610    5.2133
   11.625    5.2484
   11.640    5.7750
   11.655    5.4415
   11.670    5.0553
   11.685    5.3888
   11.700    4.9851
   11.715    5.0377
   11.730    4.8622
   11.745    5.0377
   11.760    5.6345
   11.775    5.5117
   11.790    5.1080
   11.805    4.7569
   11.820    5.0904
   11.835    5.1606
   11.850    5.0202
   11.865    4.8622
   11.880    5.4064
   11.895    5.0904
   11.910    5.3010
   11.925    5.5643
   11.940    5.1957
   11.955    5.6345
   11.970    5.2133
   11.985    5.1080
   12.000    5.1431
   12.015    5.3186
   12.030    5.4064
   12.045    5.5468
   12.060    5.4590
   12.075    5.5117
   12.090    5.8452
   12.105    5.9329
   12.120    5.7048
   12.135    5.2835
   12.150    5.1080
   12.165    5.0377
   12.180    5.0904
   12.195    5.0377
   12.210    4.9851
   12.225    5.7048
   12.240    5.2659
   12.255    4.7920
   12.270    5.1255
   12.285    5.1255
   12.300    5.5117
   12.315    5.3010
   12.330    5.0904
   12.345    4.7744
   12.360    4.5463
   12.375    4.9500
   12.390    4.7569
   12.405    4.6165
   12.420    4.7569
   12.435    5.1957
   12.450    5.3888
   12.465    4.7920
   12.480    5.3186
   12.495    5.0904
   12.510    4.9324
   12.525    4.8798
   12.540    5.1606
   12.555    5.2133
   12.570    4.7218
   12.585    5.2484
   12.600    5.0026
   12.615    5.3888
   12.630    5.1782
   12.645    5.0202
   12.660    5.1957
   12.675    5.2308
   12.690    5.5117
   12.705    5.2659
   12.720    5.6170
   12.735    5.5468
   12.750    5.3537
   12.765    5.2659
   12.780    4.9324
   12.795    4.8798
   12.810    4.4585
   12.825    4.6340
   12.840    4.8798
   12.855    4.2830
   12.870    4.3356
   12.885    4.4760
   12.900    5.2835
   12.915    4.7744
   12.930    4.6867
   12.945    5.2835
   12.960    5.4064
   12.975    4.9149
   12.990    4.8271
   13.005    4.6516
   13.020    4.7218
   13.035    4.5287
   13.050    5.0904
   13.065    4.9149
   13.080    4.7920
   13.095    4.5638
   13.110    4.5814
   13.125    4.5111
   13.140    4.9500
   13.155    4.6165
   13.170    4.8622
   13.185    4.7042
   13.200    4.7569
   13.215    4.7920
   13.230    4.7393
   13.245    4.9851
   13.260    4.8095
   13.275    5.1431
   13.290    4.7920
   13.305    4.7042
   13.320    4.9500
   13.335    5.3537
   13.350    4.9324
   13.365    5.2659
   13.380    4.7393
   13.395    4.7744
   13.410    4.6691
   13.425    4.9500
   13.440    4.5463
   13.455    4.6340
   13.470    4.6516
   13.485    4.9149
   13.500    4.7042
   13.515    4.8973
   13.530    5.0728
   13.545    5.5117
   13.560    4.6691
   13.575    4.6691
   13.590    4.5814
   13.605    4.6691
   13.620    4.8973
   13.635    4.8622
   13.650    4.8271
   13.665    4.6165
   13.680    5.0904
   13.695    4.7569
   13.710    4.8798
   13.725    5.0026
   13.740    4.7042
   13.755    5.5468
   13.770    5.3186
   13.785    5.1080
   13.800    5.3712
   13.815    5.8276
   13.830    5.1080
   13.845    5.6345
   13.860    5.5643
   13.875    5.1957
   13.890    5.4590
   13.905    5.5468
   13.920    4.8447
   13.935    5.5468
   13.950    5.2484
   13.965    5.0904
   13.980    5.1431
   13.995    5.3537
   14.010    4.8271
   14.025    4.8271
   14.040    5.1782
   14.055    4.9500
   14.070    5.4239
   14.085    5.3712
   14.100    5.2308
   14.115    5.4415
   14.130    5.9154
   14.145    5.3010
   14.160    4.7042
   14.175    5.2659
   14.190    5.1431
   14.205    4.9324
   14.220    5.1782
   14.235    5.0553
   14.250    5.1782
   14.265    4.8973
   14.280    4.8271
   14.295    5.0377
   14.310    5.1957
   14.325    5.5292
   14.340    5.2484
   14.355    5.4766
   14.370    5.3537
   14.385    5.3712
   14.400    5.1255
   14.415    5.3537
   14.430    5.9154
   14.445    5.8452
   14.460    5.2308
   14.475    4.9851
   14.490    5.2659
   14.505    5.5292
   14.520    5.3712
   14.535    5.4766
   14.550    5.2484
   14.565    5.3712
   14.580    5.2133
   14.595    5.2308
   14.610    5.4941
   14.625    5.4766
   14.640    5.7399
   14.655    5.6345
   14.670    5.6345
   14.685    5.4415
   14.700    4.8973
   14.715    4.8447
   14.730    4.6516
   14.745    4.8095
   14.760    5.0377
   14.775    4.7920
   14.790    4.6691
   14.805    5.5117
   14.820    5.1255
   14.835    5.4064
   14.850    5.2308
   14.865    4.9851
   14.880    5.7048
   14.895    5.1606
   14.910    4.9324
   14.925    5.0553
   14.940    4.6516
   14.955    4.7920
   14.970    4.6340
   14.985    4.9149
   15.000    4.8622
   15.015    4.8095
   15.030    5.1255
   15.045    4.8798
   15.060    4.9500
   15.075    4.5111
   15.090    5.0553
   15.105    4.6340
   15.120    5.0377
   15.135    5.0026
   15.150    4.8447
   15.165    4.8271
   15.180    4.9324
   15.195    4.5989
   15.210    4.5111
   15.225    5.0026
   15.240    4.6340
   15.255    4.5463
   15.270    5.0904
   15.285    4.8447
   15.300    5.0377
   15.315    4.7042
   15.330    4.7218
   15.345    4.9500
   15.360    4.9851
   15.375    4.9675
   15.390    4.7920
   15.405    4.7042
   15.420    4.9851
   15.435    4.8095
   15.450    4.9675
   15.465    4.3532
   15.480    4.9149
   15.495    4.7218
   15.510    4.9675
   15.525    4.8798
   15.540    4.6165
   15.555    5.4941
   15.570    4.6867
   15.585    4.7920
   15.600    4.6516
   15.615    5.3186
   15.630    4.8973
   15.645    4.5638
   15.660    4.1425
   15.675    4.6165
   15.690    4.4585
   15.705    4.9324
   15.720    4.6691
   15.735    4.4409
   15.750    4.5287
   15.765    4.7744
   15.780    5.0026
   15.795    5.3186
   15.810    4.4585
   15.825    4.8622
   15.840    4.8622
   15.855    4.8447
   15.870    5.0553
   15.885    5.2659
   15.900    5.1957
   15.915    4.6516
   15.930    5.0026
   15.945    4.6691
   15.960    4.9675
   15.975    4.7920
   15.990    4.8973
   16.005    5.0026
   16.020    4.4585
   16.035    4.8447
   16.050    4.9675
   16.065    4.7920
   16.080    4.8973
   16.095    5.0377
   16.110    4.6691
   16.125    4.9324
   16.140    5.0377
   16.155    5.0728
   16.170    4.8622
   16.185    5.1255
   16.200    5.2659
   16.215    5.0904
   16.230    5.0377
   16.245    4.8447
   16.260    5.0728
   16.275    4.6516
   16.290    5.1431
   16.305    5.2133
   16.320    4.8622
   16.335    4.5287
   16.350    4.9500
   16.365    4.9149
   16.380    4.6340
   16.395    4.2127
   16.410    4.5111
   16.425    4.4760
   16.440    4.7744
   16.455    4.6516
   16.470    4.4936
   16.485    4.8095
   16.500    4.8798
   16.515    4.4409
   16.530    4.7569
   16.545    5.1606
   16.560    5.1782
   16.575    4.8447
   16.590    4.9149
   16.605    4.5989
   16.620    4.5638
   16.635    4.7218
   16.650    4.2654
   16.665    4.9851
   16.680    5.1606
   16.695    4.9851
   16.710    4.5638
   16.725    5.0202
   16.740    4.6165
   16.755    4.7393
   16.770    5.1255
   16.785    4.8973
   16.800    5.3712
   16.815    5.3186
   16.830    4.9500
   16.845    4.8622
   16.860    4.7393
   16.875    4.4936
   16.890    4.4585
   16.905    4.8271
   16.920    4.8095
   16.935    4.8095
   16.950    4.5814
   16.965    4.6340
   16.980    4.8447
   16.995    4.7920
   17.010    4.0723
   17.025    4.4409
   17.040    4.5463
   17.055    4.7218
   17.070    4.9149
   17.085    4.9675
   17.100    4.3707
   17.115    4.6516
   17.130    4.8095
   17.145    4.6340
   17.160    4.6340
   17.175    4.9675
   17.190    4.7920
   17.205    5.0377
   17.220    4.8798
   17.235    5.2133
   17.250    4.8798
   17.265    4.4585
   17.280    4.4936
   17.295    4.7393
   17.310    4.5638
   17.325    4.8271
   17.340    5.1080
   17.355    4.6516
   17.370    4.7920
   17.385    4.8798
   17.400    4.6340
   17.415    5.0202
   17.430    4.9149
   17.445    4.5638
   17.460    4.8095
   17.475    4.4058
   17.490    4.6691
   17.505    4.6691
   17.520    4.6867
   17.535    4.9324
   17.550    4.9675
   17.565    5.0377
   17.580    4.4936
   17.595    4.8271
   17.610    4.8447
   17.625    4.5814
   17.640    4.1425
   17.655    4.8271
   17.670    4.9851
   17.685    4.5638
   17.700    5.1080
   17.715    4.7393
   17.730    4.4234
   17.745    4.5463
   17.760    4.7744
   17.775    4.6516
   17.790    4.4234
   17.805    4.3883
   17.820    4.7218
   17.835    4.7042
   17.850    4.6516
   17.865    4.6516
   17.880    4.7042
   17.895    4.3707
   17.910    4.2654
   17.925    4.6340
   17.940    5.1431
   17.955    5.0377
   17.970    4.6691
   17.985    4.7042
   18.000    4.2478
   18.015    4.5814
   18.030    4.4936
   18.045    4.7042
   18.060    4.4760
   18.075    4.5111
   18.090    4.3356
   18.105    4.8447
   18.120    5.0728
   18.135    4.4760
   18.150    4.4234
   18.165    5.1606
   18.180    4.5287
   18.195    4.2478
   18.210    4.5111
   18.225    4.7218
   18.240    5.0377
   18.255    4.3883
   18.270    4.3532
   18.285    4.6165
   18.300    4.8622
   18.315    4.9149
   18.330    4.3356
   18.345    4.6691
   18.360    4.8973
   18.375    4.4936
   18.390    4.4409
   18.405    4.5814
   18.420    5.0026
   18.435    4.5989
   18.450    4.7042
   18.465    5.1080
   18.480    4.9324
   18.495    4.6165
   18.510    4.8447
   18.525    5.3361
   18.540    5.0202
   18.555    5.1957
   18.570    4.6691
   18.585    4.5638
   18.600    5.0026
   18.615    4.7393
   18.630    4.6516
   18.645    4.4936
   18.660    4.6165
   18.675    4.4585
   18.690    4.3883
   18.705    4.5287
   18.720    4.6691
   18.735    4.6165
   18.750    4.7920
   18.765    4.7218
   18.780    4.9324
   18.795    4.2303
   18.810    4.5989
   18.825    4.9851
   18.840    4.8095
   18.855    4.7218
   18.870    4.2478
   18.885    4.2654
   18.900    4.6867
   18.915    4.9149
   18.930    4.5287
   18.945    4.4058
   18.960    4.2830
   18.975    4.6867
   18.990    4.5989
   19.005    4.8447
   19.020    4.5814
   19.035    4.5989
   19.050    4.5463
   19.065    4.4409
   19.080    4.0723
   19.095    4.5989
   19.110    4.6340
   19.125    4.6516
   19.140    4.4058
   19.155    4.5111
   19.170    4.4058
   19.185    4.3005
   19.200    4.4936
   19.215    4.3532
   19.230    4.5111
   19.245    4.3707
   19.260    4.8798
   19.275    4.3707
   19.290    4.4409
   19.305    4.3532
   19.320    4.3532
   19.335    4.6165
   19.350    4.4234
   19.365    4.4585
   19.380    4.0197
   19.395    4.3356
   19.410    4.3181
   19.425    4.3532
   19.440    4.7569
   19.455    4.2478
   19.470    4.4409
   19.485    4.5814
   19.500    4.6867
   19.515    4.4936
   19.530    4.3005
   19.545    4.4760
   19.560    4.4234
   19.575    4.5287
   19.590    4.3532
   19.605    4.2478
   19.620    4.1250
   19.635    4.3532
   19.650    4.3707
   19.665    4.4936
   19.680    4.0372
   19.695    4.0723
   19.710    4.5111
   19.725    4.7569
   19.740    4.5463
   19.755    4.4936
   19.770    4.5638
   19.785    4.4058
   19.800    4.3181
   19.815    4.3532
   19.830    4.4409
   19.845    4.5111
   19.860    4.5638
   19.875    4.6516
   19.890    4.2830
   19.905    4.9500
   19.920    4.5463
   19.935    4.1425
   19.950    4.2654
   19.965    4.5989
   19.980    4.2830
   19.995    4.4234
   20.010    4.7042
   20.025    4.9675
   20.040    4.4058
   20.055    4.1425
   20.070    4.5814
   20.085    4.4585
   20.100    4.3181
   20.115    4.1425
   20.130    4.1425
   20.145    4.3883
   20.160    4.3356
   20.175    4.5111
   20.190    3.9846
   20.205    4.4760
   20.220    4.0372
   20.235    3.7564
   20.250    4.1776
   20.265    4.0021
   20.280    4.4760
   20.295    4.7042
   20.310    4.5287
   20.325    4.3532
   20.340    4.3356
   20.355    4.2127
   20.370    4.3356
   20.385    4.3005
   20.400    4.4585
   20.415    4.6165
   20.430    4.4058
   20.445    4.4234
   20.460    4.6165
   20.475    4.2830
   20.490    4.5814
   20.505    3.9846
   20.520    4.0723
   20.535    4.4409
   20.550    4.3005
   20.565    4.3532
   20.580    4.3181
   20.595    4.2830
   20.610    4.3005
   20.625    4.4585
   20.640    3.8617
   20.655    3.8617
   20.670    4.3005
   20.685    3.7388
   20.700    4.0723
   20.715    4.3883
   20.730    4.3005
   20.745    4.6165
   20.760    4.4585
   20.775    4.0197
   20.790    4.3356
   20.805    4.3356
   20.820    4.0548
   20.835    3.9846
   20.850    4.1776
   20.865    4.0548
   20.880    4.2478
   20.895    4.3356
   20.910    4.0021
   20.925    3.8792
   20.940    3.7213
   20.955    3.9846
   20.970    4.4585
   20.985    4.6867
   21.000    4.3883
   21.015    4.4058
   21.030    4.0548
   21.045    3.8090
   21.060    3.6862
   21.075    4.0548
   21.090    4.0899
   21.105    3.8266
   21.120    4.1776
   21.135    4.2478
   21.150    3.7915
   21.165    4.3005
   21.180    4.3883
   21.195    4.3532
   21.210    4.4585
   21.225    4.0021
   21.240    3.8968
   21.255    3.8441
   21.270    3.7564
   21.285    4.1776
   21.300    4.5989
   21.315    4.0723
   21.330    4.0723
   21.345    4.1601
   21.360    3.6510
   21.375    4.3532
   21.390    4.2478
   21.405    4.2127
   21.420    4.2127
   21.435    4.3356
   21.450    3.9319
   21.465    4.2303
   21.480    4.7042
   21.495    4.0021
   21.510    4.3532
   21.525    4.4234
   21.540    4.1952
   21.555    3.6510
   21.570    4.1776
   21.585    4.3707
   21.600    4.4585
   21.615    4.4585
   21.630    4.3883
   21.645    4.0197
   21.660    3.8441
   21.675    4.0723
   21.690    4.2127
   21.705    4.4058
   21.720    4.4234
   21.735    4.1776
   21.750    4.1074
   21.765    3.8968
   21.780    4.0548
   21.795    4.1250
   21.810    4.1601
   21.825    4.2127
   21.840    4.3707
   21.855    3.7739
   21.870    4.0197
   21.885    3.9494
   21.900    3.7037
   21.915    3.8792
   21.930    4.0723
   21.945    3.9670
   21.960    4.0723
   21.975    4.3883
   21.990    4.2303
   22.005    4.2654
   22.020    4.4936
   22.035    4.4585
   22.050    4.1952
   22.065    4.0197
   22.080    3.8968
   22.095    3.6335
   22.110    3.9319
   22.125    4.4585
   22.140    4.2127
   22.155    4.2478
   22.170    3.9143
   22.185    4.4058
   22.200    4.1250
   22.215    4.1250
   22.230    4.2830
   22.245    4.3883
   22.260    3.6862
   22.275    3.8266
   22.290    4.3532
   22.305    3.8617
   22.320    3.9143
   22.335    4.1074
   22.350    4.0197
   22.365    3.5457
   22.380    3.9319
   22.395    4.0899
   22.410    4.2654
   22.425    4.3883
   22.440    4.3532
   22.455    4.1601
   22.470    4.0723
   22.485    4.2127
   22.500    4.3005
   22.515    4.0899
   22.530    4.4058
   22.545    3.9319
   22.560    3.8617
   22.575    4.0197
   22.590    4.3005
   22.605    3.6159
   22.620    3.7037
   22.635    3.8792
   22.650    3.8617
   22.665    4.1074
   22.680    4.0548
   22.695    3.6862
   22.710    3.8441
   22.725    3.6862
   22.740    3.8792
   22.755    4.3356
   22.770    3.7388
   22.785    3.5984
   22.800    3.8617
   22.815    3.5457
   22.830    3.9846
   22.845    4.0021
   22.860    3.5808
   22.875    3.8617
   22.890    4.0021
   22.905    3.7388
   22.920    4.1952
   22.935    3.5984
   22.950    3.5808
   22.965    3.8090
   22.980    3.8090
   22.995    3.6862
   23.010    4.1776
   23.025    3.7915
   23.040    3.9319
   23.055    3.6510
   23.070    3.7915
   23.085    3.6686
   23.100    3.8266
   23.115    4.1074
   23.130    3.6159
   23.145    3.2824
   23.160    3.6686
   23.175    4.1074
   23.190    3.7915
   23.205    3.8090
   23.220    3.7388
   23.235    3.4931
   23.250    3.4404
   23.265    3.5282
   23.280    3.7213
   23.295    3.5282
   23.310    3.4755
   23.325    3.9846
   23.340    3.3877
   23.355    4.2303
   23.370    4.0197
   23.385    3.9143
   23.400    4.0723
   23.415    3.8617
   23.430    3.9494
   23.445    4.0197
   23.460    4.0723
   23.475    4.1074
   23.490    4.4234
   23.505    4.0899
   23.520    3.9494
   23.535    3.9143
   23.550    3.6510
   23.565    3.9143
   23.580    3.8266
   23.595    3.5808
   23.610    3.5282
   23.625    3.5984
   23.640    3.7388
   23.655    3.6159
   23.670    3.6510
   23.685    3.8441
   23.700    3.5457
   23.715    3.7564
   23.730    3.6862
   23.745    3.5106
   23.760    3.5457
   23.775    3.9846
   23.790    3.3877
   23.805    3.8617
   23.820    3.5282
   23.835    3.6159
   23.850    3.3526
   23.865    3.5457
   23.880    3.9143
   23.895    3.8617
   23.910    3.8090
   23.925    3.4404
   23.940    3.3702
   23.955    3.3702
   23.970    3.5808
   23.985    3.7388
   24.000    3.4755
   24.015    3.5106
   24.030    3.6862
   24.045    3.6510
   24.060    3.9494
   24.075    3.8617
   24.090    3.3000
   24.105    3.4229
   24.120    3.5808
   24.135    3.7915
   24.150    3.8266
   24.165    3.6862
   24.180    3.7388
   24.195    3.8968
   24.210    3.4931
   24.225    3.6686
   24.240    3.6335
   24.255    3.4229
   24.270    3.2649
   24.285    3.3000
   24.300    3.3877
   24.315    3.5633
   24.330    3.2122
   24.345    3.6686
   24.360    3.7739
   24.375    3.1245
   24.390    3.6159
   24.405    3.4229
   24.420    3.5808
   24.435    3.5808
   24.450    3.2122
   24.465    3.5633
   24.480    3.5106
   24.495    3.4404
   24.510    3.3351
   24.525    3.6862
   24.540    4.0899
   24.555    3.7564
   24.570    3.5984
   24.585    3.4931
   24.600    3.7739
   24.615    3.5808
   24.630    3.8266
   24.645    3.9670
   24.660    3.6686
   24.675    3.5457
   24.690    3.4404
   24.705    3.7213
   24.720    3.7037
   24.735    3.6686
   24.750    3.6159
   24.765    3.4755
   24.780    3.2824
   24.795    3.2122
   24.810    3.5457
   24.825    3.4053
   24.840    3.4755
   24.855    3.3526
   24.870    3.6686
   24.885    3.1596
   24.900    3.5633
   24.915    3.6510
   24.930    3.6510
   24.945    3.4404
   24.960    3.3351
   24.975    3.3877
   24.990    3.6510
   25.005    3.8968
   25.020    3.7915
   25.035    3.6335
   25.050    3.4755
   25.065    3.3702
   25.080    3.3877
   25.095    3.9670
   25.110    3.5633
   25.125    3.5282
   25.140    3.5984
   25.155    3.5106
   25.170    3.3526
   25.185    3.3175
   25.200    3.2298
   25.215    3.4229
   25.230    3.6510
   25.245    3.5282
   25.260    3.3175
   25.275    3.8090
   25.290    3.5984
   25.305    3.5106
   25.320    3.8617
   25.335    3.6510
   25.350    3.6862
   25.365    3.5984
   25.380    3.7915
   25.395    3.6335
   25.410    3.7388
   25.425    3.6159
   25.440    3.5984
   25.455    3.7037
   25.470    3.5282
   25.485    3.4053
   25.500    3.9670
   25.515    3.7564
   25.530    3.4755
   25.545    3.2824
   25.560    3.3000
   25.575    3.4404
   25.590    3.3000
   25.605    3.4229
   25.620    3.3877
   25.635    3.2824
   25.650    3.4580
   25.665    3.7915
   25.680    3.4053
   25.695    3.0718
   25.710    3.3175
   25.725    3.5984
   25.740    3.5106
   25.755    3.8441
   25.770    3.4404
   25.785    3.4229
   25.800    3.1245
   25.815    3.2122
   25.830    3.4053
   25.845    3.6510
   25.860    3.3877
   25.875    3.6159
   25.890    3.4229
   25.905    3.9670
   25.920    3.6686
   25.935    3.8266
   25.950    3.6686
   25.965    3.3351
   25.980    3.4755
   25.995    3.2473
   26.010    3.4404
   26.025    3.3702
   26.040    3.4053
   26.055    3.1947
   26.070    3.1069
   26.085    3.2122
   26.100    3.3702
   26.115    3.2122
   26.130    3.3526
   26.145    3.6510
   26.160    3.6335
   26.175    3.3526
   26.190    3.3000
   26.205    3.1947
   26.220    3.4229
   26.235    3.2473
   26.250    3.1069
   26.265    3.1771
   26.280    3.0016
   26.295    3.1420
   26.310    3.2649
   26.325    3.5808
   26.340    3.5457
   26.355    3.2824
   26.370    3.0016
   26.385    3.3175
   26.400    3.3702
   26.415    3.2122
   26.430    3.0016
   26.445    3.1245
   26.460    3.2473
   26.475    3.1771
   26.490    3.2122
   26.505    3.2473
   26.520    3.3351
   26.535    2.8260
   26.550    3.1420
   26.565    3.2298
   26.580    3.5282
   26.595    2.7558
   26.610    3.1245
   26.625    3.1947
   26.640    3.3526
   26.655    3.1596
   26.670    3.3000
   26.685    3.3175
   26.700    3.1947
   26.715    3.1771
   26.730    3.3351
   26.745    3.3000
   26.760    3.1069
   26.775    3.0718
   26.790    3.4580
   26.805    3.3702
   26.820    3.4755
   26.835    3.1420
   26.850    3.0542
   26.865    3.0191
   26.880    3.4404
   26.895    3.2649
   26.910    2.9840
   26.925    3.0191
   26.940    3.3175
   26.955    3.0718
   26.970    3.2649
   26.985    3.2473
   27.000    3.1069
   27.015    3.0718
   27.030    3.1245
   27.045    3.2122
   27.060    3.1420
   27.075    3.2473
   27.090    2.9489
   27.105    2.8963
   27.120    3.2473
   27.135    3.5457
   27.150    3.1596
   27.165    2.9665
   27.180    2.7558
   27.195    3.0542
   27.210    3.0893
   27.225    3.1245
   27.240    3.2122
   27.255    3.1947
   27.270    2.8436
   27.285    3.2649
   27.300    3.1245
   27.315    2.8787
   27.330    3.3351
   27.345    3.2824
   27.360    3.1069
   27.375    2.9138
   27.390    3.0367
   27.405    3.0191
   27.420    2.8436
   27.435    3.0191
   27.450    3.2649
   27.465    3.0718
   27.480    3.1596
   27.495    3.0893
   27.510    2.9489
   27.525    3.0016
   27.540    2.7734
   27.555    2.7383
   27.570    3.0016
   27.585    3.0718
   27.600    2.9138
   27.615    2.8963
   27.630    3.2649
   27.645    3.2122
   27.660    3.1069
   27.675    2.8787
   27.690    2.8436
   27.705    2.9840
   27.720    3.0191
   27.735    3.0542
   27.750    2.8963
   27.765    3.0367
   27.780    3.1069
   27.795    3.1420
   27.810    3.1947
   27.825    2.7734
   27.840    2.8260
   27.855    3.3351
   27.870    3.1947
   27.885    3.2473
   27.900    3.0367
   27.915    3.0191
   27.930    3.1245
   27.945    2.7032
   27.960    2.8963
   27.975    3.1596
   27.990    3.2122
   28.005    2.8787
   28.020    2.8963
   28.035    2.8260
   28.050    2.8787
   28.065    2.9489
   28.080    3.1947
   28.095    2.9840
   28.110    2.9665
   28.125    3.1596
   28.140    2.6330
   28.155    2.7909
   28.170    3.1245
   28.185    3.0367
   28.200    3.0016
   28.215    3.1420
   28.230    2.9314
   28.245    3.0893
   28.260    3.1596
   28.275    2.8612
   28.290    3.0893
   28.305    3.0893
   28.320    3.0542
   28.335    2.8963
   28.350    3.1245
   28.365    3.0016
   28.380    3.0016
   28.395    2.7383
   28.410    2.7734
   28.425    2.9314
   28.440    3.0893
   28.455    3.1947
   28.470    2.8260
   28.485    2.9665
   28.500    3.1069
   28.515    3.2649
   28.530    3.1069
   28.545    2.8436
   28.560    2.7558
   28.575    2.7383
   28.590    2.8963
   28.605    2.7734
   28.620    2.8612
   28.635    2.7909
   28.650    2.7558
   28.665    3.0191
   28.680    3.1947
   28.695    3.3702
   28.710    3.0718
   28.725    3.2298
   28.740    3.3526
   28.755    3.3702
   28.770    3.1069
   28.785    2.7909
   28.800    3.0542
   28.815    2.9665
   28.830    2.8787
   28.845    3.0191
   28.860    3.0367
   28.875    2.7207
   28.890    2.9489
   28.905    3.0191
   28.920    3.3877
   28.935    3.1420
   28.950    3.0016
   28.965    3.0016
   28.980    2.9138
   28.995    3.2473
   29.010    3.2122
   29.025    2.9665
   29.040    3.1069
   29.055    3.0893
   29.070    2.5979
   29.085    2.7734
   29.100    2.8612
   29.115    3.0016
   29.130    2.4925
   29.145    2.6856
   29.160    2.9138
   29.175    2.7032
   29.190    2.9314
   29.205    2.9665
   29.220    2.7734
   29.235    2.9840
   29.250    3.0542
   29.265    2.5979
   29.280    2.9489
   29.295    2.8260
   29.310    3.1596
   29.325    2.9840
   29.340    2.6505
   29.355    2.5452
   29.370    2.7558
   29.385    2.7734
   29.400    2.7383
   29.415    2.5979
   29.430    2.7032
   29.445    2.9314
   29.460    2.6505
   29.475    2.6505
   29.490    2.7207
   29.505    2.8260
   29.520    2.7032
   29.535    2.5276
   29.550    2.4925
   29.565    2.6154
   29.580    2.7207
   29.595    2.5452
   29.610    2.1941
   29.625    2.5628
   29.640    2.9489
   29.655    2.8612
   29.670    2.6681
   29.685    2.7734
   29.700    2.2995
   29.715    2.7032
   29.730    2.5276
   29.745    2.6681
   29.760    2.7909
   29.775    2.8963
   29.790    2.9138
   29.805    2.8436
   29.820    2.5276
   29.835    2.3872
   29.850    2.5276
   29.865    2.4399
   29.880    2.7558
   29.895    2.8963
   29.910    2.7032
   29.925    2.8085
   29.940    2.6505
   29.955    2.3521
   29.970    2.5452
   29.985    2.4750
   30.000    2.5979
   30.015    2.5803
   30.030    2.9840
   30.045    2.6154
   30.060    2.4399
   30.075    2.4399
   30.090    2.5628
   30.105    2.3521
   30.120    2.4574
   30.135    2.7909
   30.150    2.5452
   30.165    2.4750
   30.180    2.6505
   30.195    2.4574
   30.210    2.4925
   30.225    2.6330
   30.240    2.6330
   30.255    2.2643
   30.270    2.0888
   30.285    2.4223
   30.300    2.7207
   30.315    2.4399
   30.330    2.4750
   30.345    2.4399
   30.360    2.7558
   30.375    2.8260
   30.390    2.5628
   30.405    2.5803
   30.420    2.2995
   30.435    2.3872
   30.450    2.5101
   30.465    2.3170
   30.480    2.4750
   30.495    2.1941
   30.510    2.4223
   30.525    2.4925
   30.540    2.4048
   30.555    2.5276
   30.570    2.7032
   30.585    2.6681
   30.600    2.2468
   30.615    2.5979
   30.630    2.2995
   30.645    2.3697
   30.660    2.2292
   30.675    2.1590
   30.690    2.5628
   30.705    2.2819
   30.720    2.2643
   30.735    2.5101
   30.750    2.6505
   30.765    2.4223
   30.780    2.4399
   30.795    2.3521
   30.810    2.3521
   30.825    2.1415
   30.840    2.3170
   30.855    2.2995
   30.870    2.5628
   30.885    2.5276
   30.900    2.2643
   30.915    2.2292
   30.930    2.3697
   30.945    2.2819
   30.960    2.3697
   30.975    2.2643
   30.990    2.2292
   31.005    2.4399
   31.020    2.2819
   31.035    2.2819
   31.050    2.5803
   31.065    2.2995
   31.080    2.3170
   31.095    2.4399
   31.110    2.3697
   31.125    2.1239
   31.140    2.1941
   31.155    2.4048
   31.170    2.3872
   31.185    2.3697
   31.200    2.2819
   31.215    2.2292
   31.230    2.3170
   31.245    1.8957
   31.260    2.1415
   31.275    2.3346
   31.290    2.1766
   31.305    2.2468
   31.320    2.2117
   31.335    2.0537
   31.350    2.3346
   31.365    2.2643
   31.380    1.9308
   31.395    2.1415
   31.410    2.1239
   31.425    2.2468
   31.440    2.0888
   31.455    2.2292
   31.470    2.4750
   31.485    2.5452
   31.500    2.2995
   31.515    2.5452
   31.530    2.4223
   31.545    2.2643
   31.560    2.2995
   31.575    2.2995
   31.590    2.2995
   31.605    2.0537
   31.620    2.4048
   31.635    2.3346
   31.650    2.0362
   31.665    2.0186
   31.680    2.2643
   31.695    2.4750
   31.710    2.2117
   31.725    2.1239
   31.740    2.2819
   31.755    2.3872
   31.770    2.6154
   31.785    2.3170
   31.800    2.2819
   31.815    2.1941
   31.830    2.6154
   31.845    2.1239
   31.860    2.1415
   31.875    2.2643
   31.890    2.2117
   31.905    2.2643
   31.920    2.2995
   31.935    2.3697
   31.950    2.2292
   31.965    2.2819
   31.980    2.2468
   31.995    2.4574
   32.010    2.2468
   32.025    2.0537
   32.040    2.0888
   32.055    2.2292
   32.070    2.1590
   32.085    2.1590
   32.100    1.8255
   32.115    2.3346
   32.130    2.2117
   32.145    2.1941
   32.160    2.1064
   32.175    2.2468
   32.190    2.2117
   32.205    2.0713
   32.220    2.3170
   32.235    2.2292
   32.250    2.1941
   32.265    2.3872
   32.280    2.3170
   32.295    2.3346
   32.310    2.3170
   32.325    2.2292
   32.340    2.1590
   32.355    2.0888
   32.370    2.1590
   32.385    2.1239
   32.400    2.0537
   32.415    2.2292
   32.430    2.4223
   32.445    1.9308
   32.460    1.9133
   32.475    1.8431
   32.490    2.2292
   32.505    2.3697
   32.520    2.3697
   32.535    2.2468
   32.550    2.1239
   32.565    1.8431
   32.580    2.2117
   32.595    2.2117
   32.610    2.1941
   32.625    2.1766
   32.640    2.1239
   32.655    2.2117
   32.670    2.1415
   32.685    1.9308
   32.700    2.0888
   32.715    2.1590
   32.730    1.9835
   32.745    2.0186
   32.760    2.2819
   32.775    2.2468
   32.790    2.2117
   32.805    2.5101
   32.820    2.2819
   32.835    2.2292
   32.850    2.2468
   32.865    2.1590
   32.880    2.3697
   32.895    2.1766
   32.910    2.3697
   32.925    2.0011
   32.940    2.1590
   32.955    2.1941
   32.970    2.3346
   32.985    2.0362
   33.000    2.1415
   33.015    2.0011
   33.030    2.1941
   33.045    2.3170
   33.060    2.0713
   33.075    1.8431
   33.090    2.2292
   33.105    2.2819
   33.120    1.9308
   33.135    1.9308
   33.150    2.1766
   33.165    2.1941
   33.180    2.4048
   33.195    2.3697
   33.210    2.1064
   33.225    2.0537
   33.240    2.1415
   33.255    2.2117
   33.270    1.9308
   33.285    2.1064
   33.300    2.1590
   33.315    2.1590
   33.330    1.9659
   33.345    2.4925
   33.360    2.3346
   33.375    2.1239
   33.390    1.7904
   33.405    2.1766
   33.420    2.0362
   33.435    2.0537
   33.450    1.9133
   33.465    2.1064
   33.480    2.1239
   33.495    2.2468
   33.510    2.2468
   33.525    1.8080
   33.540    2.0537
   33.555    2.0362
   33.570    2.2292
   33.585    2.1590
   33.600    2.1766
   33.615    2.1415
   33.630    2.3697
   33.645    2.2468
   33.660    2.0713
   33.675    2.0011
   33.690    2.1590
   33.705    1.9484
   33.720    2.0362
   33.735    2.0011
   33.750    1.8957
   33.765    1.8431
   33.780    1.8782
   33.795    2.0011
   33.810    1.9659
   33.825    1.7553
   33.840    1.8080
   33.855    1.9308
   33.870    1.8080
   33.885    2.0186
   33.900    1.9835
   33.915    2.1941
   33.930    2.0186
   33.945    2.2819
   33.960    2.1239
   33.975    2.2468
   33.990    2.1415
   34.005    2.1766
   34.020    2.5101
   34.035    2.3697
   34.050    2.1766
   34.065    2.0011
   34.080    1.7202
   34.095    1.9835
   34.110    2.0186
   34.125    1.7729
   34.140    1.8080
   34.155    1.7378
   34.170    2.0186
   34.185    2.0713
   34.200    2.1941
   34.215    2.2468
   34.230    2.0186
   34.245    2.1415
   34.260    1.9659
   34.275    1.8080
   34.290    2.1415
   34.305    2.0537
   34.320    1.8606
   34.335    1.7027
   34.350    1.7202
   34.365    1.6675
   34.380    1.9133
   34.395    1.8606
   34.410    1.8782
   34.425    2.1239
   34.440    2.2292
   34.455    2.0186
   34.470    2.0713
   34.485    1.7553
   34.500    1.8255
   34.515    2.0537
   34.530    2.0713
   34.545    2.0011
   34.560    2.1941
   34.575    1.9308
   34.590    1.9133
   34.605    2.0537
   34.620    2.1941
   34.635    1.8606
   34.650    1.9308
   34.665    1.8431
   34.680    2.1415
   34.695    2.0713
   34.710    2.0362
   34.725    1.7378
   34.740    2.0011
   34.755    1.8606
   34.770    2.1064
   34.785    1.8255
   34.800    1.9308
   34.815    2.2995
   34.830    2.1064
   34.845    2.2819
   34.860    2.1766
   34.875    2.1239
   34.890    1.8782
   34.905    1.7553
   34.920    2.2292
   34.935    1.9133
   34.950    1.9659
   34.965    1.8957
   34.980    1.8957
   34.995    2.2643
   35.010    2.0186
   35.025    2.0362
   35.040    1.9484
   35.055    1.9133
   35.070    1.9484
   35.085    1.9659
   35.100    2.0011
   35.115    1.9835
   35.130    1.7027
   35.145    1.8431
   35.160    2.0011
   35.175    1.9835
   35.190    2.0362
   35.205    1.9133
   35.220    2.2117
   35.235    2.0713
   35.250    1.8431
   35.265    2.1590
   35.280    2.0888
   35.295    2.3872
   35.310    2.0011
   35.325    1.8606
   35.340    1.6324
   35.355    1.9308
   35.370    1.6851
   35.385    2.0011
   35.400    1.9308
   35.415    1.7553
   35.430    2.1239
   35.445    1.9835
   35.460    1.8782
   35.475    1.8782
   35.490    1.9484
   35.505    1.6500
   35.520    1.9133
   35.535    1.7553
   35.550    1.8080
   35.565    2.0537
   35.580    2.0186
   35.595    1.9484
   35.610    1.9133
   35.625    1.9835
   35.640    2.0888
   35.655    2.1590
   35.670    2.0713
   35.685    1.7027
   35.700    1.8782
   35.715    2.0537
   35.730    1.7378
   35.745    1.7729
   35.760    1.9484
   35.775    1.7553
   35.790    1.9133
   35.805    1.9308
   35.820    1.9835
   35.835    1.9659
   35.850    1.9133
   35.865    2.0713
   35.880    1.7904
   35.895    1.7027
   35.910    1.9308
   35.925    1.8080
   35.940    2.0888
   35.955    2.0362
   35.970    2.0186
   35.985    1.8255
   36.000    1.9659
   36.015    1.9835
   36.030    1.9659
   36.045    2.0362
   36.060    2.0011
   36.075    1.9308
   36.090    2.0713
   36.105    2.0186
   36.120    2.0537
   36.135    2.2819
   36.150    2.1239
   36.165    1.7378
   36.180    1.7378
   36.195    1.9484
   36.210    2.0713
   36.225    2.0362
   36.240    2.0011
   36.255    1.8080
   36.270    1.6324
   36.285    1.8080
   36.300    1.9659
   36.315    1.8606
   36.330    1.8957
   36.345    1.8957
   36.360    1.7202
   36.375    1.9308
   36.390    2.0186
   36.405    1.7378
   36.420    1.7553
   36.435    1.8080
   36.450    2.0186
   36.465    1.9484
   36.480    2.0713
   36.495    2.0362
   36.510    1.7553
   36.525    2.0011
   36.540    1.9484
   36.555    1.9484
   36.570    2.0888
   36.585    2.0888
   36.600    2.1064
   36.615    1.9659
   36.630    1.9484
   36.645    2.0186
   36.660    1.9835
   36.675    2.0186
   36.690    2.0186
   36.705    1.8606
   36.720    1.9835
   36.735    1.6324
   36.750    1.8782
   36.765    2.1415
   36.780    1.8431
   36.795    1.9133
   36.810    1.9484
   36.825    1.7553
   36.840    1.7904
   36.855    1.8255
   36.870    1.7553
   36.885    1.8606
   36.900    1.8255
   36.915    1.9133
   36.930    2.0362
   36.945    2.0362
   36.960    2.0888
   36.975    2.0011
   36.990    1.9484
   37.005    2.0888
   37.020    2.0186
   37.035    1.8782
   37.050    1.8255
   37.065    1.9484
   37.080    1.8255
   37.095    1.9659
   37.110    1.8431
   37.125    1.8957
   37.140    2.0888
   37.155    1.7729
   37.170    1.7202
   37.185    1.9133
   37.200    1.6149
   37.215    1.8431
   37.230    1.6851
   37.245    1.9659
   37.260    1.9308
   37.275    2.0011
   37.290    1.8957
   37.305    2.1941
   37.320    2.0537
   37.335    1.8080
   37.350    1.7904
   37.365    1.8782
   37.380    2.0186
   37.395    2.3521
   37.410    1.8255
   37.425    1.8255
   37.440    1.9308
   37.455    1.9835
   37.470    2.0186
   37.485    1.7553
   37.500    1.7904
   37.515    1.8782
   37.530    1.8255
   37.545    1.7729
   37.560    1.8080
   37.575    1.7202
   37.590    1.8431
   37.605    1.7378
   37.620    1.7027
   37.635    1.9659
   37.650    2.0537
   37.665    1.9308
   37.680    1.6149
   37.695    1.6675
   37.710    1.7904
   37.725    1.6851
   37.740    1.6675
   37.755    1.8606
   37.770    1.9484
   37.785    1.8431
   37.800    1.8957
   37.815    1.9133
   37.830    2.1239
   37.845    1.9308
   37.860    1.7378
   37.875    1.6500
   37.890    1.6149
   37.905    1.7553
   37.920    1.7378
   37.935    1.5798
   37.950    1.8431
   37.965    1.9835
   37.980    1.8255
   37.995    1.6324
   38.010    1.9133
   38.025    1.6675
   38.040    1.6500
   38.055    1.7904
   38.070    1.9308
   38.085    1.7027
   38.100    1.5798
   38.115    1.7729
   38.130    2.0537
   38.145    1.7027
   38.160    1.7378
   38.175    2.0537
   38.190    1.9835
   38.205    1.9484
   38.220    1.9659
   38.235    1.7904
   38.250    2.0011
   38.265    1.6851
   38.280    1.9133
   38.295    1.6500
   38.310    1.7202
   38.325    2.0011
   38.340    1.8080
   38.355    1.7904
   38.370    1.6500
   38.385    1.8431
   38.400    1.7729
   38.415    1.6675
   38.430    1.4394
   38.445    1.9659
   38.460    1.8255
   38.475    1.8431
   38.490    2.1415
   38.505    1.8080
   38.520    1.7904
   38.535    1.9308
   38.550    1.8255
   38.565    1.8782
   38.580    1.6149
   38.595    1.9835
   38.610    1.8080
   38.625    1.8957
   38.640    1.7729
   38.655    1.5096
   38.670    1.7202
   38.685    1.5271
   38.700    1.6851
   38.715    1.6851
   38.730    1.9484
   38.745    1.7904
   38.760    1.4218
   38.775    1.6851
   38.790    1.8255
   38.805    1.8255
   38.820    1.6149
   38.835    1.7027
   38.850    1.8080
   38.865    1.7729
   38.880    1.8606
   38.895    1.7729
   38.910    1.9484
   38.925    2.0537
   38.940    1.7904
   38.955    1.7904
   38.970    1.6675
   38.985    1.6675
   39.000    1.7553
   39.015    1.6675
   39.030    1.8255
   39.045    1.8255
   39.060    1.8431
   39.075    1.7378
   39.090    1.7904
   39.105    1.5973
   39.120    1.7202
   39.135    1.6324
   39.150    1.7729
   39.165    1.7027
   39.180    1.7553
   39.195    1.7027
   39.210    1.5096
   39.225    1.4569
   39.240    1.5622
   39.255    1.7904
   39.270    1.6851
   39.285    1.7904
   39.300    1.9308
   39.315    1.7202
   39.330    1.5798
   39.345    2.0011
   39.360    2.0713
   39.375    1.7553
   39.390    1.7378
   39.405    1.9133
   39.420    1.9659
   39.435    1.7729
   39.450    1.4745
   39.465    1.7553
   39.480    1.5798
   39.495    1.8080
   39.510    1.7729
   39.525    1.8431
   39.540    1.8255
   39.555    1.7202
   39.570    2.0011
   39.585    1.6675
   39.600    1.6851
   39.615    1.9659
   39.630    1.9308
   39.645    1.7904
   39.660    1.7378
   39.675    1.7729
   39.690    1.6149
   39.705    1.7027
   39.720    1.7904
   39.735    1.7553
   39.750    1.7729
   39.765    1.7202
   39.780    1.4920
   39.795    1.5096
   39.810    1.7553
   39.825    1.6324
   39.840    1.5798
   39.855    1.4920
   39.870    1.7027
   39.885    1.8606
   39.900    1.7027
   39.915    1.5622
   39.930    1.7729
   39.945    1.6675
   39.960    1.8080
   39.975    1.4920
   39.990    1.7378
