    1.500   27.4882
    1.515   27.6672
    1.530   27.3091
    1.545   26.4350
    1.560   24.2233
    1.575   24.4444
    1.590   24.2549
    1.605   23.2333
    1.620   23.1069
    1.635   23.3597
    1.650   22.6119
    1.665   21.3481
    1.680   20.6424
    1.695   20.8110
    1.710   20.5266
    1.725   19.4418
    1.740   19.1153
    1.755   18.4518
    1.770   18.6835
    1.785   18.1359
    1.800   17.6619
    1.815   17.2091
    1.830   17.8199
    1.845   16.7878
    1.860   16.3770
    1.875   15.8610
    1.890   15.5240
    1.905   15.3555
    1.920   15.0500
    1.935   14.9763
    1.950   14.4813
    1.965   14.4392
    1.980   13.9126
    1.995   14.2601
    2.010   13.6809
    2.025   12.9226
    2.040   13.1964
    2.055   12.6698
    2.070   13.1543
    2.085   12.2907
    2.100   12.1011
    2.115   12.5540
    2.130   12.4697
    2.145   12.3223
    2.160   11.7746
    2.175   11.6588
    2.190   11.3217
    2.205   11.1006
    2.220   11.0058
    2.235   10.6372
    2.250   10.8373
    2.265   10.4897
    2.280   10.3844
    2.295   10.2686
    2.310   10.2054
    2.325   10.1948
    2.340    9.7736
    2.355    9.9737
    2.370   10.0790
    2.385    9.5735
    2.400    9.5945
    2.415    9.5945
    2.430    9.8368
    2.445    9.6577
    2.460    9.3207
    2.475    9.5208
    2.490    9.2575
    2.505    9.3102
    2.520    9.1101
    2.535    9.1627
    2.550    9.1417
    2.565    8.6256
    2.580    8.7414
    2.595    8.7625
    2.610    8.9521
    2.625    8.4887
    2.640    8.0674
    2.655    8.6467
    2.670    8.6361
    2.685    8.5940
    2.700    8.4466
    2.715    8.4044
    2.730    8.7309
    2.745    8.0463
    2.760    8.3096
    2.775    8.4150
    2.790    8.1727
    2.805    7.9410
    2.820    7.7514
    2.835    8.1938
    2.850    8.0358
    2.865    7.9516
    2.880    7.7199
    2.895    7.8989
    2.910    8.0042
    2.925    7.9410
    2.940    8.2359
    2.955    8.1411
    2.970    8.5624
    2.985    8.4044
    3.000    8.3834
    3.015    8.7414
    3.030    8.3728
    3.045    8.2254
    3.060    8.5835
    3.075    8.9731
    3.090    8.9731
    3.105    9.0785
    3.120    9.0469
    3.135    8.9731
    3.150   10.1211
    3.165    9.6472
    3.180   10.0053
    3.195   10.3528
    3.210   10.6161
    3.225   10.8057
    3.240   10.8583
    3.255   11.2796
    3.270   11.8905
    3.285   12.8173
    3.300   13.2596
    3.315   13.9863
    3.330   14.3971
    3.345   15.3449
    3.360   15.6187
    3.375   16.3244
    3.390   16.7035
    3.405   17.8620
    3.420   18.9468
    3.435   20.3791
    3.450   20.7794
    3.465   22.2328
    3.480   23.6335
    3.495   24.7920
    3.510   26.5719
    3.525   27.6777
    3.540   30.6582
    3.555   32.0590
    3.570   33.8073
    3.585   36.6614
    3.600   38.9258
    3.615   41.0111
    3.630   44.4655
    3.645   48.1727
    3.660   51.1954
    3.675   55.4292
    3.690   59.5471
    3.705   67.1827
    3.720   73.2175
    3.735   79.0205
    3.750   84.6656
    3.765   94.0916
    3.780  105.9084
    3.795  116.3770
    3.810  132.4171
    3.825  150.6161
    3.840  175.3028
    3.855  206.7825
    3.870  236.1664
    3.885  252.1116
    3.900  245.4134
    3.915  215.4292
    3.930  166.6877
    3.945  103.5387
    3.960   51.6904
    3.975   27.5197
    3.990   17.9568
    4.005   14.0706
    4.020   11.4587
    4.035   10.4055
    4.050    9.0995
    4.065    8.5097
    4.080    7.9200
    4.095    7.2354
    4.110    7.2565
    4.125    6.9616
    4.140    6.6667
    4.155    6.1927
    4.170    6.2243
    4.185    6.0979
    4.200    6.0874
    4.215    6.1506
    4.230    6.1401
    4.245    5.6451
    4.260    5.7715
    4.275    5.6240
    4.290    5.6556
    4.305    5.7504
    4.320    5.4134
    4.335    5.8873
    4.350    5.5924
    4.365    5.2659
    4.380    5.2554
    4.395    5.5398
    4.410    5.3397
    4.425    5.3712
    4.440    5.3502
    4.455    5.2870
    4.470    5.2238
    4.485    5.0342
    4.500    5.0026
    4.515    5.0869
    4.530    5.3186
    4.545    4.9816
    4.560    5.2238
    4.575    5.2027
    4.590    4.9816
    4.605    5.0132
    4.620    5.0342
    4.635    5.2133
    4.650    5.1290
    4.665    4.8657
    4.680    4.8763
    4.695    4.8447
    4.710    4.9921
    4.725    5.0132
    4.740    5.0342
    4.755    5.0132
    4.770    4.8552
    4.785    4.9500
    4.800    5.1501
    4.815    5.0658
    4.830    4.6656
    4.845    4.5919
    4.860    4.8868
    4.875    5.3712
    4.890    4.8131
    4.905    4.9078
    4.920    4.8447
    4.935    5.1606
    4.950    5.0026
    4.965    4.9184
    4.980    5.0342
    4.995    5.2449
    5.010    5.4976
    5.025    5.0869
    5.040    5.3923
    5.055    5.3186
    5.070    5.3186
    5.085    5.4239
    5.100    5.3186
    5.115    5.5187
    5.130    6.0769
    5.145    5.8662
    5.160    6.1506
    5.175    6.6351
    5.190    6.7404
    5.205    6.3928
    5.220    6.7825
    5.235    7.3828
    5.250    8.0253
    5.265    8.1938
    5.280    8.2359
    5.295    9.3102
    5.310    9.8157
    5.325   10.5424
    5.340   11.0690
    5.355   11.7325
    5.370   12.6909
    5.385   14.1443
    5.400   15.0606
    5.415   17.1143
    5.430   18.7046
    5.445   21.6324
    5.460   25.1080
    5.475   28.9626
    5.490   33.4071
    5.505   35.8926
    5.520   35.2291
    5.535   32.7014
    5.550   26.9194
    5.565   18.9889
    5.580   12.6277
    5.595    8.6677
    5.610    6.7825
    5.625    5.8662
    5.640    5.2765
    5.655    5.5398
    5.670    4.8236
    5.685    4.8236
    5.700    4.7815
    5.715    4.9394
    5.730    4.8868
    5.745    4.7920
    5.760    4.8868
    5.775    4.8025
    5.790    4.3918
    5.805    4.5603
    5.820    4.2970
    5.835    4.0232
    5.850    4.1074
    5.865    3.9705
    5.880    4.3918
    5.895    4.5708
    5.910    4.6445
    5.925    4.6235
    5.940    3.8863
    5.955    4.5076
    5.970    4.4128
    5.985    4.4550
    6.000    4.2338
    6.015    4.3075
    6.030    4.3918
    6.045    4.6024
    6.060    4.5498
    6.075    4.5182
    6.090    4.4550
    6.105    4.3391
    6.120    4.3286
    6.135    4.5498
    6.150    4.1811
    6.165    4.7183
    6.180    4.5708
    6.195    4.2759
    6.210    4.2443
    6.225    4.2233
    6.240    4.4444
    6.255    4.3918
    6.270    4.1811
    6.285    4.1917
    6.300    4.3813
    6.315    4.2654
    6.330    4.4339
    6.345    4.3602
    6.360    4.6130
    6.375    4.2443
    6.390    4.1601
    6.405    4.0864
    6.420    4.2127
    6.435    4.2022
    6.450    4.2970
    6.465    4.1180
    6.480    4.6024
    6.495    4.0864
    6.510    4.2654
    6.525    4.5603
    6.540    4.7815
    6.555    4.6551
    6.570    4.4444
    6.585    4.9605
    6.600    4.5287
    6.615    4.3707
    6.630    4.7604
    6.645    4.8341
    6.660    5.1395
    6.675    4.9500
    6.690    4.8973
    6.705    4.9816
    6.720    4.7393
    6.735    5.0869
    6.750    5.4660
    6.765    5.7083
    6.780    5.3607
    6.795    5.7820
    6.810    4.8552
    6.825    4.8763
    6.840    4.5287
    6.855    4.4550
    6.870    4.4339
    6.885    4.5392
    6.900    4.4339
    6.915    4.3602
    6.930    4.1496
    6.945    4.8025
    6.960    4.3181
    6.975    4.4128
    6.990    4.4655
    7.005    4.4444
    7.020    4.1496
    7.035    4.2127
    7.050    4.4866
    7.065    4.3286
    7.080    4.4444
    7.095    4.4444
    7.110    4.3075
    7.125    4.2654
    7.140    4.0548
    7.155    4.1601
    7.170    4.4234
    7.185    4.5392
    7.200    4.4023
    7.215    4.1285
    7.230    4.4971
    7.245    4.4760
    7.260    4.4023
    7.275    4.0442
    7.290    4.2127
    7.305    4.2127
    7.320    4.0021
    7.335    4.1074
    7.350    4.5287
    7.365    4.3707
    7.380    4.0758
    7.395    4.2549
    7.410    4.2233
    7.425    4.2654
    7.440    4.2865
    7.455    4.3075
    7.470    4.3286
    7.485    4.5076
    7.500    4.3497
    7.515    4.4655
    7.530    4.6867
    7.545    4.9816
    7.560    5.1080
    7.575    5.1817
    7.590    5.2659
    7.605    5.4028
    7.620    5.3186
    7.635    5.8241
    7.650    6.0453
    7.665    5.9294
    7.680    6.8668
    7.695    7.5092
    7.710    7.6461
    7.725    8.5940
    7.740    9.2575
    7.755   10.6266
    7.770   12.1432
    7.785   13.9547
    7.800   15.3028
    7.815   16.0190
    7.830   14.8183
    7.845   13.2596
    7.860   10.9637
    7.875    8.5097
    7.890    6.1611
    7.905    5.0764
    7.920    4.8552
    7.935    4.5708
    7.950    4.5076
    7.965    4.5392
    7.980    4.4760
    7.995    4.3286
    8.010    4.4655
    8.025    4.3707
    8.040    4.2970
    8.055    4.3286
    8.070    4.2759
    8.085    4.2022
    8.100    4.8868
    8.115    4.3707
    8.130    4.2233
    8.145    3.9916
    8.160    4.1285
    8.175    3.8757
    8.190    4.0126
    8.205    4.2759
    8.220    4.4128
    8.235    4.3707
    8.250    4.4550
    8.265    4.5182
    8.280    4.4023
    8.295    4.1601
    8.310    4.3181
    8.325    4.3391
    8.340    4.0442
    8.355    4.0548
    8.370    4.2443
    8.385    4.2549
    8.400    4.3391
    8.415    4.2549
    8.430    4.0969
    8.445    4.4550
    8.460    4.4550
    8.475    4.6656
    8.490    4.3391
    8.505    4.5603
    8.520    4.6656
    8.535    4.5603
    8.550    4.5919
    8.565    4.8763
    8.580    4.8447
    8.595    4.9605
    8.610    4.9078
    8.625    4.7499
    8.640    4.6867
    8.655    4.9289
    8.670    5.7293
    8.685    5.8662
    8.700    6.0664
    8.715    6.4350
    8.730    6.5613
    8.745    6.5719
    8.760    6.1717
    8.775    5.9610
    8.790    5.1817
    8.805    5.0974
    8.820    4.6130
    8.835    4.4444
    8.850    4.4550
    8.865    4.4655
    8.880    4.5076
    8.895    4.3602
    8.910    4.4550
    8.925    4.2865
    8.940    4.5498
    8.955    4.3813
    8.970    4.2338
    8.985    3.9494
    9.000    4.1601
    9.015    4.3181
    9.030    4.3707
    9.045    4.2970
    9.060    4.3391
    9.075    4.5708
    9.090    4.3391
    9.105    4.3181
    9.120    4.5392
    9.135    4.5182
    9.150    4.3181
    9.165    4.3602
    9.180    4.5814
    9.195    4.4655
    9.210    4.5603
    9.225    4.6761
    9.240    4.2022
    9.255    4.3707
    9.270    4.6130
    9.285    4.7077
    9.300    4.6656
    9.315    4.6867
    9.330    4.6656
    9.345    5.0448
    9.360    5.0342
    9.375    5.2870
    9.390    5.2133
    9.405    5.3081
    9.420    5.6240
    9.435    6.3086
    9.450    6.7404
    9.465    7.0248
    9.480    7.4460
    9.495    8.5835
    9.510    9.3839
    9.525   11.2375
    9.540   13.3860
    9.555   14.7762
    9.570   15.6082
    9.585   15.9874
    9.600   15.0922
    9.615   13.3649
    9.630   11.1743
    9.645    8.1201
    9.660    6.7509
    9.675    5.6029
    9.690    4.9394
    9.705    4.7920
    9.720    4.5498
    9.735    4.4760
    9.750    4.6024
    9.765    4.5392
    9.780    4.3391
    9.795    4.1811
    9.810    4.2970
    9.825    4.2759
    9.840    4.1496
    9.855    4.4128
    9.870    4.6445
    9.885    4.4128
    9.900    4.4128
    9.915    4.2654
    9.930    4.4234
    9.945    3.9810
    9.960    4.6235
    9.975    4.8552
    9.990    4.6024
   10.005    4.4234
   10.020    4.3286
   10.035    4.4339
   10.050    4.5392
   10.065    4.2127
   10.080    4.6024
   10.095    4.7077
   10.110    4.4550
   10.125    4.5287
   10.140    4.4760
   10.155    4.4655
   10.170    4.8763
   10.185    4.9605
   10.200    5.2238
   10.215    5.3081
   10.230    5.4028
   10.245    5.6977
   10.260    5.7399
   10.275    6.1506
   10.290    6.7509
   10.305    7.2249
   10.320    8.1833
   10.335    8.8152
   10.350    9.0047
   10.365    9.2996
   10.380    8.5624
   10.395    7.4460
   10.410    6.1085
   10.425    5.6135
   10.440    4.8447
   10.455    4.7499
   10.470    4.5392
   10.485    4.2654
   10.500    4.2759
   10.515    4.0442
   10.530    4.4971
   10.545    4.6340
   10.560    4.3497
   10.575    4.0969
   10.590    4.3602
   10.605    4.4444
   10.620    4.4023
   10.635    4.2549
   10.650    4.2127
   10.665    4.5814
   10.680    4.3813
   10.695    4.3286
   10.710    4.2233
   10.725    4.4128
   10.740    4.4128
   10.755    4.3391
   10.770    4.7288
   10.785    4.1917
   10.800    4.5814
   10.815    4.4339
   10.830    4.3918
   10.845    4.7499
   10.860    4.6867
   10.875    4.3602
   10.890    4.5708
   10.905    4.8657
   10.920    5.1922
   10.935    5.4134
   10.950    5.3397
   10.965    5.5924
   10.980    6.1295
   10.995    6.4350
   11.010    6.9932
   11.025    7.6988
   11.040    8.4571
   11.055    8.9310
   11.070    9.2364
   11.085    9.5629
   11.100    8.7836
   11.115    7.2670
   11.130    6.2559
   11.145    5.5292
   11.160    4.8131
   11.175    4.6656
   11.190    4.5708
   11.205    4.6551
   11.220    4.4339
   11.235    4.3813
   11.250    4.2865
   11.265    4.0864
   11.280    4.1601
   11.295    4.1601
   11.310    4.3602
   11.325    4.4760
   11.340    3.9916
   11.355    4.2970
   11.370    4.3497
   11.385    4.3707
   11.400    4.5182
   11.415    4.1601
   11.430    3.8863
   11.445    3.9389
   11.460    4.1390
   11.475    4.2338
   11.490    4.1074
   11.505    4.1390
   11.520    4.3602
   11.535    4.1706
   11.550    4.0864
   11.565    4.3286
   11.580    4.7393
   11.595    4.8447
   11.610    4.6656
   11.625    4.8973
   11.640    5.3923
   11.655    5.4766
   11.670    6.2559
   11.685    6.7825
   11.700    7.6777
   11.715    8.8994
   11.730    9.2996
   11.745    9.2470
   11.760    9.2364
   11.775    8.3096
   11.790    7.4460
   11.805    6.3612
   11.820    5.4766
   11.835    4.5182
   11.850    4.3602
   11.865    4.5603
   11.880    4.3391
   11.895    4.3497
   11.910    4.0337
   11.925    4.0232
   11.940    4.1496
   11.955    4.2865
   11.970    4.0337
   11.985    3.8231
   12.000    4.2654
   12.015    4.0969
   12.030    4.0548
   12.045    4.2970
   12.060    3.7493
   12.075    3.9810
   12.090    3.9810
   12.105    4.0758
   12.120    4.2022
   12.135    4.2233
   12.150    4.2022
   12.165    4.0337
   12.180    3.8757
   12.195    4.1811
   12.210    3.9494
   12.225    4.2549
   12.240    4.2022
   12.255    3.8757
   12.270    3.9284
   12.285    4.4128
   12.300    4.3813
   12.315    4.4971
   12.330    4.8025
   12.345    4.8552
   12.360    5.1922
   12.375    5.3923
   12.390    4.8341
   12.405    4.9921
   12.420    4.8025
   12.435    4.6024
   12.450    4.0758
   12.465    4.2233
   12.480    4.0864
   12.495    4.1601
   12.510    3.9810
   12.525    4.0232
   12.540    3.9810
   12.555    3.9284
   12.570    3.8441
   12.585    3.9389
   12.600    4.1390
   12.615    3.8863
   12.630    3.8441
   12.645    3.9179
   12.660    3.7809
   12.675    4.2970
   12.690    3.9179
   12.705    3.7493
   12.720    4.1811
   12.735    4.2654
   12.750    3.8441
   12.765    3.9179
   12.780    3.9810
   12.795    4.0653
   12.810    4.4234
   12.825    4.4444
   12.840    4.0232
   12.855    4.2654
   12.870    4.0653
   12.885    4.4339
   12.900    4.7604
   12.915    5.4239
   12.930    5.6872
   12.945    6.3612
   12.960    7.0879
   12.975    7.7093
   12.990    7.5197
   13.005    7.0985
   13.020    6.9616
   13.035    6.6667
   13.050    5.8768
   13.065    4.8763
   13.080    4.5498
   13.095    4.1390
   13.110    4.1074
   13.125    3.8652
   13.140    3.8020
   13.155    4.0232
   13.170    4.1601
   13.185    4.2654
   13.200    3.9705
   13.215    3.6124
   13.230    3.7283
   13.245    4.1180
   13.260    3.6862
   13.275    3.4755
   13.290    3.4229
   13.305    3.8441
   13.320    3.7915
   13.335    3.6862
   13.350    4.1601
   13.365    3.8020
   13.380    3.7177
   13.395    3.6967
   13.410    3.6862
   13.425    4.0653
   13.440    4.0337
   13.455    4.3918
   13.470    4.3707
   13.485    4.4023
   13.500    4.7920
   13.515    4.8236
   13.530    5.1395
   13.545    5.1185
   13.560    5.8978
   13.575    6.1085
   13.590    5.6977
   13.605    5.5187
   13.620    4.7183
   13.635    4.7077
   13.650    4.3813
   13.665    4.0337
   13.680    3.8020
   13.695    3.7072
   13.710    3.8863
   13.725    3.7915
   13.740    3.8231
   13.755    3.5492
   13.770    3.8020
   13.785    3.8336
   13.800    3.4755
   13.815    3.5492
   13.830    3.7809
   13.845    3.9810
   13.860    3.9705
   13.875    3.8441
   13.890    3.8441
   13.905    4.0442
   13.920    3.8547
   13.935    3.8547
   13.950    3.7493
   13.965    3.8020
   13.980    4.2127
   13.995    4.4655
   14.010    4.2338
   14.025    4.1601
   14.040    4.4023
   14.055    4.8341
   14.070    5.1290
   14.085    5.3502
   14.100    6.0137
   14.115    6.1927
   14.130    6.0979
   14.145    6.3402
   14.160    5.8347
   14.175    5.4555
   14.190    5.0237
   14.205    4.3918
   14.220    4.2970
   14.235    3.8547
   14.250    3.5914
   14.265    3.8336
   14.280    3.7599
   14.295    3.6862
   14.310    3.9389
   14.325    3.7704
   14.340    3.9073
   14.355    3.6335
   14.370    3.7072
   14.385    3.8231
   14.400    3.8968
   14.415    3.7704
   14.430    3.6335
   14.445    3.7283
   14.460    3.7493
   14.475    3.9284
   14.490    3.6440
   14.505    3.8125
   14.520    3.8547
   14.535    3.6440
   14.550    3.6124
   14.565    3.5703
   14.580    3.6756
   14.595    3.3702
   14.610    3.6651
   14.625    3.9916
   14.640    3.7599
   14.655    3.8336
   14.670    3.7915
   14.685    3.8863
   14.700    3.7704
   14.715    3.6230
   14.730    4.0126
   14.745    3.7388
   14.760    3.6335
   14.775    3.9284
   14.790    3.7177
   14.805    3.8441
   14.820    3.8757
   14.835    3.5492
   14.850    3.8863
   14.865    3.7388
   14.880    3.7283
   14.895    4.0969
   14.910    3.8968
   14.925    3.7915
   14.940    3.6967
   14.955    3.7388
   14.970    3.7177
   14.985    3.9284
   15.000    3.7915
   15.015    3.8231
   15.030    3.8020
   15.045    3.8968
   15.060    3.9284
   15.075    3.9179
   15.090    4.0653
   15.105    4.2970
   15.120    4.4655
   15.135    4.3918
   15.150    4.8868
   15.165    5.3081
   15.180    5.0342
   15.195    5.3502
   15.210    5.2554
   15.225    4.8763
   15.240    4.8025
   15.255    4.4655
   15.270    4.1074
   15.285    3.6124
   15.300    3.7599
   15.315    3.8336
   15.330    3.7704
   15.345    3.7388
   15.360    3.8547
   15.375    3.6862
   15.390    3.7704
   15.405    3.8968
   15.420    3.7177
   15.435    3.6756
   15.450    3.7283
   15.465    3.5703
   15.480    3.8757
   15.495    3.6546
   15.510    3.6124
   15.525    3.5598
   15.540    3.7704
   15.555    3.6440
   15.570    3.4334
   15.585    3.8336
   15.600    3.8547
   15.615    3.7283
   15.630    3.6124
   15.645    3.8441
   15.660    3.5598
   15.675    3.6756
   15.690    4.0232
   15.705    3.8336
   15.720    3.7599
   15.735    3.8231
   15.750    3.6651
   15.765    3.6967
   15.780    3.6756
   15.795    3.6546
   15.810    4.0337
   15.825    4.0758
   15.840    3.4334
   15.855    3.6546
   15.870    3.6230
   15.885    3.6756
   15.900    4.1706
   15.915    3.9389
   15.930    3.8863
   15.945    4.0653
   15.960    3.8125
   15.975    3.9389
   15.990    3.6651
   16.005    3.8441
   16.020    3.8652
   16.035    3.6335
   16.050    3.5808
   16.065    3.8968
   16.080    4.0442
   16.095    4.0653
   16.110    4.0758
   16.125    4.5814
   16.140    4.6761
   16.155    5.0026
   16.170    5.1290
   16.185    5.1080
   16.200    5.0974
   16.215    4.4866
   16.230    4.4971
   16.245    4.4339
   16.260    4.1390
   16.275    3.8336
   16.290    3.8441
   16.305    3.7177
   16.320    3.8441
   16.335    3.8968
   16.350    3.7388
   16.365    3.7177
   16.380    3.7599
   16.395    3.9600
   16.410    3.8441
   16.425    3.6862
   16.440    3.8336
   16.455    3.7704
   16.470    3.9073
   16.485    3.8968
   16.500    4.0021
   16.515    3.6335
   16.530    3.6651
   16.545    4.1496
   16.560    4.0758
   16.575    4.5287
   16.590    4.8763
   16.605    4.8131
   16.620    5.0553
   16.635    5.1606
   16.650    5.0342
   16.665    5.0342
   16.680    5.2133
   16.695    4.6024
   16.710    4.4128
   16.725    4.4550
   16.740    3.9179
   16.755    3.8757
   16.770    3.8757
   16.785    3.7809
   16.800    3.7915
   16.815    3.9073
   16.830    3.8231
   16.845    3.6019
   16.860    4.0969
   16.875    3.8652
   16.890    3.5071
   16.905    4.0969
   16.920    4.2233
   16.935    3.8125
   16.950    3.9179
   16.965    3.9179
   16.980    3.9179
   16.995    4.3602
   17.010    4.6340
   17.025    4.7920
   17.040    5.2133
   17.055    5.2449
   17.070    5.4660
   17.085    5.8347
   17.100    5.8978
   17.115    6.0769
   17.130    6.0874
   17.145    5.5503
   17.160    5.1922
   17.175    4.8552
   17.190    4.8447
   17.205    4.4550
   17.220    4.0653
   17.235    3.9600
   17.250    3.8020
   17.265    3.8547
   17.280    3.5914
   17.295    3.7388
   17.310    3.7704
   17.325    3.6756
   17.340    3.8231
   17.355    3.6862
   17.370    3.5703
   17.385    3.7493
   17.400    3.5914
   17.415    3.5598
   17.430    3.9179
   17.445    3.7493
   17.460    3.6019
   17.475    3.9073
   17.490    4.2233
   17.505    3.7599
   17.520    4.2127
   17.535    4.2865
   17.550    4.3075
   17.565    4.3602
   17.580    4.3075
   17.595    4.1390
   17.610    3.9916
   17.625    4.2549
   17.640    4.0864
   17.655    3.9494
   17.670    3.5703
   17.685    3.6756
   17.700    3.8441
   17.715    3.8863
   17.730    3.7915
   17.745    3.6546
   17.760    3.9705
   17.775    4.0864
   17.790    3.6440
   17.805    3.6124
   17.820    3.6756
   17.835    3.8336
   17.850    3.9073
   17.865    4.1285
   17.880    3.9810
   17.895    3.9284
   17.910    4.2022
   17.925    4.1390
   17.940    4.1285
   17.955    4.1601
   17.970    4.5708
   17.985    4.5287
   18.000    4.1811
   18.015    4.5708
   18.030    4.4655
   18.045    4.0442
   18.060    4.1496
   18.075    4.1285
   18.090    4.1390
   18.105    3.6651
   18.120    3.6546
   18.135    3.6967
   18.150    3.8020
   18.165    3.8336
   18.180    3.7283
   18.195    3.9705
   18.210    3.8441
   18.225    4.1180
   18.240    3.8547
   18.255    3.7809
   18.270    4.2443
   18.285    3.9705
   18.300    4.0653
   18.315    3.8652
   18.330    4.0548
   18.345    4.0969
   18.360    4.2233
   18.375    4.2338
   18.390    4.6130
   18.405    4.5287
   18.420    4.3181
   18.435    4.5076
   18.450    4.6235
   18.465    4.9078
   18.480    4.7709
   18.495    4.4760
   18.510    4.0864
   18.525    3.7283
   18.540    3.8547
   18.555    3.9389
   18.570    3.6230
   18.585    3.6019
   18.600    3.7072
   18.615    3.8231
   18.630    4.0864
   18.645    3.7177
   18.660    4.0864
   18.675    3.8757
   18.690    4.1390
   18.705    3.8231
   18.720    3.6967
   18.735    3.6335
   18.750    4.1285
   18.765    3.9600
   18.780    3.8441
   18.795    4.1180
   18.810    3.9705
   18.825    4.0126
   18.840    3.9389
   18.855    4.4339
   18.870    4.3813
   18.885    4.2127
   18.900    4.0021
   18.915    3.7809
   18.930    4.0969
   18.945    3.9389
   18.960    4.0969
   18.975    4.2338
   18.990    3.5914
   19.005    3.9073
   19.020    3.8020
   19.035    4.2338
   19.050    3.9810
   19.065    3.7915
   19.080    3.4966
   19.095    3.8968
   19.110    3.9179
   19.125    3.8125
   19.140    3.6651
   19.155    3.6335
   19.170    3.8125
   19.185    4.0232
   19.200    4.1285
   19.215    3.8547
   19.230    4.1074
   19.245    4.1390
   19.260    3.9389
   19.275    3.8547
   19.290    3.9916
   19.305    4.1706
   19.320    3.6440
   19.335    3.8547
   19.350    3.8652
   19.365    4.0021
   19.380    3.9810
   19.395    3.7704
   19.410    3.9494
   19.425    3.9600
   19.440    4.0021
   19.455    3.4650
   19.470    3.5703
   19.485    3.5914
   19.500    3.7177
   19.515    4.1706
   19.530    4.1917
   19.545    4.0021
   19.560    4.1706
   19.575    4.0758
   19.590    4.4550
   19.605    4.3707
   19.620    5.0237
   19.635    5.2870
   19.650    5.1922
   19.665    5.2765
   19.680    4.9500
   19.695    5.0658
   19.710    4.7183
   19.725    4.6024
   19.740    4.3813
   19.755    4.4866
   19.770    4.1180
   19.785    4.1180
   19.800    4.1811
   19.815    4.0021
   19.830    4.2549
   19.845    3.9600
   19.860    3.6546
   19.875    3.8125
   19.890    3.9389
   19.905    4.0232
   19.920    3.8336
   19.935    3.8441
   19.950    3.9916
   19.965    3.8968
   19.980    3.7599
   19.995    3.7493
   20.010    3.8547
   20.025    4.0232
   20.040    3.9705
   20.055    4.2759
   20.070    4.0864
   20.085    4.2127
   20.100    4.0758
   20.115    3.9073
   20.130    3.5071
   20.145    3.9600
   20.160    3.8652
   20.175    3.7493
   20.190    3.7704
   20.205    3.7493
   20.220    3.7915
   20.235    3.8547
   20.250    4.0442
   20.265    4.1706
   20.280    4.1601
   20.295    3.9916
   20.310    3.6756
   20.325    3.9916
   20.340    4.3813
   20.355    4.9605
   20.370    5.2765
   20.385    5.4766
   20.400    5.5292
   20.415    5.6661
   20.430    5.9189
   20.445    6.0032
   20.460    6.0242
   20.475    5.6767
   20.490    5.3186
   20.505    5.0342
   20.520    4.7288
   20.535    4.3075
   20.550    4.2654
   20.565    4.2338
   20.580    4.2338
   20.595    4.1601
   20.610    3.7599
   20.625    3.9284
   20.640    3.9810
   20.655    3.9494
   20.670    4.2233
   20.685    3.9600
   20.700    4.0232
   20.715    3.9916
   20.730    3.7177
   20.745    3.7493
   20.760    3.8336
   20.775    4.3391
   20.790    3.9810
   20.805    3.7809
   20.820    3.9179
   20.835    4.0864
   20.850    4.2127
   20.865    4.0653
   20.880    4.0548
   20.895    4.2549
   20.910    3.6862
   20.925    3.8020
   20.940    4.0337
   20.955    3.9179
   20.970    4.0758
   20.985    3.9073
   21.000    4.1811
   21.015    3.8125
   21.030    4.1811
   21.045    4.2022
   21.060    3.9284
   21.075    3.6862
   21.090    3.8652
   21.105    4.0337
   21.120    3.7704
   21.135    3.7809
   21.150    3.9284
   21.165    4.2233
   21.180    4.1074
   21.195    3.9810
   21.210    3.6756
   21.225    4.2338
   21.240    4.0548
   21.255    4.0864
   21.270    3.8020
   21.285    3.8441
   21.300    4.1706
   21.315    3.9073
   21.330    4.0232
   21.345    3.8968
   21.360    4.1180
   21.375    4.1706
   21.390    3.8020
   21.405    3.7809
   21.420    3.9284
   21.435    3.9916
   21.450    4.1496
   21.465    4.1285
   21.480    3.9600
   21.495    4.1496
   21.510    3.9494
   21.525    4.0969
   21.540    4.2654
   21.555    4.0232
   21.570    3.7283
   21.585    4.1496
   21.600    4.1180
   21.615    4.0442
   21.630    3.8020
   21.645    4.2127
   21.660    4.3181
   21.675    3.8652
   21.690    3.9284
   21.705    3.9179
   21.720    3.9179
   21.735    3.9179
   21.750    3.8336
   21.765    3.8968
   21.780    4.1811
   21.795    4.4234
   21.810    4.2443
   21.825    4.2654
   21.840    4.6130
   21.855    4.6130
   21.870    4.9184
   21.885    4.8131
   21.900    5.1185
   21.915    4.8341
   21.930    5.3186
   21.945    4.9078
   21.960    5.0658
   21.975    4.6656
   21.990    4.2970
   22.005    4.4866
   22.020    4.2970
   22.035    4.4444
   22.050    4.1074
   22.065    4.0548
   22.080    4.2654
   22.095    3.9179
   22.110    3.9916
   22.125    4.4866
   22.140    4.1706
   22.155    3.9600
   22.170    4.3602
   22.185    4.1917
   22.200    3.7177
   22.215    4.1811
   22.230    4.5498
   22.245    4.3602
   22.260    4.3497
   22.275    4.2233
   22.290    4.4760
   22.305    4.0021
   22.320    4.6340
   22.335    4.5182
   22.350    4.1811
   22.365    4.0969
   22.380    4.4760
   22.395    4.2022
   22.410    4.2022
   22.425    3.9389
   22.440    3.9179
   22.455    4.1285
   22.470    4.3707
   22.485    4.3813
   22.500    4.4550
   22.515    4.6445
   22.530    4.8131
   22.545    4.9500
   22.560    5.1185
   22.575    5.5398
   22.590    6.1085
   22.605    6.3402
   22.620    6.1611
   22.635    5.7609
   22.650    6.2454
   22.665    5.8136
   22.680    5.2238
   22.695    5.2343
   22.710    5.1185
   22.725    4.5814
   22.740    4.4550
   22.755    4.0548
   22.770    4.2233
   22.785    4.3707
   22.800    4.3181
   22.815    4.4760
   22.830    4.3286
   22.845    4.3602
   22.860    4.8341
   22.875    5.0132
   22.890    5.5819
   22.905    5.9821
   22.920    6.0137
   22.935    6.3718
   22.950    6.7299
   22.965    7.0774
   22.980    6.7088
   22.995    6.7615
   23.010    6.3718
   23.025    5.9400
   23.040    5.4871
   23.055    5.6556
   23.070    4.8973
   23.085    4.5603
   23.100    4.3602
   23.115    4.1811
   23.130    4.1390
   23.145    4.3181
   23.160    4.3391
   23.175    4.0442
   23.190    4.0337
   23.205    4.1390
   23.220    4.3602
   23.235    4.5392
   23.250    4.6024
   23.265    4.6761
   23.280    4.4444
   23.295    4.7288
   23.310    4.7499
   23.325    4.5708
   23.340    4.6445
   23.355    4.6340
   23.370    4.4023
   23.385    4.5498
   23.400    4.2970
   23.415    4.2865
   23.430    4.3602
   23.445    4.0653
   23.460    3.9073
   23.475    3.9179
   23.490    3.8441
   23.505    4.2022
   23.520    4.0758
   23.535    4.0232
   23.550    4.2022
   23.565    4.1285
   23.580    4.3075
   23.595    4.3918
   23.610    4.0864
   23.625    3.9284
   23.640    3.7704
   23.655    4.3075
   23.670    4.2443
   23.685    4.2970
   23.700    4.2865
   23.715    4.0758
   23.730    4.1706
   23.745    4.1601
   23.760    3.7599
   23.775    4.0337
   23.790    3.7072
   23.805    3.5387
   23.820    3.9494
   23.835    3.9705
   23.850    4.2338
   23.865    4.0337
   23.880    4.3813
   23.895    4.8763
   23.910    4.5708
   23.925    4.5076
   23.940    4.6235
   23.955    4.8552
   23.970    5.2343
   23.985    4.8236
   24.000    4.8657
   24.015    4.7183
   24.030    4.5392
   24.045    4.1706
   24.060    4.4023
   24.075    4.4234
   24.090    4.1601
   24.105    4.1285
   24.120    4.3391
   24.135    3.9916
   24.150    3.8863
   24.165    3.9810
   24.180    3.8547
   24.195    3.9389
   24.210    3.8547
   24.225    4.0864
   24.240    4.0021
   24.255    3.9810
   24.270    3.9073
   24.285    3.8863
   24.300    4.1601
   24.315    4.1496
   24.330    3.9916
   24.345    3.9073
   24.360    3.8652
   24.375    3.8547
   24.390    4.1180
   24.405    4.0864
   24.420    3.8125
   24.435    3.9810
   24.450    4.0337
   24.465    4.0864
   24.480    3.9916
   24.495    3.9389
   24.510    4.2970
   24.525    3.7599
   24.540    3.9389
   24.555    3.8757
   24.570    4.1917
   24.585    4.1706
   24.600    4.2759
   24.615    4.1390
   24.630    3.9389
   24.645    4.1285
   24.660    4.0126
   24.675    4.1917
   24.690    4.5498
   24.705    4.3075
   24.720    3.7283
   24.735    4.0969
   24.750    3.7599
   24.765    3.6967
   24.780    3.9179
   24.795    3.9494
   24.810    3.7072
   24.825    3.8757
   24.840    4.2127
   24.855    4.0442
   24.870    3.8020
   24.885    3.6019
   24.900    3.8020
   24.915    3.8652
   24.930    3.9600
   24.945    4.0232
   24.960    4.0758
   24.975    3.9494
   24.990    4.2338
   25.005    4.0969
   25.020    4.0969
   25.035    4.0969
   25.050    4.1180
   25.065    3.8652
   25.080    3.8863
   25.095    4.0864
   25.110    4.0548
   25.125    3.8020
   25.140    3.8231
   25.155    3.8652
   25.170    4.1074
   25.185    4.2127
   25.200    4.2865
   25.215    4.1285
   25.230    3.8968
   25.245    4.2443
   25.260    4.0758
   25.275    4.4550
   25.290    4.0548
   25.305    4.1811
   25.320    4.0969
   25.335    4.0021
   25.350    4.2233
   25.365    4.2549
   25.380    3.7809
   25.395    3.7809
   25.410    3.8441
   25.425    4.4339
   25.440    4.1180
   25.455    3.8231
   25.470    3.7177
   25.485    3.6440
   25.500    3.7493
   25.515    3.9810
   25.530    3.9179
   25.545    4.2022
   25.560    4.0548
   25.575    4.0021
   25.590    4.3075
   25.605    4.1917
   25.620    4.4550
   25.635    4.0337
   25.650    3.9705
   25.665    3.9389
   25.680    3.7388
   25.695    4.1390
   25.710    4.0021
   25.725    3.9705
   25.740    3.8968
   25.755    4.0653
   25.770    4.1285
   25.785    4.2127
   25.800    4.4128
   25.815    4.5287
   25.830    4.8552
   25.845    4.9816
   25.860    5.4134
   25.875    5.2027
   25.890    5.2343
   25.905    5.0132
   25.920    4.8973
   25.935    4.9289
   25.950    4.8657
   25.965    4.7499
   25.980    4.6340
   25.995    4.5182
   26.010    4.1285
   26.025    3.9389
   26.040    3.8336
   26.055    3.6546
   26.070    3.7704
   26.085    3.7388
   26.100    3.6756
   26.115    3.9600
   26.130    4.1706
   26.145    3.8231
   26.160    3.7599
   26.175    4.1074
   26.190    4.0126
   26.205    3.9179
   26.220    4.0337
   26.235    3.9705
   26.250    3.8652
   26.265    3.8125
   26.280    3.8441
   26.295    3.7915
   26.310    3.7177
   26.325    3.7177
   26.340    3.4966
   26.355    3.5387
   26.370    4.1390
   26.385    4.2443
   26.400    4.0653
   26.415    3.9916
   26.430    3.9494
   26.445    4.1496
   26.460    4.2233
   26.475    4.2443
   26.490    4.3075
   26.505    4.1496
   26.520    4.0864
   26.535    4.1074
   26.550    4.1601
   26.565    4.2022
   26.580    4.1496
   26.595    4.1917
   26.610    4.0969
   26.625    3.9179
   26.640    3.8020
   26.655    3.7072
   26.670    3.6230
   26.685    3.4123
   26.700    3.6335
   26.715    3.4229
   26.730    3.6862
   26.745    3.9073
   26.760    3.7283
   26.775    3.6862
   26.790    3.7704
   26.805    3.7388
   26.820    3.8547
   26.835    3.9600
   26.850    3.8125
   26.865    3.8863
   26.880    3.8757
   26.895    3.8336
   26.910    3.6967
   26.925    3.6019
   26.940    3.7493
   26.955    3.8020
   26.970    3.7599
   26.985    4.0126
   27.000    4.0758
   27.015    4.1180
   27.030    4.0969
   27.045    4.2233
   27.060    4.5076
   27.075    4.4128
   27.090    4.4444
   27.105    4.2549
   27.120    4.5814
   27.135    4.4550
   27.150    4.2443
   27.165    3.8547
   27.180    3.6440
   27.195    3.7915
   27.210    3.8441
   27.225    3.9284
   27.240    3.7388
   27.255    3.8441
   27.270    3.9389
   27.285    3.6440
   27.300    3.6651
   27.315    3.8652
   27.330    3.9073
   27.345    3.8968
   27.360    3.6546
   27.375    3.6546
   27.390    3.7177
   27.405    3.8547
   27.420    3.7177
   27.435    3.5176
   27.450    3.8863
   27.465    3.8863
   27.480    3.7915
   27.495    3.8231
   27.510    3.7177
   27.525    3.5492
   27.540    3.5598
   27.555    3.8863
   27.570    4.0021
   27.585    3.8547
   27.600    3.7704
   27.615    4.1074
   27.630    3.9073
   27.645    3.9705
   27.660    3.9916
   27.675    4.2127
   27.690    4.0442
   27.705    3.9389
   27.720    3.9600
   27.735    3.6967
   27.750    3.7177
   27.765    3.9600
   27.780    3.7072
   27.795    3.7177
   27.810    3.7809
   27.825    3.5176
   27.840    3.6862
   27.855    3.8757
   27.870    3.6651
   27.885    3.9916
   27.900    3.8125
   27.915    3.9705
   27.930    3.8441
   27.945    3.9600
   27.960    4.0969
   27.975    4.2970
   27.990    4.2022
   28.005    4.3497
   28.020    3.8863
   28.035    3.6440
   28.050    3.9179
   28.065    3.8125
   28.080    3.5914
   28.095    3.4860
   28.110    3.7915
   28.125    3.6967
   28.140    3.8336
   28.155    4.0548
   28.170    3.9916
   28.185    4.2233
   28.200    4.4444
   28.215    4.3286
   28.230    4.3707
   28.245    4.4339
   28.260    4.5392
   28.275    4.2022
   28.290    3.8652
   28.305    4.4128
   28.320    4.1706
   28.335    4.0758
   28.350    3.7283
   28.365    4.0126
   28.380    3.8863
   28.395    3.7809
   28.410    4.0126
   28.425    4.0864
   28.440    4.1074
   28.455    3.9600
   28.470    3.9284
   28.485    4.1074
   28.500    4.2338
   28.515    4.3918
   28.530    4.3181
   28.545    4.1601
   28.560    3.9179
   28.575    4.2233
   28.590    4.0126
   28.605    3.9810
   28.620    3.8547
   28.635    3.8968
   28.650    3.9389
   28.665    3.7283
   28.680    3.4966
   28.695    3.6546
   28.710    3.5176
   28.725    3.6230
   28.740    3.3913
   28.755    3.4650
   28.770    3.6967
   28.785    3.7704
   28.800    3.5703
   28.815    3.4439
   28.830    3.6124
   28.845    3.7177
   28.860    3.8020
   28.875    3.6019
   28.890    3.5282
   28.905    3.4334
   28.920    3.6862
   28.935    3.7915
   28.950    3.8231
   28.965    3.7388
   28.980    3.5176
   28.995    3.5282
   29.010    3.6230
   29.025    3.4755
   29.040    3.7177
   29.055    3.8968
   29.070    3.9073
   29.085    3.4860
   29.100    3.9179
   29.115    3.7704
   29.130    3.9600
   29.145    3.5703
   29.160    3.6546
   29.175    3.2859
   29.190    3.8020
   29.205    3.7493
   29.220    3.6124
   29.235    3.7493
   29.250    3.8968
   29.265    4.0758
   29.280    4.0548
   29.295    4.1074
   29.310    4.1496
   29.325    4.1074
   29.340    4.0758
   29.355    4.0864
   29.370    4.2549
   29.385    3.8968
   29.400    4.0021
   29.415    3.9705
   29.430    3.8125
   29.445    3.6756
   29.460    3.7493
   29.475    3.4334
   29.490    3.4860
   29.505    3.6335
   29.520    3.4334
   29.535    3.5387
   29.550    3.6967
   29.565    3.8441
   29.580    3.6967
   29.595    3.7493
   29.610    3.4229
   29.625    3.6019
   29.640    3.5598
   29.655    3.4966
   29.670    3.6756
   29.685    3.7283
   29.700    3.3491
   29.715    3.7177
   29.730    3.8652
   29.745    3.7283
   29.760    3.5598
   29.775    3.8125
   29.790    3.7283
   29.805    3.7388
   29.820    3.7809
   29.835    3.4229
   29.850    3.6756
   29.865    3.7388
   29.880    4.1706
   29.895    3.7599
   29.910    3.6756
   29.925    3.6440
   29.940    3.7177
   29.955    4.1390
   29.970    3.8336
   29.985    3.6019
   30.000    3.4334
   30.015    3.2649
   30.030    3.3491
   30.045    3.2754
   30.060    3.6019
   30.075    3.5071
   30.090    3.6756
   30.105    3.8652
   30.120    3.6546
   30.135    3.6019
   30.150    3.7493
   30.165    3.8441
   30.180    3.5808
   30.195    3.7704
   30.210    3.7493
   30.225    3.6019
   30.240    3.7599
   30.255    3.3491
   30.270    3.5914
   30.285    3.9916
   30.300    3.9389
   30.315    3.6756
   30.330    3.3807
   30.345    3.6230
   30.360    3.4650
   30.375    3.2965
   30.390    3.3913
   30.405    3.3175
   30.420    3.3913
   30.435    3.4018
   30.450    3.6230
   30.465    3.5282
   30.480    3.7704
   30.495    3.6651
   30.510    3.6546
   30.525    3.9705
   30.540    3.6546
   30.555    3.6651
   30.570    3.7809
   30.585    3.4860
   30.600    3.6862
   30.615    3.8757
   30.630    3.9389
   30.645    4.0232
   30.660    4.1601
   30.675    4.0021
   30.690    3.8863
   30.705    3.8757
   30.720    3.7599
   30.735    3.5387
   30.750    3.4755
   30.765    3.6124
   30.780    3.6230
   30.795    3.7704
   30.810    3.8020
   30.825    3.3807
   30.840    3.4860
   30.855    3.5598
   30.870    3.6756
   30.885    3.3491
   30.900    3.5282
   30.915    3.4334
   30.930    3.5703
   30.945    3.3070
   30.960    3.4123
   30.975    3.3175
   30.990    3.1806
   31.005    3.8547
   31.020    3.4860
   31.035    3.4860
   31.050    3.2965
   31.065    3.2649
   31.080    3.2859
   31.095    3.6651
   31.110    3.4755
   31.125    3.3281
   31.140    3.2227
   31.155    3.6967
   31.170    3.5176
   31.185    3.5387
   31.200    3.2754
   31.215    3.4334
   31.230    3.3386
   31.245    3.2333
   31.260    3.5598
   31.275    3.4966
   31.290    3.3702
   31.305    3.4229
   31.320    3.4860
   31.335    3.3386
   31.350    3.5914
   31.365    3.4755
   31.380    3.6335
   31.395    3.6124
   31.410    3.3386
   31.425    3.4544
   31.440    3.5071
   31.455    3.4229
   31.470    3.5598
   31.485    3.8863
   31.500    3.4966
   31.515    3.4755
   31.530    3.6019
   31.545    3.4755
   31.560    3.4860
   31.575    3.3807
   31.590    3.5598
   31.605    3.5387
   31.620    3.2543
   31.635    3.3807
   31.650    3.7599
   31.665    3.4229
   31.680    3.3597
   31.695    3.6230
   31.710    3.6124
   31.725    3.8336
   31.740    3.5703
   31.755    3.3597
   31.770    3.2965
   31.785    3.2965
   31.800    3.3702
   31.815    3.5598
   31.830    3.4439
   31.845    3.4966
   31.860    3.4755
   31.875    3.2438
   31.890    3.3386
   31.905    3.4229
   31.920    3.1806
   31.935    3.4018
   31.950    3.3597
   31.965    3.3913
   31.980    3.3175
   31.995    3.6967
   32.010    3.4755
   32.025    3.4439
   32.040    3.4650
   32.055    3.2543
   32.070    3.4544
   32.085    3.5914
   32.100    3.6124
   32.115    3.3386
   32.130    3.4544
   32.145    3.4544
   32.160    3.4123
   32.175    3.4860
   32.190    3.4439
   32.205    3.2965
   32.220    3.1385
   32.235    3.2543
   32.250    3.3281
   32.265    3.4966
   32.280    3.3070
   32.295    3.2965
   32.310    3.3281
   32.325    3.2227
   32.340    3.1596
   32.355    3.5071
   32.370    3.3070
   32.385    3.2017
   32.400    3.2227
   32.415    3.2333
   32.430    3.2438
   32.445    3.5492
   32.460    3.2438
   32.475    3.3807
   32.490    3.4966
   32.505    3.2543
   32.520    3.2543
   32.535    3.4018
   32.550    3.4123
   32.565    3.2859
   32.580    3.4755
   32.595    3.4966
   32.610    3.2649
   32.625    3.4018
   32.640    3.3070
   32.655    2.9595
   32.670    3.2649
   32.685    3.4650
   32.700    3.1806
   32.715    3.1912
   32.730    3.2543
   32.745    3.2965
   32.760    3.3281
   32.775    3.5387
   32.790    3.2649
   32.805    3.2017
   32.820    3.2649
   32.835    3.4334
   32.850    3.6124
   32.865    3.2438
   32.880    3.2017
   32.895    3.2438
   32.910    3.5492
   32.925    3.5492
   32.940    3.4755
   32.955    3.2438
   32.970    3.5387
   32.985    3.1912
   33.000    3.4755
   33.015    3.5071
   33.030    3.3807
   33.045    3.3175
   33.060    3.4439
   33.075    3.2438
   33.090    3.5071
   33.105    3.2754
   33.120    3.2965
   33.135    3.2227
   33.150    3.2438
   33.165    3.2438
   33.180    3.3386
   33.195    3.3702
   33.210    3.4544
   33.225    3.2438
   33.240    3.1912
   33.255    3.2754
   33.270    3.3702
   33.285    3.5282
   33.300    3.1912
   33.315    3.0964
   33.330    3.2227
   33.345    3.0753
   33.360    3.1174
   33.375    3.3597
   33.390    3.3386
   33.405    3.1806
   33.420    3.1912
   33.435    3.1174
   33.450    3.3807
   33.465    3.5492
   33.480    3.3702
   33.495    3.2859
   33.510    3.1490
   33.525    3.2649
   33.540    3.3070
   33.555    3.2122
   33.570    3.2438
   33.585    3.3491
   33.600    3.0858
   33.615    3.2438
   33.630    3.5703
   33.645    3.4755
   33.660    3.4650
   33.675    3.5176
   33.690    3.2438
   33.705    3.6124
   33.720    3.2965
   33.735    3.2122
   33.750    3.3702
   33.765    3.2438
   33.780    3.3070
   33.795    3.1596
   33.810    3.2122
   33.825    3.2754
   33.840    3.3597
   33.855    3.4755
   33.870    3.3386
   33.885    3.3807
   33.900    3.3281
   33.915    3.4018
   33.930    3.4544
   33.945    3.4229
   33.960    3.5071
   33.975    3.5914
   33.990    3.5914
   34.005    3.6124
   34.020    3.5387
   34.035    3.6019
   34.050    3.3070
   34.065    3.1174
   34.080    3.1701
   34.095    3.4229
   34.110    3.4018
   34.125    3.0332
   34.140    2.9489
   34.155    3.2543
   34.170    3.4860
   34.185    3.3913
   34.200    3.2543
   34.215    3.1280
   34.230    3.1174
   34.245    3.2227
   34.260    3.2122
   34.275    3.0753
   34.290    3.1806
   34.305    3.2859
   34.320    3.0121
   34.335    3.1069
   34.350    3.4229
   34.365    3.1912
   34.380    3.1385
   34.395    3.4860
   34.410    3.2122
   34.425    3.3913
   34.440    3.2543
   34.455    3.3281
   34.470    3.2649
   34.485    3.2122
   34.500    3.2965
   34.515    3.3070
   34.530    3.1490
   34.545    3.2227
   34.560    2.9489
   34.575    2.9805
   34.590    3.1701
   34.605    2.9805
   34.620    3.1490
   34.635    3.1806
   34.650    3.3702
   34.665    3.1912
   34.680    3.3386
   34.695    3.0016
   34.710    3.0858
   34.725    3.0753
   34.740    3.3386
   34.755    3.3070
   34.770    3.3175
   34.785    3.0648
   34.800    3.4123
   34.815    3.2754
   34.830    3.3070
   34.845    3.2543
   34.860    3.1174
   34.875    3.2017
   34.890    3.1806
   34.905    3.1069
   34.920    3.2017
   34.935    3.0964
   34.950    3.2965
   34.965    3.2333
   34.980    3.2543
   34.995    3.1806
   35.010    3.3175
   35.025    3.0226
   35.040    3.0226
   35.055    3.3281
   35.070    2.9384
   35.085    3.1174
   35.100    2.9384
   35.115    3.2017
   35.130    3.1701
   35.145    3.0858
   35.160    3.0542
   35.175    3.2543
   35.190    3.0648
   35.205    2.8752
   35.220    2.8331
   35.235    3.0121
   35.250    3.1806
   35.265    3.5071
   35.280    3.1385
   35.295    3.2333
   35.310    3.0648
   35.325    3.2122
   35.340    3.3070
   35.355    3.2333
   35.370    3.3175
   35.385    3.1280
   35.400    3.1912
   35.415    3.1174
   35.430    3.0753
   35.445    3.1385
   35.460    3.3386
   35.475    3.2227
   35.490    2.9910
   35.505    3.0016
   35.520    3.0226
   35.535    2.8541
   35.550    3.1912
   35.565    3.2965
   35.580    3.4650
   35.595    3.0226
   35.610    3.0332
   35.625    3.0964
   35.640    2.9805
   35.655    2.9279
   35.670    3.0437
   35.685    3.2017
   35.700    3.1490
   35.715    3.2649
   35.730    3.0858
   35.745    2.8963
   35.760    3.4018
   35.775    3.2859
   35.790    3.4650
   35.805    3.3702
   35.820    3.3597
   35.835    3.6230
   35.850    3.1806
   35.865    3.1069
   35.880    3.2122
   35.895    3.1174
   35.910    3.3913
   35.925    2.9384
   35.940    3.0753
   35.955    3.2965
   35.970    3.1912
   35.985    3.1912
   36.000    3.0648
   36.015    3.0226
   36.030    3.2543
   36.045    3.5176
   36.060    3.1280
   36.075    3.5176
   36.090    3.4334
   36.105    3.3597
   36.120    3.2965
   36.135    3.1806
   36.150    3.1912
   36.165    3.1806
   36.180    2.9173
   36.195    3.3702
   36.210    3.1069
   36.225    3.4123
   36.240    3.3597
   36.255    3.2017
   36.270    2.8541
   36.285    3.0437
   36.300    3.4544
   36.315    3.4334
   36.330    3.4650
   36.345    3.1596
   36.360    3.1069
   36.375    3.3070
   36.390    3.2649
   36.405    3.2122
   36.420    2.9279
   36.435    2.8436
   36.450    2.9489
   36.465    3.0226
   36.480    3.1385
   36.495    3.4018
   36.510    3.2227
   36.525    3.1280
   36.540    3.0437
   36.555    2.9910
   36.570    2.6540
   36.585    3.0753
   36.600    3.3175
   36.615    3.3175
   36.630    3.3807
   36.645    3.2859
   36.660    2.9805
   36.675    3.1069
   36.690    2.7804
   36.705    3.0648
   36.720    3.1385
   36.735    3.3597
   36.750    3.2017
   36.765    3.2438
   36.780    3.0964
   36.795    3.2438
   36.810    3.4123
   36.825    3.5492
   36.840    3.1069
   36.855    3.0648
   36.870    3.0753
   36.885    3.2438
   36.900    3.1701
   36.915    3.2754
   36.930    3.1596
   36.945    2.9805
   36.960    3.0858
   36.975    3.3386
   36.990    3.3913
   37.005    3.1490
   37.020    3.1385
   37.035    3.0332
   37.050    2.9489
   37.065    3.2438
   37.080    3.0648
   37.095    3.4966
   37.110    3.2754
   37.125    3.3702
   37.140    3.4334
   37.155    3.1490
   37.170    3.1490
   37.185    3.1385
   37.200    3.4229
   37.215    3.2649
   37.230    3.4650
   37.245    3.2333
   37.260    3.3070
   37.275    3.1385
   37.290    3.0753
   37.305    2.9489
   37.320    3.0121
   37.335    3.0437
   37.350    3.2227
   37.365    2.9384
   37.380    2.8331
   37.395    2.6751
   37.410    3.0753
   37.425    3.1806
   37.440    2.9173
   37.455    2.7699
   37.470    2.9279
   37.485    3.2227
   37.500    3.1174
   37.515    3.1912
   37.530    2.8963
   37.545    3.1912
   37.560    3.1596
   37.575    3.0753
   37.590    3.1069
   37.605    3.3070
   37.620    3.2017
   37.635    2.9489
   37.650    3.1280
   37.665    3.1701
   37.680    3.0437
   37.695    2.8331
   37.710    3.3597
   37.725    3.3070
   37.740    2.8225
   37.755    3.0016
   37.770    3.1069
   37.785    3.3597
   37.800    2.8963
   37.815    2.9805
   37.830    2.9279
   37.845    3.0648
   37.860    3.1701
   37.875    3.3070
   37.890    3.0226
   37.905    2.8647
   37.920    3.1490
   37.935    2.9805
   37.950    3.1912
   37.965    3.0648
   37.980    3.0016
   37.995    3.1596
   38.010    2.9910
   38.025    3.0437
   38.040    3.0437
   38.055    3.1069
   38.070    3.0437
   38.085    3.0753
   38.100    3.1912
   38.115    3.1912
   38.130    3.1596
   38.145    2.9700
   38.160    2.9384
   38.175    2.8647
   38.190    3.0858
   38.205    3.2859
   38.220    3.0648
   38.235    3.2754
   38.250    3.0226
   38.265    2.9173
   38.280    2.8963
   38.295    3.0121
   38.310    3.1174
   38.325    3.0016
   38.340    2.8541
   38.355    2.9700
   38.370    3.0016
   38.385    2.9489
   38.400    3.0226
   38.415    2.7699
   38.430    2.7067
   38.445    2.8225
   38.460    3.0121
   38.475    3.0016
   38.490    3.1596
   38.505    3.0964
   38.520    2.7278
   38.535    2.8015
   38.550    2.9595
   38.565    3.1069
   38.580    3.1385
   38.595    2.7593
   38.610    2.9595
   38.625    2.9279
   38.640    2.9489
   38.655    3.1385
   38.670    2.9489
   38.685    2.8436
   38.700    3.1069
   38.715    3.1806
   38.730    3.2438
   38.745    2.9910
   38.760    2.9595
   38.775    3.3597
   38.790    3.1490
   38.805    2.9173
   38.820    2.9595
   38.835    2.9700
   38.850    3.1174
   38.865    3.0121
   38.880    3.0753
   38.895    3.3070
   38.910    3.0016
   38.925    2.9700
   38.940    2.8752
   38.955    3.0648
   38.970    3.1490
   38.985    2.7593
   39.000    2.8752
   39.015    2.8015
   39.030    2.9173
   39.045    2.8331
   39.060    3.0542
   39.075    2.9805
   39.090    3.0858
   39.105    2.6962
   39.120    2.8857
   39.135    2.9910
   39.150    3.1701
   39.165    3.1280
   39.180    3.2122
   39.195    3.1069
   39.210    2.8752
   39.225    3.0437
   39.240    2.9279
   39.255    2.8963
   39.270    3.0016
   39.285    3.1806
   39.300    3.0437
   39.315    2.8436
   39.330    3.0648
   39.345    3.2122
   39.360    2.8541
   39.375    2.9068
   39.390    3.0437
   39.405    2.8541
   39.420    3.1701
   39.435    3.1912
   39.450    2.9068
   39.465    3.0542
   39.480    3.3281
   39.495    3.0858
   39.510    3.1280
   39.525    3.2333
   39.540    3.1385
   39.555    2.9489
   39.570    3.1385
   39.585    3.0753
   39.600    3.1069
   39.615    2.8963
   39.630    3.1280
   39.645    2.8647
   39.660    3.0332
   39.675    2.9279
   39.690    3.1174
   39.705    3.1385
   39.720    2.9489
   39.735    2.8541
   39.750    3.0964
   39.765    3.1280
   39.780    3.1596
   39.795    3.0226
   39.810    2.8752
   39.825    2.9805
   39.840    2.8120
   39.855    3.0016
   39.870    3.3281
   39.885    2.9910
   39.900    3.0332
   39.915    3.1490
   39.930    3.0964
   39.945    3.3913
   39.960    3.0542
   39.975    3.0121
   39.990    2.9700
