    1.500    8.7309
    1.515    8.9205
    1.530    8.5308
    1.545    8.7414
    1.560    8.9731
    1.575    9.1101
    1.590    8.5624
    1.605    8.4150
    1.620    8.4360
    1.635    8.3834
    1.650    8.3307
    1.665    7.8884
    1.680    7.8357
    1.695    7.7093
    1.710    7.7304
    1.725    7.6145
    1.740    7.5724
    1.755    7.6356
    1.770    7.3828
    1.785    7.6040
    1.800    7.6777
    1.815    7.4039
    1.830    7.0985
    1.845    7.5513
    1.860    7.1617
    1.875    6.9194
    1.890    6.8246
    1.905    7.0037
    1.920    6.9089
    1.935    6.3402
    1.950    6.7615
    1.965    6.8036
    1.980    6.8352
    1.995    6.6456
    2.010    6.6983
    2.025    6.8246
    2.040    6.5192
    2.055    6.0664
    2.070    6.4560
    2.085    6.4982
    2.100    6.5298
    2.115    5.9610
    2.130    5.8768
    2.145    5.8768
    2.160    6.3086
    2.175    6.2559
    2.190    6.0453
    2.205    6.1401
    2.220    6.1190
    2.235    6.0242
    2.250    5.8241
    2.265    6.2033
    2.280    5.9716
    2.295    5.4450
    2.310    5.4660
    2.325    5.5292
    2.340    5.4344
    2.355    5.7609
    2.370    5.7399
    2.385    5.9189
    2.400    6.0769
    2.415    5.9505
    2.430    5.3186
    2.445    5.6767
    2.460    5.7715
    2.475    5.4976
    2.490    5.6240
    2.505    5.7609
    2.520    5.6345
    2.535    5.4660
    2.550    5.4134
    2.565    5.5714
    2.580    5.8347
    2.595    5.5187
    2.610    5.7083
    2.625    5.6977
    2.640    5.4555
    2.655    4.9710
    2.670    5.3923
    2.685    5.5608
    2.700    5.6556
    2.715    5.5082
    2.730    5.3397
    2.745    5.1395
    2.760    5.1290
    2.775    5.3502
    2.790    5.4871
    2.805    5.3607
    2.820    5.4976
    2.835    5.4028
    2.850    5.3923
    2.865    5.4766
    2.880    5.3712
    2.895    5.4976
    2.910    5.3186
    2.925    5.3291
    2.940    5.6556
    2.955    5.4344
    2.970    5.0869
    2.985    5.1290
    3.000    5.3923
    3.015    5.3607
    3.030    4.9500
    3.045    5.2343
    3.060    5.1501
    3.075    5.2659
    3.090    5.2343
    3.105    5.2659
    3.120    4.8868
    3.135    4.9078
    3.150    5.3818
    3.165    5.2133
    3.180    5.1501
    3.195    5.2449
    3.210    5.2554
    3.225    5.2133
    3.240    5.2975
    3.255    5.0342
    3.270    4.8552
    3.285    5.4766
    3.300    5.2027
    3.315    5.1501
    3.330    4.8973
    3.345    5.1501
    3.360    4.8236
    3.375    5.1922
    3.390    5.1606
    3.405    5.1080
    3.420    5.0448
    3.435    4.9078
    3.450    5.0448
    3.465    4.8552
    3.480    5.1922
    3.495    4.7815
    3.510    5.0237
    3.525    4.9816
    3.540    4.8868
    3.555    4.9078
    3.570    5.2870
    3.585    4.9816
    3.600    4.6024
    3.615    5.2133
    3.630    4.7499
    3.645    4.9184
    3.660    4.9184
    3.675    4.9289
    3.690    4.8973
    3.705    5.0974
    3.720    5.2659
    3.735    4.8868
    3.750    5.1922
    3.765    4.9394
    3.780    5.4239
    3.795    4.9710
    3.810    4.9184
    3.825    4.9184
    3.840    4.9394
    3.855    5.1290
    3.870    5.0764
    3.885    5.1711
    3.900    5.3818
    3.915    4.9605
    3.930    4.9710
    3.945    4.6340
    3.960    4.7604
    3.975    4.9921
    3.990    4.9816
    4.005    4.8973
    4.020    4.9184
    4.035    5.0764
    4.050    4.8447
    4.065    4.6130
    4.080    4.6130
    4.095    4.7288
    4.110    5.1080
    4.125    4.8341
    4.140    4.7920
    4.155    4.9816
    4.170    4.7709
    4.185    4.6235
    4.200    4.6235
    4.215    5.1290
    4.230    5.2449
    4.245    4.8025
    4.260    4.8657
    4.275    4.9921
    4.290    5.1817
    4.305    4.8341
    4.320    4.7604
    4.335    4.6551
    4.350    4.6972
    4.365    5.2554
    4.380    5.1817
    4.395    5.3081
    4.410    5.1501
    4.425    4.7288
    4.440    4.8657
    4.455    4.8131
    4.470    4.8973
    4.485    4.5287
    4.500    4.8657
    4.515    4.8236
    4.530    4.4339
    4.545    4.5498
    4.560    4.7288
    4.575    4.7288
    4.590    5.1290
    4.605    4.7815
    4.620    4.9394
    4.635    4.8657
    4.650    4.5814
    4.665    4.9605
    4.680    4.7604
    4.695    5.1711
    4.710    4.8236
    4.725    4.8552
    4.740    4.9605
    4.755    4.6551
    4.770    5.1817
    4.785    5.0869
    4.800    4.9394
    4.815    4.6761
    4.830    4.9184
    4.845    5.0869
    4.860    5.0764
    4.875    4.9710
    4.890    4.7920
    4.905    4.8973
    4.920    5.0869
    4.935    4.7183
    4.950    4.6867
    4.965    4.6972
    4.980    4.9816
    4.995    5.1185
    5.010    5.0026
    5.025    4.9289
    5.040    4.9394
    5.055    5.0132
    5.070    4.7815
    5.085    4.6340
    5.100    4.9816
    5.115    4.9710
    5.130    5.0026
    5.145    5.0553
    5.160    4.5814
    5.175    5.0026
    5.190    4.8025
    5.205    4.7183
    5.220    4.9394
    5.235    5.0764
    5.250    5.0026
    5.265    4.9289
    5.280    4.9289
    5.295    4.9816
    5.310    4.9289
    5.325    5.0448
    5.340    4.6867
    5.355    4.8341
    5.370    4.6235
    5.385    4.8025
    5.400    4.4760
    5.415    4.9605
    5.430    5.0026
    5.445    5.1080
    5.460    5.3081
    5.475    5.1290
    5.490    5.0342
    5.505    5.4134
    5.520    5.6240
    5.535    5.0869
    5.550    4.9394
    5.565    4.8236
    5.580    4.8657
    5.595    5.3397
    5.610    4.9710
    5.625    4.9921
    5.640    5.3607
    5.655    5.0869
    5.670    4.7815
    5.685    5.1290
    5.700    5.1290
    5.715    5.0132
    5.730    4.9816
    5.745    5.0026
    5.760    4.7709
    5.775    4.8552
    5.790    5.2238
    5.805    5.0869
    5.820    5.1185
    5.835    4.9394
    5.850    5.3818
    5.865    5.2449
    5.880    4.6656
    5.895    4.8973
    5.910    4.6656
    5.925    4.7920
    5.940    5.0026
    5.955    5.2870
    5.970    5.1817
    5.985    4.7604
    6.000    4.7499
    6.015    4.9605
    6.030    4.8552
    6.045    4.7920
    6.060    4.6024
    6.075    4.9078
    6.090    4.8973
    6.105    4.8552
    6.120    4.7288
    6.135    4.9394
    6.150    5.2133
    6.165    4.8868
    6.180    5.0658
    6.195    5.0869
    6.210    5.2027
    6.225    5.1606
    6.240    5.1922
    6.255    5.2238
    6.270    5.2659
    6.285    5.2554
    6.300    5.2975
    6.315    5.1290
    6.330    4.9289
    6.345    4.9921
    6.360    5.1922
    6.375    5.2765
    6.390    5.0237
    6.405    5.1922
    6.420    5.2027
    6.435    5.2554
    6.450    4.9078
    6.465    5.2554
    6.480    5.0553
    6.495    5.0553
    6.510    4.8868
    6.525    5.1395
    6.540    4.9710
    6.555    4.8447
    6.570    5.0869
    6.585    4.7288
    6.600    4.9921
    6.615    4.5603
    6.630    4.7393
    6.645    5.0448
    6.660    5.2449
    6.675    5.0974
    6.690    5.1185
    6.705    5.2027
    6.720    5.0342
    6.735    5.0237
    6.750    5.2975
    6.765    5.2659
    6.780    5.0974
    6.795    5.2133
    6.810    5.1501
    6.825    4.9605
    6.840    5.2659
    6.855    5.0974
    6.870    5.1606
    6.885    5.3502
    6.900    5.0448
    6.915    5.4555
    6.930    4.9710
    6.945    5.1922
    6.960    5.0974
    6.975    4.9816
    6.990    4.8973
    7.005    5.0553
    7.020    5.1395
    7.035    5.3712
    7.050    5.2133
    7.065    5.0342
    7.080    5.0342
    7.095    5.0658
    7.110    5.3607
    7.125    5.0448
    7.140    5.1606
    7.155    5.2870
    7.170    5.1395
    7.185    5.2238
    7.200    5.1711
    7.215    5.4660
    7.230    5.1395
    7.245    5.1922
    7.260    5.2133
    7.275    5.1606
    7.290    5.4344
    7.305    5.1922
    7.320    5.3607
    7.335    5.0869
    7.350    5.2765
    7.365    5.2343
    7.380    5.3818
    7.395    5.0448
    7.410    5.3291
    7.425    5.3607
    7.440    5.0132
    7.455    5.4028
    7.470    5.3923
    7.485    5.0869
    7.500    5.1185
    7.515    5.2554
    7.530    5.4028
    7.545    5.4239
    7.560    5.1817
    7.575    4.9289
    7.590    5.1711
    7.605    4.8657
    7.620    5.2449
    7.635    5.3923
    7.650    5.1185
    7.665    5.2870
    7.680    5.5082
    7.695    5.6977
    7.710    5.5187
    7.725    5.5187
    7.740    5.4766
    7.755    5.2870
    7.770    5.0026
    7.785    5.3291
    7.800    5.3186
    7.815    5.1817
    7.830    5.1817
    7.845    5.2027
    7.860    5.3818
    7.875    5.4871
    7.890    5.3712
    7.905    5.2449
    7.920    5.3081
    7.935    5.4871
    7.950    5.0448
    7.965    5.0237
    7.980    5.1290
    7.995    4.8447
    8.010    5.0342
    8.025    5.5503
    8.040    5.2449
    8.055    5.5398
    8.070    5.3397
    8.085    5.1290
    8.100    5.2027
    8.115    5.4450
    8.130    5.0448
    8.145    5.3081
    8.160    5.5924
    8.175    5.3502
    8.190    5.1817
    8.205    5.1501
    8.220    5.1817
    8.235    5.4028
    8.250    5.1395
    8.265    5.5608
    8.280    5.5924
    8.295    5.1922
    8.310    5.3502
    8.325    5.2343
    8.340    4.8447
    8.355    5.2765
    8.370    5.0342
    8.385    5.0764
    8.400    5.4028
    8.415    5.0342
    8.430    5.0553
    8.445    5.0869
    8.460    4.9816
    8.475    5.2238
    8.490    5.2554
    8.505    5.5714
    8.520    5.4871
    8.535    5.3397
    8.550    5.2659
    8.565    5.2133
    8.580    5.4344
    8.595    5.2659
    8.610    5.4660
    8.625    5.2343
    8.640    5.4766
    8.655    5.1185
    8.670    5.2870
    8.685    5.3186
    8.700    5.2449
    8.715    5.3186
    8.730    5.5292
    8.745    5.1080
    8.760    5.5398
    8.775    5.1817
    8.790    5.2765
    8.805    5.3291
    8.820    5.5292
    8.835    5.3291
    8.850    5.0974
    8.865    5.2238
    8.880    5.0658
    8.895    5.3081
    8.910    5.2765
    8.925    5.4450
    8.940    5.4344
    8.955    5.2238
    8.970    5.5292
    8.985    5.6451
    9.000    5.5187
    9.015    5.6767
    9.030    5.4450
    9.045    5.1711
    9.060    5.4976
    9.075    5.1817
    9.090    5.1922
    9.105    5.3397
    9.120    5.7609
    9.135    5.4871
    9.150    5.5714
    9.165    5.5292
    9.180    5.1817
    9.195    5.3607
    9.210    5.0026
    9.225    5.0342
    9.240    5.1185
    9.255    5.0553
    9.270    5.3818
    9.285    5.2870
    9.300    5.5714
    9.315    5.3397
    9.330    5.0974
    9.345    5.4660
    9.360    5.3923
    9.375    4.8973
    9.390    4.9816
    9.405    5.3291
    9.420    5.1817
    9.435    5.0658
    9.450    5.2870
    9.465    5.2027
    9.480    5.2449
    9.495    5.6451
    9.510    5.3818
    9.525    4.9710
    9.540    4.9500
    9.555    4.9710
    9.570    5.1501
    9.585    5.1817
    9.600    5.1817
    9.615    5.2343
    9.630    5.0342
    9.645    5.3397
    9.660    5.2765
    9.675    5.1711
    9.690    5.0869
    9.705    5.2238
    9.720    5.2975
    9.735    5.0026
    9.750    5.2765
    9.765    5.2765
    9.780    5.3818
    9.795    5.3712
    9.810    5.3081
    9.825    5.3186
    9.840    5.1185
    9.855    5.3607
    9.870    5.3186
    9.885    5.2133
    9.900    4.9184
    9.915    4.9289
    9.930    5.2449
    9.945    5.2554
    9.960    5.4028
    9.975    5.2659
    9.990    4.9078
   10.005    5.3607
   10.020    5.3818
   10.035    5.4766
   10.050    5.4450
   10.065    5.2659
   10.080    5.2975
   10.095    5.4028
   10.110    5.2238
   10.125    4.8868
   10.140    5.0026
   10.155    4.8657
   10.170    5.3607
   10.185    5.3291
   10.200    5.1395
   10.215    5.2554
   10.230    5.3291
   10.245    5.1395
   10.260    5.0658
   10.275    4.9184
   10.290    4.9184
   10.305    4.9394
   10.320    5.1290
   10.335    4.7077
   10.350    5.2133
   10.365    5.3081
   10.380    5.3923
   10.395    5.2975
   10.410    5.0553
   10.425    5.2133
   10.440    5.4450
   10.455    5.1711
   10.470    5.1817
   10.485    5.4028
   10.500    5.0448
   10.515    5.3397
   10.530    5.3818
   10.545    5.3186
   10.560    5.1817
   10.575    5.1395
   10.590    5.4134
   10.605    5.1922
   10.620    5.0974
   10.635    5.2659
   10.650    5.4660
   10.665    5.3712
   10.680    5.4660
   10.695    5.2659
   10.710    5.1395
   10.725    5.1501
   10.740    5.0342
   10.755    5.0026
   10.770    5.1817
   10.785    5.0132
   10.800    5.4450
   10.815    4.9921
   10.830    5.0658
   10.845    5.3291
   10.860    5.2238
   10.875    5.2133
   10.890    5.1185
   10.905    4.9184
   10.920    5.0658
   10.935    5.0869
   10.950    5.0553
   10.965    5.0974
   10.980    4.9500
   10.995    5.1606
   11.010    5.0974
   11.025    4.8657
   11.040    5.0448
   11.055    5.4450
   11.070    5.0974
   11.085    5.0448
   11.100    5.0974
   11.115    4.7815
   11.130    4.9816
   11.145    4.9500
   11.160    5.0658
   11.175    5.0764
   11.190    5.2027
   11.205    5.3397
   11.220    5.2870
   11.235    5.0658
   11.250    5.1185
   11.265    4.7920
   11.280    5.1290
   11.295    5.0869
   11.310    4.9184
   11.325    4.9078
   11.340    5.3397
   11.355    5.2554
   11.370    5.1501
   11.385    4.9078
   11.400    5.0132
   11.415    5.2975
   11.430    4.9605
   11.445    4.9500
   11.460    4.5603
   11.475    4.8657
   11.490    4.8657
   11.505    5.2659
   11.520    5.0974
   11.535    5.0132
   11.550    5.1817
   11.565    5.0764
   11.580    5.0869
   11.595    4.9710
   11.610    4.9289
   11.625    4.8341
   11.640    5.0342
   11.655    5.3818
   11.670    5.1395
   11.685    5.2870
   11.700    5.0764
   11.715    5.0974
   11.730    4.9394
   11.745    5.0448
   11.760    4.9816
   11.775    4.9605
   11.790    4.7920
   11.805    4.8657
   11.820    4.7815
   11.835    4.8025
   11.850    4.7709
   11.865    4.8763
   11.880    4.9500
   11.895    5.0342
   11.910    5.2027
   11.925    4.9289
   11.940    5.0658
   11.955    4.7499
   11.970    5.2343
   11.985    4.9500
   12.000    4.9500
   12.015    5.0132
   12.030    5.1080
   12.045    5.1606
   12.060    4.8025
   12.075    4.6130
   12.090    4.8763
   12.105    4.8657
   12.120    4.7183
   12.135    4.9605
   12.150    4.7604
   12.165    4.7709
   12.180    4.9710
   12.195    4.8552
   12.210    5.1185
   12.225    5.2765
   12.240    4.7709
   12.255    5.0448
   12.270    4.8973
   12.285    4.9605
   12.300    4.9394
   12.315    4.5287
   12.330    4.6551
   12.345    4.7709
   12.360    4.7499
   12.375    4.6761
   12.390    5.1080
   12.405    4.9500
   12.420    4.9394
   12.435    5.0448
   12.450    4.8973
   12.465    4.5076
   12.480    4.9078
   12.495    5.0132
   12.510    4.8868
   12.525    5.0342
   12.540    4.8447
   12.555    4.8973
   12.570    5.0553
   12.585    5.0764
   12.600    5.0237
   12.615    5.0342
   12.630    5.1080
   12.645    5.0132
   12.660    4.9710
   12.675    4.7604
   12.690    4.9184
   12.705    5.0974
   12.720    5.1711
   12.735    5.3081
   12.750    4.7709
   12.765    4.9500
   12.780    5.1395
   12.795    4.8973
   12.810    4.9184
   12.825    4.7499
   12.840    4.7920
   12.855    4.6130
   12.870    4.9921
   12.885    4.7077
   12.900    4.9078
   12.915    4.5498
   12.930    4.9921
   12.945    5.1290
   12.960    4.8236
   12.975    4.8236
   12.990    4.7709
   13.005    5.0026
   13.020    5.0448
   13.035    5.0237
   13.050    4.9710
   13.065    4.8868
   13.080    5.0237
   13.095    5.0132
   13.110    5.0658
   13.125    5.0237
   13.140    5.2449
   13.155    4.8868
   13.170    4.6551
   13.185    5.1080
   13.200    4.9605
   13.215    4.9078
   13.230    4.7920
   13.245    4.8131
   13.260    4.7288
   13.275    4.8447
   13.290    4.8868
   13.305    4.8552
   13.320    5.0026
   13.335    4.9816
   13.350    5.0553
   13.365    5.0132
   13.380    4.9289
   13.395    5.1185
   13.410    4.9289
   13.425    4.8868
   13.440    4.7499
   13.455    4.8447
   13.470    4.8341
   13.485    4.6130
   13.500    4.8236
   13.515    4.8657
   13.530    5.0237
   13.545    4.7709
   13.560    5.0448
   13.575    4.9605
   13.590    4.6340
   13.605    5.0026
   13.620    5.0658
   13.635    4.6445
   13.650    4.8657
   13.665    4.7499
   13.680    4.8552
   13.695    4.8552
   13.710    5.0553
   13.725    5.1711
   13.740    5.0132
   13.755    4.8025
   13.770    5.0764
   13.785    4.7604
   13.800    4.5708
   13.815    4.6867
   13.830    4.4550
   13.845    4.7815
   13.860    5.0974
   13.875    5.1395
   13.890    4.8657
   13.905    5.1922
   13.920    4.7815
   13.935    4.7815
   13.950    4.6235
   13.965    5.1185
   13.980    4.8236
   13.995    4.8447
   14.010    4.8552
   14.025    4.9816
   14.040    4.9605
   14.055    5.1080
   14.070    5.1290
   14.085    4.6656
   14.100    4.5919
   14.115    4.6340
   14.130    4.4234
   14.145    4.6445
   14.160    4.9289
   14.175    5.0974
   14.190    4.9605
   14.205    4.8657
   14.220    5.0237
   14.235    5.1711
   14.250    5.2870
   14.265    4.9078
   14.280    4.9500
   14.295    4.8236
   14.310    4.9500
   14.325    5.0132
   14.340    4.6761
   14.355    5.0237
   14.370    5.0448
   14.385    4.5182
   14.400    4.6972
   14.415    5.1922
   14.430    4.8131
   14.445    4.8341
   14.460    4.6235
   14.475    4.6867
   14.490    4.8763
   14.505    5.1080
   14.520    4.7815
   14.535    4.8763
   14.550    4.8236
   14.565    4.7393
   14.580    4.4128
   14.595    4.6024
   14.610    4.5708
   14.625    4.6656
   14.640    4.6340
   14.655    4.6551
   14.670    5.0658
   14.685    5.0132
   14.700    4.8973
   14.715    5.0132
   14.730    4.7815
   14.745    4.9605
   14.760    4.9394
   14.775    5.3291
   14.790    4.8657
   14.805    4.8447
   14.820    5.1606
   14.835    5.1606
   14.850    5.1501
   14.865    5.3291
   14.880    5.0869
   14.895    4.7815
   14.910    4.8131
   14.925    5.0658
   14.940    5.0869
   14.955    4.9184
   14.970    4.8552
   14.985    4.8973
   15.000    4.8025
   15.015    4.5182
   15.030    4.7183
   15.045    4.7077
   15.060    4.9078
   15.075    5.0448
   15.090    4.8341
   15.105    5.0974
   15.120    4.9394
   15.135    4.9078
   15.150    4.7077
   15.165    4.8868
   15.180    4.9710
   15.195    4.7709
   15.210    4.7920
   15.225    4.8025
   15.240    4.7393
   15.255    5.0553
   15.270    4.9078
   15.285    4.8025
   15.300    4.6972
   15.315    5.1290
   15.330    5.0448
   15.345    4.8131
   15.360    4.8341
   15.375    4.7393
   15.390    4.8025
   15.405    4.9710
   15.420    4.9500
   15.435    4.8447
   15.450    5.0132
   15.465    5.0448
   15.480    5.0974
   15.495    4.8236
   15.510    5.0237
   15.525    4.6551
   15.540    4.7077
   15.555    4.5603
   15.570    4.7499
   15.585    5.0026
   15.600    5.1395
   15.615    4.7920
   15.630    4.7499
   15.645    4.8868
   15.660    5.2554
   15.675    4.8552
   15.690    5.0132
   15.705    4.8447
   15.720    4.8025
   15.735    4.9289
   15.750    4.9605
   15.765    4.9605
   15.780    4.8236
   15.795    4.9710
   15.810    4.6761
   15.825    4.9500
   15.840    4.6445
   15.855    4.9605
   15.870    5.0132
   15.885    5.0764
   15.900    5.2133
   15.915    4.8447
   15.930    5.0342
   15.945    5.2343
   15.960    4.9078
   15.975    4.9289
   15.990    5.2238
   16.005    5.1185
   16.020    4.8657
   16.035    5.0132
   16.050    4.6867
   16.065    4.9500
   16.080    5.0764
   16.095    5.0553
   16.110    5.1290
   16.125    5.0448
   16.140    5.1711
   16.155    4.8025
   16.170    4.6340
   16.185    4.8236
   16.200    4.8973
   16.215    5.0553
   16.230    5.5924
   16.245    5.0237
   16.260    5.0974
   16.275    4.7920
   16.290    4.8236
   16.305    4.9605
   16.320    5.0764
   16.335    5.0132
   16.350    4.8552
   16.365    5.0342
   16.380    4.8552
   16.395    4.9394
   16.410    4.9816
   16.425    4.8025
   16.440    4.8763
   16.455    4.9816
   16.470    4.8341
   16.485    4.8236
   16.500    4.8868
   16.515    4.6761
   16.530    5.1080
   16.545    5.0026
   16.560    4.9605
   16.575    5.0974
   16.590    5.1290
   16.605    4.9394
   16.620    4.8657
   16.635    4.7604
   16.650    5.0448
   16.665    4.9921
   16.680    4.8236
   16.695    4.5919
   16.710    4.8131
   16.725    4.8341
   16.740    5.0764
   16.755    5.3923
   16.770    5.0026
   16.785    5.0553
   16.800    4.9078
   16.815    5.0132
   16.830    5.0342
   16.845    4.8973
   16.860    4.9710
   16.875    5.0974
   16.890    4.8447
   16.905    5.0553
   16.920    5.1185
   16.935    4.8552
   16.950    4.6130
   16.965    4.6972
   16.980    5.1080
   16.995    5.0553
   17.010    4.7604
   17.025    5.1395
   17.040    5.2765
   17.055    4.7709
   17.070    5.0553
   17.085    5.1290
   17.100    5.0764
   17.115    5.0764
   17.130    4.6972
   17.145    5.0342
   17.160    5.0026
   17.175    5.1922
   17.190    5.0869
   17.205    5.0553
   17.220    5.1080
   17.235    5.0869
   17.250    5.1080
   17.265    5.0658
   17.280    4.9078
   17.295    5.0764
   17.310    5.4660
   17.325    5.2238
   17.340    4.9921
   17.355    4.8868
   17.370    5.3081
   17.385    4.9289
   17.400    5.0132
   17.415    4.7393
   17.430    5.0658
   17.445    4.7815
   17.460    5.0869
   17.475    5.3502
   17.490    5.1080
   17.505    5.1185
   17.520    4.6972
   17.535    4.6867
   17.550    4.7077
   17.565    4.8236
   17.580    5.0132
   17.595    4.8657
   17.610    5.0553
   17.625    4.8868
   17.640    4.8868
   17.655    4.7499
   17.670    4.7183
   17.685    4.6130
   17.700    4.9605
   17.715    5.0132
   17.730    4.9289
   17.745    4.6867
   17.760    5.2133
   17.775    5.0448
   17.790    4.7183
   17.805    5.0764
   17.820    5.0026
   17.835    5.0658
   17.850    5.2975
   17.865    5.1817
   17.880    4.8973
   17.895    4.8657
   17.910    4.9605
   17.925    4.8131
   17.940    5.1711
   17.955    5.0658
   17.970    4.8341
   17.985    4.9921
   18.000    5.2449
   18.015    5.3186
   18.030    5.1922
   18.045    5.0553
   18.060    4.9605
   18.075    4.8973
   18.090    4.6340
   18.105    4.6130
   18.120    5.0132
   18.135    4.8236
   18.150    4.8763
   18.165    5.0342
   18.180    5.0658
   18.195    4.9500
   18.210    4.8973
   18.225    5.3923
   18.240    5.1395
   18.255    5.2554
   18.270    4.7288
   18.285    5.0869
   18.300    5.1817
   18.315    4.8868
   18.330    4.8341
   18.345    5.1606
   18.360    5.0448
   18.375    5.0764
   18.390    5.0658
   18.405    4.4866
   18.420    4.8763
   18.435    5.2027
   18.450    5.0553
   18.465    5.0448
   18.480    5.1817
   18.495    4.6656
   18.510    4.8657
   18.525    4.8447
   18.540    5.2238
   18.555    5.0026
   18.570    4.9500
   18.585    4.8763
   18.600    5.1395
   18.615    5.2554
   18.630    5.2659
   18.645    5.3186
   18.660    5.0448
   18.675    4.9078
   18.690    4.5814
   18.705    4.7604
   18.720    5.0026
   18.735    4.8657
   18.750    5.1080
   18.765    4.7920
   18.780    5.0342
   18.795    5.0342
   18.810    4.8973
   18.825    4.8447
   18.840    4.8657
   18.855    4.9921
   18.870    5.3923
   18.885    5.3818
   18.900    5.3607
   18.915    5.3081
   18.930    5.2975
   18.945    5.4344
   18.960    5.8241
   18.975    5.4028
   18.990    5.3397
   19.005    5.5082
   19.020    5.5082
   19.035    5.6977
   19.050    5.3923
   19.065    5.4660
   19.080    5.3607
   19.095    5.4028
   19.110    5.2238
   19.125    5.2133
   19.140    4.8763
   19.155    5.0658
   19.170    4.7815
   19.185    5.1711
   19.200    5.0974
   19.215    5.1080
   19.230    4.7604
   19.245    4.9921
   19.260    5.2343
   19.275    4.7815
   19.290    4.9078
   19.305    5.1501
   19.320    5.0974
   19.335    5.0658
   19.350    4.9710
   19.365    4.8447
   19.380    4.7920
   19.395    4.8341
   19.410    4.9500
   19.425    4.7709
   19.440    4.7920
   19.455    4.8025
   19.470    4.9184
   19.485    4.9078
   19.500    5.4871
   19.515    5.1817
   19.530    4.7288
   19.545    4.6867
   19.560    4.8973
   19.575    5.0448
   19.590    4.8341
   19.605    5.1080
   19.620    5.1817
   19.635    4.9605
   19.650    4.8868
   19.665    5.1080
   19.680    4.7183
   19.695    4.7815
   19.710    4.9921
   19.725    4.8973
   19.740    5.0869
   19.755    5.2027
   19.770    5.1080
   19.785    4.9184
   19.800    4.8657
   19.815    4.9500
   19.830    5.2343
   19.845    4.9078
   19.860    5.1501
   19.875    5.2870
   19.890    4.9289
   19.905    5.1501
   19.920    5.0132
   19.935    4.4128
   19.950    4.6972
   19.965    5.0237
   19.980    5.1501
   19.995    4.8763
   20.010    4.8341
   20.025    4.9500
   20.040    4.7709
   20.055    5.5187
   20.070    5.0658
   20.085    4.9710
   20.100    5.0974
   20.115    4.9500
   20.130    4.9289
   20.145    5.0658
   20.160    4.9816
   20.175    5.2554
   20.190    5.3502
   20.205    4.9184
   20.220    4.9289
   20.235    5.0974
   20.250    5.0448
   20.265    5.3607
   20.280    5.3291
   20.295    5.4134
   20.310    5.3712
   20.325    5.1606
   20.340    4.9184
   20.355    5.1501
   20.370    4.9289
   20.385    4.9078
   20.400    5.1185
   20.415    4.7815
   20.430    4.7709
   20.445    5.0448
   20.460    5.2659
   20.475    5.0132
   20.490    4.9921
   20.505    5.2133
   20.520    5.1290
   20.535    5.0764
   20.550    4.9605
   20.565    5.2449
   20.580    5.0026
   20.595    5.0237
   20.610    5.1817
   20.625    4.9816
   20.640    5.6029
   20.655    5.0869
   20.670    5.0764
   20.685    5.3502
   20.700    4.8447
   20.715    5.2133
   20.730    4.9816
   20.745    5.2343
   20.760    5.2554
   20.775    4.9816
   20.790    4.9394
   20.805    4.8763
   20.820    5.0342
   20.835    5.2449
   20.850    5.2133
   20.865    4.6024
   20.880    4.8868
   20.895    5.0658
   20.910    5.0342
   20.925    4.8657
   20.940    4.9816
   20.955    4.9289
   20.970    4.9605
   20.985    4.6130
   21.000    4.9078
   21.015    4.5708
   21.030    4.8025
   21.045    5.1501
   21.060    5.0764
   21.075    5.2027
   21.090    5.0237
   21.105    4.9605
   21.120    4.7709
   21.135    4.8868
   21.150    5.0974
   21.165    5.2554
   21.180    5.0342
   21.195    4.9816
   21.210    5.2238
   21.225    5.0553
   21.240    4.9816
   21.255    5.0658
   21.270    5.2027
   21.285    5.0553
   21.300    4.8763
   21.315    4.9816
   21.330    5.1080
   21.345    4.8868
   21.360    4.6024
   21.375    4.6867
   21.390    4.6867
   21.405    4.7393
   21.420    5.1395
   21.435    4.8552
   21.450    4.9394
   21.465    4.8552
   21.480    5.1711
   21.495    5.0974
   21.510    5.2238
   21.525    4.9500
   21.540    4.7815
   21.555    4.7183
   21.570    5.0342
   21.585    5.0132
   21.600    5.1922
   21.615    4.7815
   21.630    4.8763
   21.645    4.9605
   21.660    4.9816
   21.675    5.2765
   21.690    5.0132
   21.705    4.7604
   21.720    4.8868
   21.735    4.7288
   21.750    4.6972
   21.765    4.8868
   21.780    5.0869
   21.795    5.2027
   21.810    5.1395
   21.825    5.1185
   21.840    4.8657
   21.855    5.1501
   21.870    5.2765
   21.885    5.3186
   21.900    5.2765
   21.915    5.0658
   21.930    5.1711
   21.945    5.0448
   21.960    5.0764
   21.975    4.9921
   21.990    4.8973
   22.005    4.8973
   22.020    5.0658
   22.035    5.2870
   22.050    4.7288
   22.065    5.0448
   22.080    4.9500
   22.095    5.2870
   22.110    5.2449
   22.125    5.2027
   22.140    5.2133
   22.155    4.6761
   22.170    4.9710
   22.185    4.7815
   22.200    4.7815
   22.215    4.6656
   22.230    4.9394
   22.245    5.0764
   22.260    4.8025
   22.275    4.9921
   22.290    5.0553
   22.305    4.9605
   22.320    4.8868
   22.335    4.7815
   22.350    4.9605
   22.365    5.2133
   22.380    5.2659
   22.395    4.8025
   22.410    4.4971
   22.425    4.7393
   22.440    5.1080
   22.455    4.8236
   22.470    4.9816
   22.485    5.0658
   22.500    4.9816
   22.515    5.0764
   22.530    5.2343
   22.545    4.7920
   22.560    5.1922
   22.575    5.0448
   22.590    5.2449
   22.605    5.2975
   22.620    5.0764
   22.635    4.9605
   22.650    5.0237
   22.665    4.9078
   22.680    4.9605
   22.695    5.1922
   22.710    5.1501
   22.725    4.8447
   22.740    4.8552
   22.755    4.9394
   22.770    5.1185
   22.785    5.0974
   22.800    5.0237
   22.815    5.0974
   22.830    4.9605
   22.845    4.7393
   22.860    4.9710
   22.875    4.6445
   22.890    5.0764
   22.905    5.0974
   22.920    5.0132
   22.935    4.9816
   22.950    4.8973
   22.965    4.9816
   22.980    4.7499
   22.995    4.8025
   23.010    5.0448
   23.025    5.0658
   23.040    5.0448
   23.055    4.8552
   23.070    4.7499
   23.085    5.1711
   23.100    5.0764
   23.115    5.3607
   23.130    5.0553
   23.145    4.9921
   23.160    5.3081
   23.175    5.0658
   23.190    5.0869
   23.205    4.8341
   23.220    4.8131
   23.235    4.8236
   23.250    4.9289
   23.265    4.8552
   23.280    4.9184
   23.295    4.8657
   23.310    4.8657
   23.325    4.6551
   23.340    4.6867
   23.355    4.7920
   23.370    5.1606
   23.385    5.0132
   23.400    4.9289
   23.415    5.1290
   23.430    4.9816
   23.445    4.8657
   23.460    4.6024
   23.475    5.0974
   23.490    4.9710
   23.505    4.7183
   23.520    4.8131
   23.535    4.7393
   23.550    4.7077
   23.565    4.8868
   23.580    4.7604
   23.595    4.8868
   23.610    5.0448
   23.625    4.7920
   23.640    4.4444
   23.655    4.8131
   23.670    4.7499
   23.685    5.2343
   23.700    4.8552
   23.715    4.8131
   23.730    5.2870
   23.745    4.6551
   23.760    4.8131
   23.775    4.4866
   23.790    4.0758
   23.805    4.8763
   23.820    4.8447
   23.835    4.9921
   23.850    4.5814
   23.865    4.8763
   23.880    5.1080
   23.895    5.1185
   23.910    4.5287
   23.925    4.8341
   23.940    4.8552
   23.955    4.7183
   23.970    4.5708
   23.985    4.6340
   24.000    4.5708
   24.015    4.6656
   24.030    5.0448
   24.045    5.0237
   24.060    5.1501
   24.075    5.1080
   24.090    4.7077
   24.105    4.6761
   24.120    4.7709
   24.135    4.7920
   24.150    4.6761
   24.165    4.6656
   24.180    4.6130
   24.195    4.9184
   24.210    4.9605
   24.225    4.8131
   24.240    4.8131
   24.255    4.6551
   24.270    4.9289
   24.285    4.8236
   24.300    4.7815
   24.315    4.6551
   24.330    4.8552
   24.345    4.9500
   24.360    5.2554
   24.375    4.6972
   24.390    4.7815
   24.405    4.9500
   24.420    4.6656
   24.435    4.8973
   24.450    4.6340
   24.465    4.8236
   24.480    4.9078
   24.495    4.7709
   24.510    4.4444
   24.525    5.0448
   24.540    4.7288
   24.555    4.6130
   24.570    4.8236
   24.585    4.6130
   24.600    4.4655
   24.615    4.5814
   24.630    4.7815
   24.645    4.6024
   24.660    4.6761
   24.675    4.6235
   24.690    4.6867
   24.705    4.6340
   24.720    4.7393
   24.735    4.8973
   24.750    4.8131
   24.765    4.7183
   24.780    5.2449
   24.795    4.8236
   24.810    4.7077
   24.825    4.6656
   24.840    4.4655
   24.855    4.8341
   24.870    4.7604
   24.885    4.8025
   24.900    4.7709
   24.915    4.6551
   24.930    4.8552
   24.945    4.9289
   24.960    4.9078
   24.975    4.8131
   24.990    4.7815
   25.005    4.3707
   25.020    4.8131
   25.035    4.7709
   25.050    4.6867
   25.065    4.7499
   25.080    4.6656
   25.095    4.5182
   25.110    4.4550
   25.125    4.3391
   25.140    4.5814
   25.155    4.9394
   25.170    5.3397
   25.185    4.5287
   25.200    4.6130
   25.215    4.4866
   25.230    4.5919
   25.245    4.4866
   25.260    4.4971
   25.275    4.6656
   25.290    4.7499
   25.305    4.4339
   25.320    4.2549
   25.335    4.7393
   25.350    4.8868
   25.365    4.7183
   25.380    4.8236
   25.395    4.7499
   25.410    4.8236
   25.425    4.5076
   25.440    4.5287
   25.455    4.6972
   25.470    4.6867
   25.485    4.4339
   25.500    4.7920
   25.515    4.7183
   25.530    4.4128
   25.545    4.5076
   25.560    4.6551
   25.575    4.5392
   25.590    4.4550
   25.605    4.4971
   25.620    4.4128
   25.635    4.5498
   25.650    4.7815
   25.665    4.3813
   25.680    4.6867
   25.695    4.3602
   25.710    4.3813
   25.725    4.5182
   25.740    4.3602
   25.755    4.3813
   25.770    4.6024
   25.785    4.8236
   25.800    4.5182
   25.815    4.5392
   25.830    4.8131
   25.845    4.5182
   25.860    4.2865
   25.875    4.4971
   25.890    4.8025
   25.905    4.7393
   25.920    4.2127
   25.935    4.4866
   25.950    4.2970
   25.965    4.3075
   25.980    4.5182
   25.995    4.3602
   26.010    4.5392
   26.025    4.7393
   26.040    4.6024
   26.055    4.4866
   26.070    4.5392
   26.085    4.5182
   26.100    4.2549
   26.115    4.5919
   26.130    4.6867
   26.145    4.0653
   26.160    4.5814
   26.175    4.5182
   26.190    4.5076
   26.205    4.4971
   26.220    4.3497
   26.235    4.2233
   26.250    4.5814
   26.265    4.4339
   26.280    4.4339
   26.295    4.5498
   26.310    4.4550
   26.325    4.4550
   26.340    4.7393
   26.355    4.4760
   26.370    4.1917
   26.385    4.5919
   26.400    4.3181
   26.415    4.4128
   26.430    4.3497
   26.445    4.3813
   26.460    4.4866
   26.475    4.5814
   26.490    4.4444
   26.505    4.6235
   26.520    4.4760
   26.535    4.3813
   26.550    4.2022
   26.565    4.0864
   26.580    4.3391
   26.595    4.1811
   26.610    4.3707
   26.625    4.4550
   26.640    4.4866
   26.655    4.4339
   26.670    4.1496
   26.685    4.4655
   26.700    4.4023
   26.715    4.2970
   26.730    4.5919
   26.745    4.2759
   26.760    4.0864
   26.775    4.3181
   26.790    4.6024
   26.805    4.7183
   26.820    4.3391
   26.835    4.4760
   26.850    4.4339
   26.865    4.6024
   26.880    4.3602
   26.895    4.5814
   26.910    4.3075
   26.925    4.3391
   26.940    4.2549
   26.955    4.2443
   26.970    4.6656
   26.985    4.4971
   27.000    4.3286
   27.015    4.4023
   27.030    4.2654
   27.045    4.0442
   27.060    4.4128
   27.075    4.4339
   27.090    4.3813
   27.105    4.6551
   27.120    4.3813
   27.135    4.2654
   27.150    4.2127
   27.165    4.1917
   27.180    4.4760
   27.195    4.4128
   27.210    4.3286
   27.225    4.1706
   27.240    4.2865
   27.255    4.0969
   27.270    4.4550
   27.285    4.2759
   27.300    4.1601
   27.315    4.3602
   27.330    4.4128
   27.345    4.2759
   27.360    4.3391
   27.375    4.3391
   27.390    4.0969
   27.405    3.9284
   27.420    3.9284
   27.435    4.1180
   27.450    4.1917
   27.465    4.4128
   27.480    4.3075
   27.495    4.5919
   27.510    4.0758
   27.525    3.9810
   27.540    4.4234
   27.555    4.5498
   27.570    4.2022
   27.585    4.0969
   27.600    4.1917
   27.615    4.3918
   27.630    4.4234
   27.645    4.4234
   27.660    4.4023
   27.675    4.5814
   27.690    4.1496
   27.705    4.2549
   27.720    3.8652
   27.735    4.4234
   27.750    4.5182
   27.765    4.0969
   27.780    4.2022
   27.795    4.3391
   27.810    4.1390
   27.825    4.2654
   27.840    4.2865
   27.855    4.3707
   27.870    4.0969
   27.885    4.2970
   27.900    4.4128
   27.915    4.3181
   27.930    4.4760
   27.945    4.3286
   27.960    4.1811
   27.975    4.4971
   27.990    4.6972
   28.005    4.5287
   28.020    4.2865
   28.035    4.5287
   28.050    4.2970
   28.065    4.0548
   28.080    4.2549
   28.095    3.8547
   28.110    4.0653
   28.125    4.4444
   28.140    4.4339
   28.155    4.2022
   28.170    4.1180
   28.185    4.0337
   28.200    4.1706
   28.215    4.1706
   28.230    4.3918
   28.245    4.4550
   28.260    4.4023
   28.275    3.9916
   28.290    3.9284
   28.305    4.1496
   28.320    4.2233
   28.335    4.2759
   28.350    3.9179
   28.365    3.8863
   28.380    3.9916
   28.395    4.2127
   28.410    4.1285
   28.425    4.1917
   28.440    4.1496
   28.455    4.5603
   28.470    4.3707
   28.485    4.2127
   28.500    4.2127
   28.515    4.2233
   28.530    3.9073
   28.545    3.7915
   28.560    4.0126
   28.575    4.3181
   28.590    4.1285
   28.605    4.0021
   28.620    3.9916
   28.635    3.8547
   28.650    4.0864
   28.665    4.1601
   28.680    4.2549
   28.695    4.5392
   28.710    4.2654
   28.725    3.8231
   28.740    4.1074
   28.755    4.0126
   28.770    4.0126
   28.785    4.0021
   28.800    4.4128
   28.815    4.3181
   28.830    4.1496
   28.845    4.2970
   28.860    4.2127
   28.875    4.0442
   28.890    4.2654
   28.905    4.3918
   28.920    4.4971
   28.935    4.3918
   28.950    4.4550
   28.965    4.4444
   28.980    4.2022
   28.995    4.6340
   29.010    4.4023
   29.025    4.5076
   29.040    4.3813
   29.055    4.3075
   29.070    4.3181
   29.085    4.2127
   29.100    4.0442
   29.115    3.7072
   29.130    3.9600
   29.145    4.0232
   29.160    4.0126
   29.175    4.0548
   29.190    3.7388
   29.205    3.9389
   29.220    3.7915
   29.235    4.0653
   29.250    4.0653
   29.265    4.0232
   29.280    3.9389
   29.295    3.9916
   29.310    3.9810
   29.325    4.1496
   29.340    4.0758
   29.355    3.9073
   29.370    4.1496
   29.385    4.1601
   29.400    4.1496
   29.415    4.2443
   29.430    4.0548
   29.445    3.8968
   29.460    4.0232
   29.475    4.0864
   29.490    4.0758
   29.505    4.2443
   29.520    4.1074
   29.535    3.9705
   29.550    3.9600
   29.565    4.1496
   29.580    3.8652
   29.595    4.1180
   29.610    4.1601
   29.625    4.0232
   29.640    3.6862
   29.655    3.8336
   29.670    3.9705
   29.685    3.8757
   29.700    4.0021
   29.715    4.0864
   29.730    3.6862
   29.745    3.8231
   29.760    3.9600
   29.775    3.9600
   29.790    3.9494
   29.805    3.8547
   29.820    4.0758
   29.835    4.0021
   29.850    3.8757
   29.865    4.0653
   29.880    4.2654
   29.895    3.9916
   29.910    3.7704
   29.925    3.7704
   29.940    3.9284
   29.955    4.1074
   29.970    3.9073
   29.985    4.1074
   30.000    3.9179
   30.015    3.8547
   30.030    3.9389
   30.045    4.1601
   30.060    4.1601
   30.075    4.0232
   30.090    3.8547
   30.105    4.0021
   30.120    3.9284
   30.135    3.9705
   30.150    4.0758
   30.165    4.3181
   30.180    4.2759
   30.195    4.0021
   30.210    3.8336
   30.225    3.8231
   30.240    4.0232
   30.255    4.0969
   30.270    3.8863
   30.285    3.9916
   30.300    3.9389
   30.315    4.2127
   30.330    4.4550
   30.345    4.2233
   30.360    3.8336
   30.375    3.8231
   30.390    4.0021
   30.405    3.8336
   30.420    3.9073
   30.435    3.7283
   30.450    3.6440
   30.465    3.8757
   30.480    3.8968
   30.495    3.9073
   30.510    3.9810
   30.525    3.9916
   30.540    3.7915
   30.555    3.8020
   30.570    3.9705
   30.585    3.9073
   30.600    3.9916
   30.615    3.8652
   30.630    4.0232
   30.645    3.8968
   30.660    3.7283
   30.675    3.6335
   30.690    3.8757
   30.705    3.6440
   30.720    3.4755
   30.735    4.0126
   30.750    4.0442
   30.765    4.0758
   30.780    4.2233
   30.795    3.8441
   30.810    3.9810
   30.825    3.9073
   30.840    3.9389
   30.855    4.0232
   30.870    3.9705
   30.885    3.8652
   30.900    3.7599
   30.915    3.9494
   30.930    3.9179
   30.945    3.6756
   30.960    4.0232
   30.975    4.0548
   30.990    3.6967
   31.005    3.9916
   31.020    4.2233
   31.035    3.9284
   31.050    4.0548
   31.065    4.1601
   31.080    4.2443
   31.095    3.7493
   31.110    3.6335
   31.125    3.9810
   31.140    3.6335
   31.155    3.6756
   31.170    3.7704
   31.185    3.8336
   31.200    3.7283
   31.215    3.5808
   31.230    3.2333
   31.245    3.5914
   31.260    3.5176
   31.275    3.5071
   31.290    3.3175
   31.305    3.7599
   31.320    3.6756
   31.335    3.8652
   31.350    3.9284
   31.365    3.7388
   31.380    3.9705
   31.395    3.9073
   31.410    3.7704
   31.425    3.7809
   31.440    3.5914
   31.455    3.7809
   31.470    3.7388
   31.485    3.5703
   31.500    3.6651
   31.515    4.2759
   31.530    3.7599
   31.545    3.5808
   31.560    3.5914
   31.575    3.8547
   31.590    3.6651
   31.605    3.8757
   31.620    3.6967
   31.635    3.8757
   31.650    3.7704
   31.665    3.7599
   31.680    3.7704
   31.695    3.4755
   31.710    3.6651
   31.725    4.0126
   31.740    4.0548
   31.755    3.7704
   31.770    4.1601
   31.785    4.0653
   31.800    4.0232
   31.815    3.7599
   31.830    3.7915
   31.845    3.8231
   31.860    3.8652
   31.875    4.0337
   31.890    4.2233
   31.905    3.8757
   31.920    4.0337
   31.935    3.7915
   31.950    3.5598
   31.965    3.7704
   31.980    3.9810
   31.995    4.1074
   32.010    4.1285
   32.025    4.4128
   32.040    4.3286
   32.055    4.4339
   32.070    4.3918
   32.085    4.3075
   32.100    4.6340
   32.115    4.6340
   32.130    4.6024
   32.145    4.3497
   32.160    4.2127
   32.175    4.1180
   32.190    4.0442
   32.205    4.1074
   32.220    3.3491
   32.235    3.5914
   32.250    3.6546
   32.265    3.6019
   32.280    3.5914
   32.295    3.6440
   32.310    3.4123
   32.325    3.6862
   32.340    3.7915
   32.355    3.7388
   32.370    4.0232
   32.385    3.8125
   32.400    3.5598
   32.415    3.5387
   32.430    3.8863
   32.445    3.4439
   32.460    3.5598
   32.475    3.8336
   32.490    3.7177
   32.505    3.5914
   32.520    3.4650
   32.535    3.6019
   32.550    3.7599
   32.565    3.6335
   32.580    3.5387
   32.595    3.4334
   32.610    3.5703
   32.625    3.6335
   32.640    3.4123
   32.655    3.3070
   32.670    3.4860
   32.685    3.4334
   32.700    3.6335
   32.715    3.5808
   32.730    3.4123
   32.745    3.7599
   32.760    3.8652
   32.775    3.7915
   32.790    3.7704
   32.805    3.6335
   32.820    3.8020
   32.835    3.2754
   32.850    3.4229
   32.865    3.6967
   32.880    3.6651
   32.895    3.3281
   32.910    3.3386
   32.925    3.7915
   32.940    3.7072
   32.955    3.6651
   32.970    3.4229
   32.985    3.4650
   33.000    3.6967
   33.015    3.7809
   33.030    3.5808
   33.045    3.6862
   33.060    3.5598
   33.075    3.3913
   33.090    3.3491
   33.105    3.5703
   33.120    3.4229
   33.135    3.2649
   33.150    3.6862
   33.165    3.5071
   33.180    3.4123
   33.195    3.6124
   33.210    3.5808
   33.225    3.6124
   33.240    3.8547
   33.255    3.7177
   33.270    3.4544
   33.285    3.7283
   33.300    3.4439
   33.315    3.4018
   33.330    3.2965
   33.345    3.3597
   33.360    3.1806
   33.375    3.4018
   33.390    3.3175
   33.405    3.4755
   33.420    3.4755
   33.435    3.5387
   33.450    3.7704
   33.465    3.6756
   33.480    3.8231
   33.495    3.7177
   33.510    3.7809
   33.525    3.7072
   33.540    3.4123
   33.555    3.5492
   33.570    3.2754
   33.585    3.3070
   33.600    3.4650
   33.615    3.4544
   33.630    3.4123
   33.645    3.5282
   33.660    3.6124
   33.675    3.4334
   33.690    3.2333
   33.705    3.5071
   33.720    3.4966
   33.735    3.6546
   33.750    4.0021
   33.765    3.6967
   33.780    3.8547
   33.795    3.8125
   33.810    3.7283
   33.825    3.7388
   33.840    4.1917
   33.855    3.7915
   33.870    3.6546
   33.885    3.6651
   33.900    3.7283
   33.915    3.8231
   33.930    3.6335
   33.945    3.5598
   33.960    3.6756
   33.975    3.6967
   33.990    3.5598
   34.005    3.1806
   34.020    3.3386
   34.035    3.4334
   34.050    3.1174
   34.065    3.3597
   34.080    3.1385
   34.095    3.5387
   34.110    3.4018
   34.125    3.3597
   34.140    3.3913
   34.155    3.4229
   34.170    3.5598
   34.185    3.5492
   34.200    3.5808
   34.215    3.3175
   34.230    3.2754
   34.245    3.2965
   34.260    3.2754
   34.275    3.2227
   34.290    3.4018
   34.305    3.5176
   34.320    3.4123
   34.335    3.6230
   34.350    3.1596
   34.365    3.4966
   34.380    3.2122
   34.395    3.4018
   34.410    3.6230
   34.425    3.1912
   34.440    3.0964
   34.455    3.4123
   34.470    3.4229
   34.485    3.6862
   34.500    3.5071
   34.515    3.3491
   34.530    3.0648
   34.545    3.3807
   34.560    3.5071
   34.575    3.6124
   34.590    3.4123
   34.605    3.4123
   34.620    3.3386
   34.635    3.4018
   34.650    3.5282
   34.665    3.1701
   34.680    3.5387
   34.695    3.2859
   34.710    3.0753
   34.725    3.2122
   34.740    3.4966
   34.755    3.4229
   34.770    3.4229
   34.785    3.0016
   34.800    3.3386
   34.815    3.2859
   34.830    3.1280
   34.845    3.2859
   34.860    3.2543
   34.875    3.4123
   34.890    3.1806
   34.905    3.1069
   34.920    3.2649
   34.935    3.1280
   34.950    3.2859
   34.965    3.0332
   34.980    3.0121
   34.995    3.3175
   35.010    3.3281
   35.025    3.3597
   35.040    3.2859
   35.055    3.2859
   35.070    3.2649
   35.085    3.2965
   35.100    3.2859
   35.115    3.2333
   35.130    3.3281
   35.145    3.3386
   35.160    3.1596
   35.175    3.5598
   35.190    3.3491
   35.205    3.4544
   35.220    3.4439
   35.235    3.3386
   35.250    3.0332
   35.265    3.0542
   35.280    3.3702
   35.295    3.1385
   35.310    3.3913
   35.325    3.2438
   35.340    3.5282
   35.355    3.2017
   35.370    3.2017
   35.385    3.1174
   35.400    3.2333
   35.415    3.5176
   35.430    3.2017
   35.445    3.1596
   35.460    3.3491
   35.475    3.3175
   35.490    3.0437
   35.505    3.1701
   35.520    3.3175
   35.535    3.3491
   35.550    2.9700
   35.565    3.1280
   35.580    3.2438
   35.595    3.3175
   35.610    3.1912
   35.625    3.4018
   35.640    3.1912
   35.655    3.2859
   35.670    3.5808
   35.685    2.9805
   35.700    3.2333
   35.715    3.2017
   35.730    2.9700
   35.745    3.0964
   35.760    3.1912
   35.775    3.4123
   35.790    3.3386
   35.805    3.2017
   35.820    3.2543
   35.835    3.5914
   35.850    3.2122
   35.865    3.0016
   35.880    3.0858
   35.895    3.0542
   35.910    3.0858
   35.925    3.1806
   35.940    3.4018
   35.955    3.1912
   35.970    3.2649
   35.985    3.1806
   36.000    3.1701
   36.015    3.3175
   36.030    3.0437
   36.045    3.1912
   36.060    3.1806
   36.075    3.2227
   36.090    3.0858
   36.105    3.2543
   36.120    3.1912
   36.135    3.2649
   36.150    3.1701
   36.165    3.1806
   36.180    3.3070
   36.195    3.0648
   36.210    3.1174
   36.225    3.0858
   36.240    3.1385
   36.255    3.0437
   36.270    3.2017
   36.285    3.2017
   36.300    3.1069
   36.315    3.0648
   36.330    3.1701
   36.345    3.2754
   36.360    3.2333
   36.375    3.3281
   36.390    3.2543
   36.405    3.1280
   36.420    3.3175
   36.435    3.4860
   36.450    3.5071
   36.465    3.4229
   36.480    3.0858
   36.495    3.2754
   36.510    2.8436
   36.525    2.8752
   36.540    2.8963
   36.555    3.0858
   36.570    3.1280
   36.585    3.3386
   36.600    3.1174
   36.615    3.3175
   36.630    3.2017
   36.645    2.9910
   36.660    3.0753
   36.675    3.1385
   36.690    3.0437
   36.705    2.9700
   36.720    3.0648
   36.735    3.1069
   36.750    3.3175
   36.765    3.2543
   36.780    3.0964
   36.795    3.1490
   36.810    3.2965
   36.825    2.9173
   36.840    2.9700
   36.855    3.1280
   36.870    3.2543
   36.885    3.0226
   36.900    3.0226
   36.915    2.8752
   36.930    3.0542
   36.945    3.3175
   36.960    3.0437
   36.975    3.4544
   36.990    2.9068
   37.005    2.9384
   37.020    3.1912
   37.035    3.0753
   37.050    2.7909
   37.065    3.2754
   37.080    2.9700
   37.095    3.0121
   37.110    2.8225
   37.125    2.9595
   37.140    2.8541
   37.155    3.0964
   37.170    3.0332
   37.185    3.0121
   37.200    3.1596
   37.215    3.0964
   37.230    3.0121
   37.245    3.2017
   37.260    3.0753
   37.275    2.8857
   37.290    3.1490
   37.305    3.0226
   37.320    2.8752
   37.335    3.1385
   37.350    2.9805
   37.365    3.0437
   37.380    3.0016
   37.395    2.9595
   37.410    2.9068
   37.425    3.1912
   37.440    3.0226
   37.455    2.8331
   37.470    2.8331
   37.485    3.0121
   37.500    3.1174
   37.515    3.0858
   37.530    2.9384
   37.545    3.1280
   37.560    3.1701
   37.575    3.0121
   37.590    3.0226
   37.605    3.2122
   37.620    3.1174
   37.635    3.0437
   37.650    2.8752
   37.665    3.1490
   37.680    3.0964
   37.695    2.9279
   37.710    3.1596
   37.725    3.0753
   37.740    3.0648
   37.755    2.9384
   37.770    3.2333
   37.785    3.1069
   37.800    3.2017
   37.815    2.9805
   37.830    3.1806
   37.845    3.0648
   37.860    2.8963
   37.875    3.1280
   37.890    2.8857
   37.905    2.9910
   37.920    3.1174
   37.935    2.9595
   37.950    2.7909
   37.965    2.8752
   37.980    2.9173
   37.995    2.8436
   38.010    3.2017
   38.025    3.3702
   38.040    2.9595
   38.055    3.0542
   38.070    2.9910
   38.085    2.9910
   38.100    2.9805
   38.115    2.7804
   38.130    2.8225
   38.145    2.8331
   38.160    2.9910
   38.175    2.7804
   38.190    2.8331
   38.205    3.0648
   38.220    3.0648
   38.235    3.3702
   38.250    2.9489
   38.265    3.0437
   38.280    2.8120
   38.295    2.8752
   38.310    2.9279
   38.325    3.0332
   38.340    2.9489
   38.355    2.9173
   38.370    2.9068
   38.385    3.0226
   38.400    2.8015
   38.415    2.8647
   38.430    3.0964
   38.445    2.9910
   38.460    3.0016
   38.475    3.0964
   38.490    3.0648
   38.505    2.9595
   38.520    2.7909
   38.535    2.8225
   38.550    3.3281
   38.565    3.0226
   38.580    3.1385
   38.595    2.9384
   38.610    2.9173
   38.625    2.9910
   38.640    2.8647
   38.655    3.0858
   38.670    3.3386
   38.685    3.0542
   38.700    3.3070
   38.715    3.1069
   38.730    3.1596
   38.745    3.0121
   38.760    2.7909
   38.775    2.7699
   38.790    2.8647
   38.805    2.8225
   38.820    2.8541
   38.835    2.7804
   38.850    2.7067
   38.865    2.9595
   38.880    2.9489
   38.895    2.9910
   38.910    2.8752
   38.925    2.8436
   38.940    3.0332
   38.955    3.1385
   38.970    3.2017
   38.985    2.7172
   39.000    2.5698
   39.015    3.0016
   39.030    2.9595
   39.045    3.1069
   39.060    2.9595
   39.075    2.8963
   39.090    3.0121
   39.105    3.2122
   39.120    2.9489
   39.135    2.7488
   39.150    2.7909
   39.165    2.7593
   39.180    3.0753
   39.195    3.1174
   39.210    3.0332
   39.225    2.8015
   39.240    2.9068
   39.255    2.9805
   39.270    3.0121
   39.285    2.8015
   39.300    2.7593
   39.315    2.7067
   39.330    3.1069
   39.345    3.0648
   39.360    2.8647
   39.375    2.8647
   39.390    2.9910
   39.405    2.9700
   39.420    3.0332
   39.435    2.7488
   39.450    2.6330
   39.465    2.7699
   39.480    2.8541
   39.495    3.0226
   39.510    2.8963
   39.525    2.9384
   39.540    2.7804
   39.555    2.6646
   39.570    2.7804
   39.585    2.8120
   39.600    2.8015
   39.615    2.8541
   39.630    2.8331
   39.645    2.7699
   39.660    2.7593
   39.675    3.0437
   39.690    2.9068
   39.705    2.8015
   39.720    2.7699
   39.735    2.8331
   39.750    2.9700
   39.765    2.9068
   39.780    3.0332
   39.795    2.8331
   39.810    3.2122
   39.825    3.0964
   39.840    3.0016
   39.855    2.8015
   39.870    2.8963
   39.885    2.9489
   39.900    2.9068
   39.915    2.9279
   39.930    2.8331
   39.945    2.6330
   39.960    2.6540
   39.975    2.7067
   39.990    2.8331
