    1.500   30.8689
    1.515   30.9953
    1.530   30.7425
    1.545   30.1527
    1.560   30.1527
    1.575   30.5740
    1.590   28.6045
    1.605   28.6361
    1.620   29.2575
    1.635   28.1201
    1.650   27.7725
    1.665   28.6151
    1.680   28.6151
    1.695   27.2459
    1.710   26.7931
    1.725   26.9826
    1.740   27.2354
    1.755   26.6772
    1.770   25.9716
    1.785   26.4034
    1.800   26.4139
    1.815   26.8562
    1.830   26.1085
    1.845   25.6240
    1.860   25.4028
    1.875   25.5608
    1.890   25.7715
    1.905   24.5076
    1.920   25.1501
    1.935   24.4550
    1.950   24.4023
    1.965   24.9921
    1.980   25.3186
    1.995   25.4976
    2.010   25.1080
    2.025   24.3918
    2.040   24.4971
    2.055   24.5182
    2.070   24.4971
    2.085   24.8236
    2.100   24.8973
    2.115   25.2765
    2.130   24.7393
    2.145   24.8763
    2.160   25.5398
    2.175   25.4134
    2.190   25.2449
    2.205   25.3607
    2.220   25.6451
    2.235   25.7293
    2.250   26.8246
    2.265   27.2143
    2.280   27.3196
    2.295   26.7615
    2.310   26.9932
    2.325   27.5197
    2.340   27.1301
    2.355   27.2670
    2.370   27.7620
    2.385   27.3091
    2.400   28.1833
    2.415   29.3207
    2.430   28.3728
    2.445   29.8368
    2.460   29.5419
    2.475   29.8052
    2.490   30.5845
    2.505   30.2580
    2.520   31.1006
    2.535   31.8483
    2.550   32.8278
    2.565   32.7330
    2.580   32.5540
    2.595   33.7546
    2.610   33.1543
    2.625   35.4924
    2.640   36.0400
    2.655   35.2712
    2.670   36.0716
    2.685   37.2512
    2.700   37.4829
    2.715   38.8520
    2.730   38.8099
    2.745   40.1580
    2.760   41.5061
    2.775   42.8647
    2.790   43.7809
    2.805   43.0753
    2.820   44.4655
    2.835   45.0026
    2.850   47.2143
    2.865   47.5935
    2.880   48.3623
    2.895   49.7314
    2.910   51.3955
    2.925   52.9121
    2.940   55.8505
    2.955   57.1353
    2.970   57.9358
    2.985   59.7894
    3.000   61.4113
    3.015   62.1380
    3.030   63.7283
    3.045   65.1606
    3.060   68.6888
    3.075   70.9005
    3.090   73.8494
    3.105   75.7662
    3.120   78.5571
    3.135   79.1048
    3.150   83.8125
    3.165   86.2349
    3.180   90.5845
    3.195   93.0700
    3.210   96.8931
    3.225   99.9368
    3.240  104.3918
    3.255  108.6572
    3.270  114.5656
    3.285  121.0848
    3.300  126.7720
    3.315  133.6388
    3.330  138.5150
    3.345  147.9410
    3.360  155.9979
    3.375  167.9621
    3.390  177.1459
    3.405  186.4771
    3.420  193.0174
    3.435  196.5772
    3.450  196.0506
    3.465  193.2280
    3.480  185.5714
    3.495  173.5650
    3.510  157.8726
    3.525  139.3681
    3.540  120.9057
    3.555  105.6556
    3.570   94.1654
    3.585   84.4866
    3.600   76.7878
    3.615   72.7330
    3.630   67.9094
    3.645   65.2870
    3.660   64.7920
    3.675   61.6746
    3.690   62.8752
    3.705   63.4018
    3.720   61.3481
    3.735   61.4429
    3.750   61.6324
    3.765   62.5803
    3.780   64.6024
    3.795   64.8868
    3.810   65.9400
    3.825   68.1833
    3.840   69.7630
    3.855   70.7425
    3.870   71.8799
    3.885   72.4592
    3.900   75.8294
    3.915   75.5661
    3.930   76.1875
    3.945   75.7662
    3.960   78.0200
    3.975   80.5266
    3.990   82.5908
    4.005   81.4429
    4.020   80.8847
    4.035   80.2001
    4.050   80.0000
    4.065   79.6525
    4.080   79.3892
    4.095   79.3786
    4.110   76.4297
    4.125   74.6077
    4.140   71.9537
    4.155   70.0579
    4.170   67.1617
    4.185   64.6446
    4.200   62.4961
    4.215   59.3997
    4.230   55.9136
    4.245   52.6277
    4.260   48.9310
    4.275   45.0974
    4.290   43.2228
    4.305   39.9684
    4.320   37.8726
    4.335   35.5766
    4.350   33.1859
    4.365   30.5845
    4.380   27.5935
    4.395   27.1195
    4.410   25.6767
    4.425   23.4650
    4.440   22.4118
    4.455   21.0111
    4.470   19.9895
    4.485   19.0521
    4.500   17.8410
    4.515   17.5566
    4.530   16.1980
    4.545   15.9874
    4.560   15.6714
    4.575   14.5866
    4.590   13.6598
    4.605   13.8810
    4.620   13.2807
    4.635   13.1016
    4.650   12.7330
    4.665   12.2591
    4.680   12.5540
    4.695   12.2486
    4.710   11.8378
    4.725   11.9958
    4.740   11.3217
    4.755   11.1006
    4.770   10.8794
    4.785   10.5951
    4.800   10.5213
    4.815   10.3002
    4.830   10.3528
    4.845   10.2686
    4.860    9.9315
    4.875    9.6577
    4.890    9.3944
    4.905    9.6261
    4.920    9.4471
    4.935    9.1943
    4.950    9.2996
    4.965    9.1101
    4.980    9.0363
    4.995    8.6677
    5.010    8.9731
    5.025    8.8573
    5.040    8.7204
    5.055    9.2048
    5.070    9.1206
    5.085    8.8678
    5.100    8.4992
    5.115    8.4781
    5.130    8.5413
    5.145    8.6467
    5.160    8.5308
    5.175    8.7204
    5.190    8.6993
    5.205    8.4360
    5.220    8.6783
    5.235    8.5097
    5.250    8.7204
    5.265    8.2570
    5.280    7.9305
    5.295    7.7830
    5.310    7.8884
    5.325    8.4466
    5.340    8.1411
    5.355    7.6461
    5.370    8.4150
    5.385    8.0463
    5.400    8.0463
    5.415    7.9937
    5.430    8.2254
    5.445    8.0885
    5.460    7.8568
    5.475    7.5303
    5.490    7.5408
    5.505    7.6672
    5.520    7.4144
    5.535    7.4776
    5.550    7.6040
    5.565    7.3934
    5.580    7.6145
    5.595    7.6777
    5.610    7.2775
    5.625    7.3723
    5.640    7.4987
    5.655    7.5197
    5.670    7.6461
    5.685    7.1195
    5.700    7.2775
    5.715    7.1511
    5.730    7.2565
    5.745    6.9405
    5.760    6.9089
    5.775    7.0248
    5.790    7.0774
    5.805    7.0879
    5.820    7.0879
    5.835    7.1511
    5.850    6.7404
    5.865    7.0879
    5.880    7.1511
    5.895    7.3618
    5.910    7.1933
    5.925    7.2143
    5.940    7.0142
    5.955    7.1090
    5.970    7.3512
    5.985    7.3196
    6.000    7.0985
    6.015    7.2249
    6.030    7.3934
    6.045    7.4250
    6.060    7.0985
    6.075    7.4144
    6.090    7.5197
    6.105    7.5513
    6.120    7.1722
    6.135    7.2880
    6.150    7.0353
    6.165    6.6877
    6.180    7.4776
    6.195    7.3618
    6.210    7.2775
    6.225    7.2354
    6.240    7.2459
    6.255    7.8568
    6.270    7.7514
    6.285    7.5197
    6.300    7.4355
    6.315    7.7304
    6.330    7.3828
    6.345    7.8462
    6.360    8.2991
    6.375    8.0990
    6.390    7.9621
    6.405    8.2464
    6.420    8.2043
    6.435    8.5729
    6.450    8.6361
    6.465    8.8468
    6.480    8.4781
    6.495    9.5313
    6.510    9.3839
    6.525    9.2786
    6.540    9.4576
    6.555    9.1943
    6.570    9.9842
    6.585   10.1527
    6.600   10.4581
    6.615   11.0690
    6.630   11.1532
    6.645   11.2691
    6.660   11.1111
    6.675   11.5008
    6.690   12.1643
    6.705   12.6382
    6.720   12.7962
    6.735   13.6282
    6.750   14.0916
    6.765   14.8815
    6.780   15.5556
    6.795   15.6293
    6.810   17.4934
    6.825   17.8199
    6.840   18.1043
    6.855   19.6735
    6.870   21.2744
    6.885   22.0642
    6.900   22.9489
    6.915   24.2443
    6.930   24.7183
    6.945   25.2870
    6.960   24.4339
    6.975   23.8231
    6.990   23.2965
    7.005   20.6740
    7.020   19.1259
    7.035   17.1669
    7.050   16.0400
    7.065   14.4286
    7.080   13.5650
    7.095   12.5224
    7.110   10.8373
    7.125   10.9637
    7.140    9.8789
    7.155    9.3312
    7.170    9.4050
    7.185    9.2786
    7.200    9.4155
    7.215    9.0890
    7.230    8.9415
    7.245    8.7520
    7.260    8.2149
    7.275    8.7204
    7.290    8.5624
    7.305    8.2043
    7.320    7.7830
    7.335    7.9200
    7.350    8.0674
    7.365    7.7620
    7.380    8.1306
    7.395    8.2570
    7.410    7.9621
    7.425    8.1201
    7.440    8.7204
    7.455    8.2464
    7.470    8.2991
    7.485    8.0674
    7.500    7.9516
    7.515    8.4150
    7.530    8.3412
    7.545    8.3307
    7.560    8.5413
    7.575    8.4044
    7.590    8.5097
    7.605    8.7625
    7.620    8.7625
    7.635    8.6993
    7.650    9.1101
    7.665    8.9310
    7.680    9.3523
    7.695    9.0469
    7.710    9.0890
    7.725    8.8678
    7.740    9.6261
    7.755    9.7209
    7.770    9.6367
    7.785    9.6261
    7.800   10.0263
    7.815    9.9947
    7.830    9.9421
    7.845   10.3633
    7.860    9.9105
    7.875   10.5319
    7.890   10.9110
    7.905   10.6688
    7.920   10.9742
    7.935   11.2691
    7.950   11.3849
    7.965   11.6588
    7.980   11.7852
    7.995   11.9853
    8.010   11.5429
    8.025   11.7746
    8.040   11.7114
    8.055   11.6272
    8.070   12.3328
    8.085   12.1748
    8.100   12.6909
    8.115   12.9226
    8.130   12.1222
    8.145   12.5856
    8.160   12.4697
    8.175   12.3644
    8.190   13.0911
    8.205   12.2486
    8.220   12.7857
    8.235   13.1227
    8.250   12.8699
    8.265   12.5329
    8.280   12.6382
    8.295   12.9015
    8.310   12.5224
    8.325   12.5961
    8.340   12.6382
    8.355   12.7014
    8.370   12.7962
    8.385   12.1222
    8.400   11.9958
    8.415   12.0800
    8.430   12.3960
    8.445   11.9431
    8.460   12.3117
    8.475   11.7852
    8.490   11.6377
    8.505   12.0906
    8.520   11.2796
    8.535   11.2480
    8.550   10.7846
    8.565   10.2896
    8.580   10.3107
    8.595   10.3423
    8.610   10.7004
    8.625   10.1106
    8.640    9.9421
    8.655    9.2154
    8.670    9.2996
    8.685    9.3418
    8.700    9.2048
    8.715    9.1943
    8.730    8.6677
    8.745    9.0574
    8.760    8.7836
    8.775    8.7836
    8.790    8.3096
    8.805    7.8357
    8.820    7.8778
    8.835    8.0253
    8.850    7.8041
    8.865    8.1517
    8.880    8.1411
    8.895    7.8252
    8.910    7.4882
    8.925    7.4882
    8.940    7.6145
    8.955    7.1617
    8.970    7.2880
    8.985    7.5724
    9.000    7.4671
    9.015    7.1617
    9.030    6.8562
    9.045    6.8668
    9.060    7.0879
    9.075    7.0879
    9.090    7.0669
    9.105    6.6877
    9.120    7.0879
    9.135    6.6667
    9.150    6.6140
    9.165    6.7299
    9.180    6.3823
    9.195    6.4876
    9.210    6.8036
    9.225    6.9194
    9.240    7.0774
    9.255    7.0037
    9.270    6.4771
    9.285    6.5087
    9.300    6.8878
    9.315    7.2565
    9.330    6.4982
    9.345    6.2875
    9.360    6.6035
    9.375    6.7615
    9.390    6.2875
    9.405    6.1927
    9.420    6.2454
    9.435    6.5192
    9.450    6.4034
    9.465    6.8984
    9.480    6.6877
    9.495    6.3296
    9.510    6.3086
    9.525    6.1190
    9.540    6.3718
    9.555    6.3718
    9.570    6.2033
    9.585    6.1401
    9.600    6.4455
    9.615    6.1927
    9.630    6.1927
    9.645    6.1085
    9.660    6.3191
    9.675    6.2243
    9.690    6.2665
    9.705    6.1506
    9.720    6.7299
    9.735    6.4666
    9.750    6.4560
    9.765    6.8457
    9.780    6.1927
    9.795    6.0242
    9.810    6.2243
    9.825    6.2138
    9.840    6.0979
    9.855    6.6456
    9.870    6.2665
    9.885    6.0979
    9.900    6.3507
    9.915    6.2454
    9.930    6.4350
    9.945    6.2033
    9.960    6.6456
    9.975    6.4139
    9.990    6.2665
   10.005    6.3086
   10.020    6.2243
   10.035    6.3507
   10.050    6.1085
   10.065    6.3823
   10.080    6.1190
   10.095    6.1927
   10.110    6.2875
   10.125    6.8984
   10.140    6.4350
   10.155    6.4034
   10.170    6.6035
   10.185    6.6772
   10.200    6.0874
   10.215    6.8036
   10.230    6.8984
   10.245    6.5087
   10.260    6.3718
   10.275    6.8141
   10.290    6.6561
   10.305    7.0774
   10.320    6.9826
   10.335    6.9932
   10.350    6.8246
   10.365    7.2249
   10.380    7.4776
   10.395    7.7936
   10.410    7.3618
   10.425    7.6145
   10.440    7.6567
   10.455    7.4566
   10.470    7.2565
   10.485    7.6461
   10.500    7.2775
   10.515    7.2249
   10.530    7.2565
   10.545    6.7193
   10.560    6.7193
   10.575    6.8984
   10.590    6.8036
   10.605    6.6456
   10.620    6.3191
   10.635    6.7404
   10.650    6.5824
   10.665    6.7930
   10.680    6.4244
   10.695    6.1822
   10.710    6.1927
   10.725    6.6456
   10.740    6.5192
   10.755    6.3928
   10.770    6.3928
   10.785    6.7193
   10.800    6.2138
   10.815    6.2665
   10.830    6.1822
   10.845    5.9821
   10.860    6.3612
   10.875    6.7615
   10.890    6.4244
   10.905    6.2665
   10.920    6.2033
   10.935    6.3191
   10.950    6.4771
   10.965    6.2665
   10.980    6.2875
   10.995    6.1717
   11.010    5.9084
   11.025    6.6456
   11.040    6.1295
   11.055    6.2138
   11.070    6.5192
   11.085    6.6772
   11.100    6.2349
   11.115    6.2454
   11.130    6.1611
   11.145    6.2033
   11.160    6.2243
   11.175    6.4455
   11.190    6.3823
   11.205    6.1717
   11.220    6.0348
   11.235    6.3296
   11.250    6.2770
   11.265    6.2454
   11.280    6.4034
   11.295    6.1506
   11.310    6.4666
   11.325    6.3928
   11.340    6.3718
   11.355    6.0979
   11.370    6.6035
   11.385    6.6561
   11.400    6.6877
   11.415    6.3402
   11.430    6.2770
   11.445    6.0979
   11.460    6.3612
   11.475    6.3507
   11.490    6.7825
   11.505    6.5192
   11.520    6.3402
   11.535    6.4666
   11.550    6.3296
   11.565    6.4982
   11.580    6.3402
   11.595    6.8773
   11.610    6.6561
   11.625    6.5824
   11.640    6.6456
   11.655    6.3086
   11.670    6.7193
   11.685    6.7088
   11.700    6.5192
   11.715    6.6140
   11.730    6.7615
   11.745    6.9616
   11.760    6.9194
   11.775    6.9405
   11.790    7.1406
   11.805    6.7193
   11.820    6.9721
   11.835    6.5403
   11.850    6.6667
   11.865    6.8878
   11.880    6.8141
   11.895    6.6877
   11.910    6.3612
   11.925    6.6140
   11.940    7.1617
   11.955    7.0669
   11.970    7.1090
   11.985    6.8352
   12.000    6.9510
   12.015    7.0563
   12.030    6.9932
   12.045    7.0248
   12.060    6.6983
   12.075    6.9932
   12.090    7.0669
   12.105    6.8562
   12.120    6.5719
   12.135    7.2038
   12.150    6.9300
   12.165    6.9826
   12.180    7.0669
   12.195    7.0879
   12.210    7.0669
   12.225    7.0774
   12.240    7.5408
   12.255    7.4671
   12.270    7.3196
   12.285    7.6672
   12.300    7.3091
   12.315    7.0669
   12.330    7.2670
   12.345    7.3407
   12.360    7.4987
   12.375    7.1090
   12.390    7.2038
   12.405    7.2775
   12.420    6.9510
   12.435    7.5092
   12.450    7.6567
   12.465    7.3196
   12.480    7.1195
   12.495    7.2143
   12.510    7.6251
   12.525    7.4144
   12.540    7.4671
   12.555    7.1933
   12.570    7.4039
   12.585    7.4460
   12.600    7.4671
   12.615    7.3512
   12.630    7.3512
   12.645    7.0037
   12.660    7.1617
   12.675    7.3828
   12.690    7.2459
   12.705    7.4355
   12.720    7.4250
   12.735    7.1301
   12.750    7.3934
   12.765    7.4671
   12.780    6.9405
   12.795    6.9721
   12.810    7.4882
   12.825    7.3512
   12.840    7.7093
   12.855    6.5192
   12.870    7.0563
   12.885    7.4144
   12.900    7.2880
   12.915    7.1827
   12.930    7.1090
   12.945    7.0563
   12.960    7.0669
   12.975    6.9194
   12.990    6.9089
   13.005    6.9194
   13.020    6.9616
   13.035    7.1722
   13.050    7.2038
   13.065    7.2249
   13.080    7.1406
   13.095    7.0248
   13.110    6.6035
   13.125    6.9300
   13.140    6.8668
   13.155    6.6877
   13.170    6.8036
   13.185    6.4244
   13.200    6.8562
   13.215    6.9089
   13.230    7.3196
   13.245    6.9616
   13.260    6.9616
   13.275    7.0037
   13.290    7.0142
   13.305    6.6772
   13.320    7.1406
   13.335    6.9194
   13.350    6.5298
   13.365    6.6667
   13.380    6.9721
   13.395    6.8246
   13.410    6.5403
   13.425    6.7930
   13.440    6.7720
   13.455    7.1090
   13.470    6.9616
   13.485    6.8246
   13.500    7.1827
   13.515    6.6561
   13.530    6.8878
   13.545    6.7193
   13.560    6.5929
   13.575    6.5403
   13.590    6.9721
   13.605    6.7193
   13.620    6.7825
   13.635    6.7825
   13.650    6.7825
   13.665    6.7825
   13.680    6.9405
   13.695    7.0458
   13.710    6.8984
   13.725    6.7404
   13.740    6.9300
   13.755    6.6877
   13.770    6.5298
   13.785    6.6983
   13.800    6.6351
   13.815    6.6245
   13.830    6.8352
   13.845    6.5508
   13.860    6.8036
   13.875    6.6456
   13.890    6.7720
   13.905    6.6456
   13.920    6.8668
   13.935    6.8773
   13.950    6.2243
   13.965    6.3296
   13.980    6.5087
   13.995    7.2775
   14.010    6.8773
   14.025    7.0142
   14.040    6.4244
   14.055    6.7088
   14.070    6.2770
   14.085    6.6351
   14.100    6.4139
   14.115    6.6456
   14.130    6.5719
   14.145    6.8141
   14.160    7.1195
   14.175    7.0037
   14.190    6.4876
   14.205    6.6245
   14.220    6.7509
   14.235    6.3612
   14.250    6.1927
   14.265    6.6245
   14.280    6.2770
   14.295    6.4560
   14.310    6.5087
   14.325    6.5087
   14.340    6.2770
   14.355    6.5613
   14.370    6.4350
   14.385    6.3191
   14.400    6.2033
   14.415    6.4560
   14.430    6.2875
   14.445    6.1506
   14.460    6.2349
   14.475    6.1506
   14.490    6.3402
   14.505    6.5298
   14.520    6.4876
   14.535    6.6772
   14.550    6.6877
   14.565    6.5824
   14.580    6.1190
   14.595    6.2454
   14.610    6.3296
   14.625    6.3928
   14.640    6.5719
   14.655    6.2665
   14.670    5.9084
   14.685    6.2454
   14.700    6.0242
   14.715    6.2033
   14.730    6.2981
   14.745    6.0769
   14.760    6.2243
   14.775    5.8662
   14.790    5.8241
   14.805    5.8241
   14.820    6.2981
   14.835    5.9084
   14.850    6.1506
   14.865    6.1927
   14.880    6.0664
   14.895    5.9084
   14.910    5.9084
   14.925    6.0769
   14.940    6.1295
   14.955    6.1295
   14.970    5.9294
   14.985    6.0769
   15.000    6.1401
   15.015    6.2559
   15.030    6.0137
   15.045    6.1506
   15.060    6.0558
   15.075    6.0242
   15.090    5.6767
   15.105    5.6872
   15.120    5.9716
   15.135    6.2349
   15.150    6.1822
   15.165    6.2349
   15.180    6.3296
   15.195    6.7615
   15.210    6.5403
   15.225    6.2033
   15.240    6.1822
   15.255    6.5719
   15.270    6.8246
   15.285    6.5719
   15.300    6.3296
   15.315    6.4139
   15.330    6.2875
   15.345    6.3086
   15.360    6.4034
   15.375    6.0348
   15.390    6.1717
   15.405    5.9926
   15.420    6.5087
   15.435    6.5929
   15.450    6.6561
   15.465    6.5087
   15.480    6.3928
   15.495    6.2875
   15.510    6.4982
   15.525    6.4034
   15.540    6.1611
   15.555    6.1927
   15.570    6.0979
   15.585    6.2665
   15.600    6.4666
   15.615    6.5298
   15.630    6.4771
   15.645    6.6035
   15.660    6.6667
   15.675    6.5929
   15.690    6.3507
   15.705    6.5508
   15.720    6.6245
   15.735    6.7720
   15.750    6.6983
   15.765    6.1717
   15.780    6.3191
   15.795    6.6140
   15.810    6.6561
   15.825    6.7404
   15.840    6.3402
   15.855    6.2559
   15.870    6.4350
   15.885    6.1822
   15.900    6.2770
   15.915    6.4876
   15.930    6.5508
   15.945    6.4350
   15.960    6.4771
   15.975    6.1506
   15.990    6.3402
   16.005    6.7720
   16.020    6.4034
   16.035    6.4560
   16.050    6.5508
   16.065    6.6877
   16.080    6.1085
   16.095    6.8668
   16.110    6.7088
   16.125    6.3296
   16.140    6.4560
   16.155    6.4350
   16.170    6.8984
   16.185    6.6561
   16.200    6.7615
   16.215    6.5508
   16.230    6.4350
   16.245    6.5403
   16.260    6.4666
   16.275    6.5298
   16.290    6.5403
   16.305    6.1717
   16.320    6.3402
   16.335    6.1506
   16.350    6.1822
   16.365    6.6245
   16.380    6.6245
   16.395    6.4771
   16.410    6.3402
   16.425    6.1927
   16.440    6.4350
   16.455    5.9400
   16.470    6.1611
   16.485    6.2875
   16.500    6.0874
   16.515    6.0664
   16.530    6.3928
   16.545    6.2981
   16.560    6.3402
   16.575    6.2243
   16.590    6.4139
   16.605    6.1611
   16.620    6.0979
   16.635    6.3191
   16.650    6.1717
   16.665    5.8873
   16.680    6.0032
   16.695    6.0558
   16.710    5.9716
   16.725    6.0874
   16.740    6.2243
   16.755    6.0558
   16.770    6.0979
   16.785    6.5824
   16.800    6.3823
   16.815    6.2559
   16.830    6.7299
   16.845    6.3086
   16.860    6.2243
   16.875    6.1506
   16.890    6.3612
   16.905    5.9294
   16.920    5.9505
   16.935    6.1506
   16.950    6.0137
   16.965    6.2770
   16.980    6.3507
   16.995    6.0032
   17.010    6.3718
   17.025    5.9189
   17.040    6.2243
   17.055    6.2454
   17.070    6.1822
   17.085    6.0979
   17.100    5.7925
   17.115    5.7715
   17.130    5.9821
   17.145    6.5613
   17.160    6.1822
   17.175    6.1822
   17.190    6.2138
   17.205    5.8978
   17.220    5.9084
   17.235    6.2138
   17.250    5.5292
   17.265    5.9505
   17.280    6.3507
   17.295    5.8873
   17.310    6.1717
   17.325    6.3823
   17.340    6.0137
   17.355    6.3823
   17.370    6.5929
   17.385    6.4666
   17.400    6.1717
   17.415    6.2033
   17.430    6.1506
   17.445    6.3612
   17.460    6.6877
   17.475    6.5192
   17.490    6.4455
   17.505    6.1927
   17.520    6.3718
   17.535    6.4876
   17.550    6.5508
   17.565    6.3718
   17.580    6.1295
   17.595    6.6351
   17.610    6.3086
   17.625    6.0664
   17.640    6.2981
   17.655    6.3296
   17.670    6.4139
   17.685    6.3296
   17.700    6.3718
   17.715    6.2138
   17.730    6.1927
   17.745    6.0979
   17.760    6.2770
   17.775    6.4560
   17.790    6.4982
   17.805    6.3191
   17.820    6.2559
   17.835    6.3296
   17.850    6.8036
   17.865    6.8668
   17.880    6.4560
   17.895    6.1822
   17.910    6.3402
   17.925    6.5824
   17.940    6.2665
   17.955    6.1822
   17.970    5.9610
   17.985    6.4034
   18.000    6.0769
   18.015    6.0874
   18.030    6.1085
   18.045    6.5298
   18.060    6.1401
   18.075    6.3296
   18.090    6.2559
   18.105    6.2349
   18.120    6.0032
   18.135    6.2770
   18.150    6.2875
   18.165    6.4244
   18.180    6.4244
   18.195    6.1506
   18.210    6.0979
   18.225    6.3402
   18.240    6.0137
   18.255    6.1927
   18.270    6.3402
   18.285    6.7088
   18.300    6.1822
   18.315    6.2349
   18.330    6.0558
   18.345    6.4034
   18.360    6.1085
   18.375    6.3718
   18.390    6.0769
   18.405    6.2559
   18.420    6.1717
   18.435    6.1401
   18.450    6.2770
   18.465    6.1611
   18.480    6.4350
   18.495    6.4244
   18.510    6.2665
   18.525    6.4244
   18.540    6.1717
   18.555    5.9400
   18.570    6.0453
   18.585    6.2981
   18.600    6.3086
   18.615    6.3928
   18.630    6.5192
   18.645    5.7188
   18.660    6.3086
   18.675    6.3086
   18.690    6.5192
   18.705    6.7930
   18.720    6.0032
   18.735    6.0664
   18.750    6.0769
   18.765    6.2665
   18.780    6.0664
   18.795    6.4455
   18.810    5.9400
   18.825    6.3928
   18.840    6.6456
   18.855    6.5087
   18.870    6.3191
   18.885    6.2875
   18.900    6.2770
   18.915    6.3928
   18.930    6.4771
   18.945    6.2033
   18.960    6.2349
   18.975    5.8452
   18.990    6.4666
   19.005    6.6456
   19.020    6.3612
   19.035    6.2454
   19.050    6.2559
   19.065    6.2665
   19.080    6.8352
   19.095    6.3402
   19.110    6.4771
   19.125    6.4244
   19.140    6.6035
   19.155    6.4982
   19.170    6.5824
   19.185    6.6140
   19.200    6.5929
   19.215    6.7615
   19.230    6.3823
   19.245    6.6351
   19.260    7.0037
   19.275    6.4560
   19.290    6.2454
   19.305    6.2770
   19.320    6.7299
   19.335    6.5298
   19.350    6.2981
   19.365    6.7404
   19.380    6.8457
   19.395    6.8036
   19.410    6.7193
   19.425    6.6983
   19.440    6.9932
   19.455    6.4666
   19.470    6.9405
   19.485    6.4876
   19.500    6.7825
   19.515    7.3407
   19.530    7.5303
   19.545    7.1722
   19.560    7.0458
   19.575    6.5929
   19.590    6.6983
   19.605    6.7930
   19.620    7.1195
   19.635    6.7088
   19.650    6.5613
   19.665    7.2249
   19.680    7.3407
   19.695    6.7088
   19.710    7.2986
   19.725    7.0985
   19.740    6.9616
   19.755    6.6140
   19.770    7.0353
   19.785    7.0879
   19.800    7.4882
   19.815    6.8141
   19.830    6.9194
   19.845    7.1195
   19.860    6.7930
   19.875    7.1406
   19.890    7.3618
   19.905    7.1617
   19.920    7.4882
   19.935    7.3512
   19.950    7.4039
   19.965    7.6251
   19.980    7.3828
   19.995    7.2038
   20.010    7.1090
   20.025    7.4671
   20.040    7.6567
   20.055    7.4039
   20.070    7.2986
   20.085    7.2038
   20.100    7.0142
   20.115    7.3934
   20.130    7.2354
   20.145    7.4039
   20.160    7.2459
   20.175    7.7199
   20.190    7.5303
   20.205    7.3618
   20.220    6.9721
   20.235    7.1933
   20.250    7.0879
   20.265    7.2354
   20.280    7.2249
   20.295    7.0353
   20.310    7.2143
   20.325    7.1617
   20.340    7.2354
   20.355    6.9932
   20.370    6.9826
   20.385    7.0037
   20.400    6.7825
   20.415    7.0142
   20.430    7.2775
   20.445    6.6772
   20.460    6.8457
   20.475    7.2775
   20.490    7.3512
   20.505    6.8878
   20.520    6.8668
   20.535    6.8562
   20.550    7.1617
   20.565    6.9405
   20.580    7.2670
   20.595    7.4039
   20.610    7.0774
   20.625    6.8878
   20.640    7.6145
   20.655    7.5829
   20.670    7.1617
   20.685    6.8984
   20.700    7.4250
   20.715    7.0353
   20.730    6.9089
   20.745    6.8984
   20.760    7.4882
   20.775    7.4671
   20.790    7.3302
   20.805    7.3618
   20.820    6.6877
   20.835    7.2565
   20.850    7.5197
   20.865    7.4039
   20.880    6.9405
   20.895    7.0669
   20.910    7.0563
   20.925    7.0248
   20.940    7.1406
   20.955    7.4671
   20.970    7.8357
   20.985    7.3512
   21.000    7.5513
   21.015    7.2143
   21.030    7.7093
   21.045    7.5197
   21.060    7.4039
   21.075    7.2670
   21.090    7.5513
   21.105    7.4460
   21.120    7.6040
   21.135    7.4987
   21.150    7.1511
   21.165    7.1511
   21.180    6.8773
   21.195    7.5619
   21.210    7.5197
   21.225    7.2459
   21.240    6.9194
   21.255    6.7930
   21.270    7.1617
   21.285    7.0669
   21.300    6.8773
   21.315    7.0142
   21.330    6.6245
   21.345    6.8457
   21.360    7.1827
   21.375    7.1511
   21.390    6.8562
   21.405    6.7825
   21.420    6.9405
   21.435    7.1406
   21.450    7.5935
   21.465    7.1722
   21.480    7.3091
   21.495    7.2143
   21.510    7.1090
   21.525    7.0037
   21.540    7.0985
   21.555    6.9510
   21.570    6.7720
   21.585    7.1090
   21.600    6.9194
   21.615    7.3302
   21.630    7.0774
   21.645    7.1617
   21.660    7.0142
   21.675    7.1617
   21.690    7.0248
   21.705    7.4250
   21.720    7.0774
   21.735    7.1722
   21.750    7.3934
   21.765    7.2354
   21.780    7.1722
   21.795    7.1195
   21.810    7.1827
   21.825    7.3618
   21.840    6.9932
   21.855    7.4039
   21.870    6.7088
   21.885    7.1722
   21.900    7.4776
   21.915    6.9194
   21.930    6.6667
   21.945    6.9089
   21.960    7.3407
   21.975    7.2880
   21.990    7.0142
   22.005    7.2354
   22.020    7.4460
   22.035    7.3302
   22.050    6.9616
   22.065    7.3618
   22.080    7.1195
   22.095    6.8773
   22.110    7.1722
   22.125    6.8246
   22.140    6.8141
   22.155    7.4144
   22.170    7.1301
   22.185    6.7720
   22.200    7.0563
   22.215    7.5829
   22.230    7.4987
   22.245    7.1933
   22.260    7.1406
   22.275    7.1406
   22.290    6.9089
   22.305    7.0985
   22.320    7.1195
   22.335    6.7509
   22.350    6.8246
   22.365    7.1722
   22.380    6.9826
   22.395    7.4355
   22.410    7.1617
   22.425    7.5935
   22.440    7.4987
   22.455    7.0563
   22.470    7.1827
   22.485    6.8878
   22.500    6.9300
   22.515    7.0879
   22.530    7.3618
   22.545    7.1406
   22.560    7.3302
   22.575    7.1933
   22.590    6.9194
   22.605    6.7509
   22.620    6.8352
   22.635    6.8457
   22.650    6.6877
   22.665    6.9932
   22.680    7.0248
   22.695    7.1301
   22.710    6.7720
   22.725    6.9510
   22.740    6.8773
   22.755    6.7509
   22.770    6.7088
   22.785    6.7930
   22.800    6.8668
   22.815    6.7193
   22.830    6.8562
   22.845    7.2038
   22.860    6.8246
   22.875    6.9616
   22.890    6.9089
   22.905    6.7404
   22.920    7.0774
   22.935    6.6140
   22.950    7.3512
   22.965    6.8984
   22.980    6.7509
   22.995    7.0142
   23.010    6.5613
   23.025    6.4034
   23.040    7.2670
   23.055    7.2459
   23.070    6.9721
   23.085    7.0037
   23.100    6.9194
   23.115    7.0353
   23.130    7.2143
   23.145    6.8773
   23.160    6.9616
   23.175    7.2775
   23.190    7.0669
   23.205    6.7193
   23.220    6.7404
   23.235    6.9510
   23.250    6.7930
   23.265    6.9089
   23.280    6.8878
   23.295    7.0353
   23.310    6.7088
   23.325    6.7088
   23.340    6.7615
   23.355    7.2775
   23.370    7.2459
   23.385    7.0879
   23.400    7.0142
   23.415    6.8036
   23.430    6.8141
   23.445    6.6561
   23.460    6.6456
   23.475    6.6772
   23.490    7.0037
   23.505    6.7509
   23.520    6.3823
   23.535    6.7299
   23.550    6.7509
   23.565    6.2665
   23.580    6.6035
   23.595    6.7193
   23.610    6.4982
   23.625    6.0348
   23.640    6.6351
   23.655    6.5613
   23.670    6.6351
   23.685    6.8457
   23.700    6.2454
   23.715    6.5298
   23.730    7.0037
   23.745    7.2880
   23.760    6.7404
   23.775    6.9510
   23.790    6.6983
   23.805    6.7299
   23.820    6.7404
   23.835    6.4982
   23.850    6.6245
   23.865    6.8562
   23.880    6.8668
   23.895    6.4982
   23.910    6.3612
   23.925    6.7509
   23.940    6.4982
   23.955    6.8668
   23.970    6.7404
   23.985    6.6245
   24.000    6.8036
   24.015    6.8878
   24.030    6.5403
   24.045    6.6667
   24.060    6.4560
   24.075    6.7299
   24.090    6.6561
   24.105    6.6772
   24.120    6.3823
   24.135    6.3402
   24.150    6.2981
   24.165    6.4876
   24.180    6.6351
   24.195    6.5613
   24.210    6.4876
   24.225    6.7299
   24.240    7.1301
   24.255    6.6877
   24.270    6.6772
   24.285    6.3823
   24.300    6.5719
   24.315    6.5087
   24.330    6.3928
   24.345    6.3718
   24.360    6.2454
   24.375    6.4034
   24.390    6.8984
   24.405    6.7299
   24.420    6.8352
   24.435    7.0353
   24.450    6.8141
   24.465    6.4350
   24.480    6.2454
   24.495    6.4876
   24.510    6.5929
   24.525    6.7193
   24.540    6.6983
   24.555    6.9194
   24.570    6.6561
   24.585    6.8668
   24.600    6.9510
   24.615    7.0458
   24.630    6.8352
   24.645    7.0669
   24.660    6.7509
   24.675    6.5192
   24.690    6.8457
   24.705    6.8141
   24.720    6.4876
   24.735    6.7193
   24.750    6.4666
   24.765    6.5087
   24.780    6.5824
   24.795    6.4982
   24.810    6.5192
   24.825    6.9721
   24.840    6.5192
   24.855    6.5087
   24.870    6.1611
   24.885    6.5824
   24.900    6.6456
   24.915    6.1822
   24.930    6.0453
   24.945    6.2243
   24.960    6.3191
   24.975    6.5613
   24.990    6.3718
   25.005    6.5087
   25.020    6.4034
   25.035    6.3507
   25.050    6.5298
   25.065    6.2243
   25.080    6.2138
   25.095    6.0874
   25.110    6.2033
   25.125    6.5613
   25.140    6.3928
   25.155    6.5087
   25.170    6.6035
   25.185    6.4876
   25.200    6.2349
   25.215    6.2349
   25.230    6.7615
   25.245    6.6667
   25.260    6.6983
   25.275    6.5298
   25.290    6.1927
   25.305    6.3086
   25.320    6.2770
   25.335    6.4560
   25.350    6.1295
   25.365    6.2454
   25.380    6.0979
   25.395    6.4876
   25.410    6.5087
   25.425    6.4876
   25.440    6.2875
   25.455    6.2243
   25.470    5.9610
   25.485    6.3296
   25.500    6.1295
   25.515    6.4666
   25.530    6.5508
   25.545    6.0242
   25.560    6.0137
   25.575    6.2033
   25.590    6.3823
   25.605    6.2349
   25.620    5.8241
   25.635    6.1295
   25.650    6.4876
   25.665    6.2875
   25.680    5.9294
   25.695    6.2559
   25.710    6.2033
   25.725    6.1085
   25.740    5.9926
   25.755    6.2559
   25.770    5.7820
   25.785    6.2875
   25.800    6.1401
   25.815    5.7504
   25.830    5.8557
   25.845    5.8452
   25.860    6.3086
   25.875    5.9084
   25.890    6.1401
   25.905    6.3612
   25.920    6.2243
   25.935    6.2665
   25.950    6.0242
   25.965    6.0979
   25.980    5.8557
   25.995    6.0348
   26.010    5.9926
   26.025    6.1927
   26.040    6.0979
   26.055    6.2875
   26.070    5.8241
   26.085    5.8557
   26.100    6.1927
   26.115    6.4350
   26.130    6.0137
   26.145    5.9716
   26.160    6.3402
   26.175    6.0453
   26.190    5.8978
   26.205    6.2349
   26.220    6.2033
   26.235    6.2665
   26.250    6.0348
   26.265    6.0137
   26.280    6.1611
   26.295    6.1506
   26.310    6.0979
   26.325    6.1295
   26.340    6.3086
   26.355    5.8768
   26.370    5.9505
   26.385    6.3718
   26.400    5.9084
   26.415    5.9716
   26.430    5.9400
   26.445    5.9716
   26.460    6.2559
   26.475    6.2349
   26.490    5.8978
   26.505    6.1295
   26.520    6.2559
   26.535    6.0348
   26.550    5.8557
   26.565    6.1085
   26.580    6.2875
   26.595    6.1822
   26.610    5.8241
   26.625    6.0558
   26.640    6.3191
   26.655    6.0769
   26.670    5.7399
   26.685    5.8557
   26.700    5.8873
   26.715    5.6661
   26.730    5.9294
   26.745    5.7504
   26.760    5.8662
   26.775    5.9294
   26.790    5.7715
   26.805    6.0558
   26.820    5.7715
   26.835    5.9505
   26.850    5.4871
   26.865    6.0874
   26.880    6.0558
   26.895    5.7925
   26.910    5.5924
   26.925    5.6977
   26.940    5.7083
   26.955    5.7083
   26.970    5.8768
   26.985    5.6661
   27.000    5.7925
   27.015    6.0664
   27.030    5.7083
   27.045    5.6345
   27.060    6.2559
   27.075    5.7715
   27.090    5.5187
   27.105    5.8452
   27.120    6.1611
   27.135    5.9821
   27.150    6.1822
   27.165    6.2981
   27.180    6.2033
   27.195    5.7820
   27.210    6.2243
   27.225    5.8452
   27.240    5.9189
   27.255    5.9610
   27.270    5.8031
   27.285    6.0769
   27.300    5.5608
   27.315    6.0453
   27.330    6.1506
   27.345    5.8978
   27.360    5.6451
   27.375    5.9926
   27.390    5.8557
   27.405    5.8978
   27.420    5.9821
   27.435    6.0032
   27.450    5.7399
   27.465    5.5082
   27.480    5.6767
   27.495    5.7925
   27.510    5.7609
   27.525    6.0558
   27.540    6.1401
   27.555    5.9294
   27.570    6.0453
   27.585    5.5714
   27.600    5.9505
   27.615    5.9400
   27.630    5.8978
   27.645    5.7715
   27.660    5.9610
   27.675    5.7293
   27.690    5.5819
   27.705    5.7820
   27.720    5.5714
   27.735    5.6556
   27.750    5.5819
   27.765    5.6977
   27.780    6.0137
   27.795    5.8873
   27.810    6.1611
   27.825    5.4134
   27.840    5.8978
   27.855    6.0242
   27.870    6.0664
   27.885    5.7925
   27.900    5.5608
   27.915    5.3923
   27.930    5.7820
   27.945    5.7399
   27.960    5.7399
   27.975    5.9926
   27.990    5.6872
   28.005    5.7715
   28.020    5.4660
   28.035    5.8873
   28.050    5.7293
   28.065    6.0242
   28.080    5.6556
   28.095    5.7504
   28.110    6.0348
   28.125    6.0664
   28.140    6.5087
   28.155    6.2349
   28.170    6.0769
   28.185    6.1401
   28.200    6.3086
   28.215    6.1822
   28.230    6.4455
   28.245    6.4560
   28.260    6.6140
   28.275    6.6877
   28.290    5.9084
   28.305    6.2138
   28.320    6.3296
   28.335    6.0032
   28.350    5.9189
   28.365    5.7715
   28.380    5.8557
   28.395    6.1611
   28.410    5.9716
   28.425    5.9400
   28.440    6.1717
   28.455    5.7925
   28.470    6.2770
   28.485    6.1927
   28.500    6.2033
   28.515    6.0664
   28.530    5.6977
   28.545    5.6345
   28.560    5.4344
   28.575    5.5608
   28.590    5.5292
   28.605    5.6977
   28.620    5.9610
   28.635    5.6240
   28.650    5.2870
   28.665    5.3397
   28.680    5.3818
   28.695    5.5082
   28.710    5.8136
   28.725    5.7820
   28.740    5.5924
   28.755    5.6767
   28.770    5.6767
   28.785    5.5292
   28.800    5.3607
   28.815    5.7609
   28.830    5.7293
   28.845    5.8662
   28.860    5.4028
   28.875    5.5924
   28.890    5.9294
   28.905    5.4976
   28.920    5.6661
   28.935    5.7715
   28.950    5.9926
   28.965    5.5082
   28.980    5.4660
   28.995    5.7715
   29.010    5.8241
   29.025    5.3081
   29.040    5.8136
   29.055    5.7820
   29.070    5.9400
   29.085    5.8662
   29.100    5.6135
   29.115    5.6451
   29.130    5.9821
   29.145    5.7504
   29.160    6.3612
   29.175    5.8873
   29.190    5.4028
   29.205    5.4660
   29.220    5.4450
   29.235    5.7504
   29.250    5.4450
   29.265    5.6029
   29.280    5.8136
   29.295    5.7293
   29.310    5.7504
   29.325    5.7715
   29.340    5.8978
   29.355    5.5819
   29.370    5.6977
   29.385    5.8452
   29.400    5.7609
   29.415    5.6135
   29.430    5.8662
   29.445    5.1922
   29.460    5.6872
   29.475    5.7715
   29.490    5.5819
   29.505    5.5503
   29.520    5.5924
   29.535    5.6029
   29.550    5.9084
   29.565    5.6135
   29.580    5.7609
   29.595    5.7188
   29.610    5.4344
   29.625    5.2659
   29.640    5.3397
   29.655    5.6977
   29.670    5.5503
   29.685    5.3291
   29.700    5.6345
   29.715    5.3081
   29.730    5.3081
   29.745    5.8978
   29.760    5.8452
   29.775    5.3291
   29.790    5.4134
   29.805    5.6767
   29.820    5.6451
   29.835    5.6135
   29.850    5.5924
   29.865    5.7715
   29.880    5.4134
   29.895    5.3923
   29.910    5.4976
   29.925    5.4028
   29.940    5.4871
   29.955    5.5819
   29.970    5.6029
   29.985    5.4555
   30.000    5.4766
   30.015    5.4344
   30.030    5.6661
   30.045    5.4976
   30.060    5.4871
   30.075    5.5924
   30.090    5.3923
   30.105    5.2133
   30.120    5.4239
   30.135    5.4239
   30.150    5.4344
   30.165    5.3607
   30.180    5.2975
   30.195    5.7609
   30.210    5.8873
   30.225    5.5924
   30.240    5.5503
   30.255    5.3081
   30.270    5.4450
   30.285    5.4239
   30.300    5.6451
   30.315    5.4028
   30.330    5.2870
   30.345    5.3502
   30.360    5.5924
   30.375    5.4660
   30.390    5.5292
   30.405    5.7399
   30.420    5.7609
   30.435    5.5292
   30.450    5.3712
   30.465    5.3607
   30.480    5.2133
   30.495    5.3818
   30.510    5.4344
   30.525    5.4766
   30.540    5.2343
   30.555    5.2343
   30.570    5.0764
   30.585    5.2765
   30.600    5.4555
   30.615    5.4976
   30.630    5.5503
   30.645    5.4239
   30.660    5.5503
   30.675    5.7925
   30.690    5.4766
   30.705    5.4976
   30.720    5.0974
   30.735    5.5398
   30.750    5.5187
   30.765    5.6451
   30.780    5.1711
   30.795    5.2659
   30.810    5.5398
   30.825    5.4555
   30.840    5.4871
   30.855    5.1185
   30.870    5.4555
   30.885    5.4660
   30.900    5.5924
   30.915    5.3081
   30.930    5.2554
   30.945    5.3712
   30.960    5.0448
   30.975    5.0658
   30.990    5.2449
   31.005    5.2343
   31.020    5.3291
   31.035    5.2659
   31.050    5.4555
   31.065    5.3923
   31.080    5.3291
   31.095    5.3607
   31.110    5.6240
   31.125    5.4555
   31.140    5.0974
   31.155    5.1080
   31.170    5.3291
   31.185    5.4344
   31.200    5.4976
   31.215    5.6451
   31.230    5.3607
   31.245    5.3502
   31.260    5.6661
   31.275    5.4555
   31.290    5.1290
   31.305    5.4344
   31.320    5.2554
   31.335    5.2975
   31.350    5.2870
   31.365    5.2343
   31.380    5.5082
   31.395    5.5503
   31.410    5.3502
   31.425    5.6135
   31.440    5.5924
   31.455    5.3291
   31.470    5.4871
   31.485    5.7083
   31.500    5.5187
   31.515    5.3607
   31.530    5.1395
   31.545    5.2238
   31.560    5.5924
   31.575    5.3502
   31.590    5.4450
   31.605    5.6029
   31.620    5.4028
   31.635    5.4766
   31.650    5.5608
   31.665    5.4344
   31.680    5.5187
   31.695    5.2554
   31.710    5.4134
   31.725    5.2975
   31.740    5.6556
   31.755    5.6872
   31.770    5.5714
   31.785    5.4660
   31.800    5.9610
   31.815    5.6135
   31.830    5.6240
   31.845    5.3923
   31.860    5.4660
   31.875    5.2659
   31.890    4.9289
   31.905    5.5398
   31.920    5.5082
   31.935    5.5292
   31.950    5.4028
   31.965    5.1395
   31.980    5.7083
   31.995    5.7504
   32.010    5.6029
   32.025    5.4660
   32.040    5.8768
   32.055    5.6872
   32.070    5.5608
   32.085    5.4976
   32.100    5.7083
   32.115    5.4450
   32.130    5.1922
   32.145    5.1817
   32.160    5.6661
   32.175    5.2870
   32.190    5.3081
   32.205    5.2975
   32.220    5.2343
   32.235    5.0237
   32.250    5.4134
   32.265    5.0658
   32.280    5.7293
   32.295    5.6451
   32.310    5.5187
   32.325    5.4028
   32.340    4.9184
   32.355    5.2343
   32.370    5.5503
   32.385    5.3186
   32.400    5.1185
   32.415    5.3186
   32.430    5.3818
   32.445    5.4450
   32.460    5.1606
   32.475    5.4450
   32.490    5.4976
   32.505    5.3081
   32.520    5.4450
   32.535    5.2133
   32.550    5.1185
   32.565    5.2133
   32.580    5.2133
   32.595    5.0974
   32.610    5.0448
   32.625    4.8868
   32.640    5.4028
   32.655    5.3186
   32.670    5.1922
   32.685    5.1817
   32.700    4.9816
   32.715    5.1080
   32.730    5.0658
   32.745    5.2554
   32.760    5.3818
   32.775    5.0869
   32.790    5.2975
   32.805    5.2554
   32.820    5.4028
   32.835    5.2659
   32.850    5.2659
   32.865    5.1185
   32.880    5.5398
   32.895    5.6451
   32.910    5.2133
   32.925    5.1817
   32.940    5.2765
   32.955    5.2765
   32.970    5.2343
   32.985    5.0237
   33.000    4.7077
   33.015    4.8447
   33.030    5.1817
   33.045    5.1922
   33.060    5.1606
   33.075    5.2238
   33.090    5.1606
   33.105    5.1395
   33.120    5.0974
   33.135    5.1501
   33.150    5.0448
   33.165    5.3607
   33.180    5.4134
   33.195    5.1922
   33.210    5.3818
   33.225    5.2449
   33.240    4.9500
   33.255    4.9184
   33.270    5.3607
   33.285    4.9078
   33.300    4.8868
   33.315    5.1711
   33.330    5.1817
   33.345    4.8868
   33.360    4.7920
   33.375    5.0974
   33.390    5.0132
   33.405    5.1922
   33.420    4.9605
   33.435    5.3081
   33.450    5.2765
   33.465    4.6445
   33.480    5.0448
   33.495    4.9921
   33.510    5.2027
   33.525    5.1290
   33.540    4.8657
   33.555    5.2870
   33.570    5.4028
   33.585    5.1185
   33.600    5.2765
   33.615    5.3712
   33.630    4.9816
   33.645    4.9078
   33.660    4.9184
   33.675    4.7920
   33.690    4.6024
   33.705    4.9710
   33.720    4.7604
   33.735    5.0869
   33.750    5.0448
   33.765    5.1922
   33.780    4.9289
   33.795    4.8868
   33.810    5.0553
   33.825    4.8973
   33.840    5.3186
   33.855    4.9816
   33.870    4.8763
   33.885    5.0237
   33.900    5.0764
   33.915    4.8552
   33.930    5.0026
   33.945    4.7709
   33.960    5.2027
   33.975    5.1290
   33.990    4.9710
   34.005    4.8131
   34.020    4.4023
   34.035    4.6445
   34.050    5.3186
   34.065    5.1817
   34.080    5.6029
   34.095    5.0553
   34.110    4.9710
   34.125    5.0026
   34.140    5.1501
   34.155    5.0132
   34.170    4.8657
   34.185    4.6235
   34.200    4.6761
   34.215    4.9078
   34.230    4.9921
   34.245    4.8236
   34.260    4.5814
   34.275    5.2659
   34.290    5.1080
   34.305    5.0026
   34.320    5.1395
   34.335    4.9500
   34.350    4.8657
   34.365    4.6972
   34.380    5.0974
   34.395    5.0553
   34.410    5.1395
   34.425    4.9289
   34.440    5.0342
   34.455    4.8025
   34.470    4.8868
   34.485    5.0869
   34.500    5.0132
   34.515    5.1185
   34.530    4.9500
   34.545    5.3607
   34.560    5.1395
   34.575    4.8973
   34.590    4.8763
   34.605    4.8236
   34.620    4.9184
   34.635    4.7920
   34.650    4.6761
   34.665    5.0448
   34.680    5.1290
   34.695    4.8657
   34.710    4.5182
   34.725    4.9921
   34.740    4.7604
   34.755    4.6445
   34.770    4.6235
   34.785    5.0237
   34.800    5.0764
   34.815    4.8236
   34.830    4.7499
   34.845    4.6656
   34.860    4.6024
   34.875    4.9184
   34.890    5.0026
   34.905    4.6130
   34.920    4.7920
   34.935    4.8236
   34.950    4.8552
   34.965    4.6235
   34.980    4.8447
   34.995    4.8763
   35.010    4.7288
   35.025    4.8552
   35.040    4.5603
   35.055    4.9289
   35.070    4.7499
   35.085    5.0553
   35.100    5.1185
   35.115    4.8341
   35.130    5.1606
   35.145    5.1185
   35.160    4.8025
   35.175    4.7499
   35.190    4.9394
   35.205    4.9500
   35.220    4.5392
   35.235    4.7393
   35.250    5.1817
   35.265    4.8447
   35.280    5.3818
   35.295    4.6445
   35.310    4.8236
   35.325    4.8341
   35.340    4.8131
   35.355    4.9605
   35.370    4.8447
   35.385    5.2870
   35.400    4.9394
   35.415    5.1606
   35.430    4.8973
   35.445    4.7077
   35.460    4.7499
   35.475    4.9605
   35.490    4.7920
   35.505    5.0132
   35.520    4.7709
   35.535    4.4655
   35.550    4.7288
   35.565    4.7499
   35.580    4.7183
   35.595    4.8025
   35.610    4.6656
   35.625    4.8236
   35.640    4.7499
   35.655    4.5603
   35.670    4.8657
   35.685    4.8447
   35.700    4.9710
   35.715    4.8131
   35.730    4.9605
   35.745    5.1290
   35.760    4.9921
   35.775    4.8131
   35.790    4.8447
   35.805    5.2449
   35.820    4.8131
   35.835    4.9078
   35.850    4.5498
   35.865    4.8552
   35.880    4.6972
   35.895    4.5392
   35.910    4.6235
   35.925    4.9816
   35.940    4.6867
   35.955    4.4866
   35.970    4.6235
   35.985    4.6445
   36.000    4.6761
   36.015    4.8447
   36.030    4.6340
   36.045    4.4023
   36.060    4.7604
   36.075    4.8763
   36.090    5.0764
   36.105    4.8657
   36.120    5.1395
   36.135    4.8236
   36.150    4.8447
   36.165    4.9710
   36.180    4.9289
   36.195    4.6551
   36.210    4.9605
   36.225    4.7709
   36.240    4.6445
   36.255    4.8025
   36.270    4.6340
   36.285    4.7920
   36.300    4.8552
   36.315    4.4971
   36.330    4.3391
   36.345    4.6551
   36.360    4.6551
   36.375    4.6656
   36.390    4.5392
   36.405    4.6972
   36.420    4.7077
   36.435    4.4971
   36.450    4.4971
   36.465    4.3918
   36.480    4.7393
   36.495    4.9605
   36.510    4.5182
   36.525    4.5287
   36.540    4.8236
   36.555    4.7077
   36.570    4.4655
   36.585    4.7183
   36.600    4.6445
   36.615    4.5287
   36.630    4.4971
   36.645    4.5919
   36.660    4.6445
   36.675    4.6656
   36.690    4.6551
   36.705    4.4971
   36.720    4.5708
   36.735    4.6024
   36.750    4.6235
   36.765    5.1185
   36.780    5.1290
   36.795    4.4655
   36.810    4.8763
   36.825    4.6130
   36.840    4.7077
   36.855    4.5603
   36.870    4.7077
   36.885    4.4444
   36.900    4.5498
   36.915    4.3813
   36.930    4.6867
   36.945    4.5708
   36.960    4.6024
   36.975    4.3707
   36.990    4.6130
   37.005    4.5603
   37.020    4.7815
   37.035    4.3286
   37.050    4.5392
   37.065    4.3391
   37.080    4.8868
   37.095    4.6235
   37.110    4.7709
   37.125    4.5498
   37.140    4.8973
   37.155    4.4971
   37.170    4.3918
   37.185    4.8868
   37.200    4.5498
   37.215    4.5919
   37.230    4.5076
   37.245    4.5603
   37.260    4.7077
   37.275    4.8552
   37.290    4.5287
   37.305    4.6024
   37.320    4.2865
   37.335    4.5708
   37.350    4.6340
   37.365    4.6551
   37.380    4.7604
   37.395    4.4128
   37.410    4.5392
   37.425    4.2970
   37.440    4.5287
   37.455    4.6972
   37.470    4.4760
   37.485    4.7499
   37.500    4.4339
   37.515    4.6445
   37.530    4.5603
   37.545    4.5287
   37.560    4.6130
   37.575    4.6761
   37.590    4.6972
   37.605    4.8236
   37.620    4.3918
   37.635    4.2022
   37.650    4.2654
   37.665    4.4444
   37.680    4.8236
   37.695    4.6235
   37.710    4.7183
   37.725    4.6656
   37.740    4.5182
   37.755    4.5498
   37.770    4.4234
   37.785    4.5603
   37.800    4.6130
   37.815    4.9289
   37.830    4.6445
   37.845    4.5708
   37.860    4.5287
   37.875    4.7393
   37.890    4.5392
   37.905    4.4128
   37.920    4.7183
   37.935    4.5814
   37.950    4.3497
   37.965    4.4550
   37.980    4.6130
   37.995    4.6024
   38.010    4.5498
   38.025    4.4971
   38.040    4.2443
   38.055    4.3075
   38.070    4.6235
   38.085    4.5498
   38.100    4.4866
   38.115    4.5392
   38.130    4.3181
   38.145    4.7499
   38.160    4.8025
   38.175    4.3497
   38.190    4.4760
   38.205    4.7499
   38.220    4.6761
   38.235    4.5392
   38.250    4.2970
   38.265    4.7815
   38.280    4.8131
   38.295    4.6235
   38.310    4.5076
   38.325    4.4234
   38.340    4.0969
   38.355    4.3075
   38.370    4.9500
   38.385    4.6024
   38.400    4.4866
   38.415    4.4339
   38.430    4.2127
   38.445    4.3602
   38.460    4.3918
   38.475    4.5708
   38.490    4.5076
   38.505    4.7393
   38.520    4.4866
   38.535    4.3497
   38.550    4.3707
   38.565    4.2549
   38.580    4.7183
   38.595    4.3497
   38.610    4.3391
   38.625    4.0232
   38.640    4.6972
   38.655    4.8973
   38.670    4.6024
   38.685    4.6130
   38.700    4.3497
   38.715    4.4655
   38.730    4.5603
   38.745    4.3286
   38.760    4.5182
   38.775    4.7183
   38.790    4.7499
   38.805    4.4444
   38.820    4.6130
   38.835    4.7288
   38.850    4.4760
   38.865    4.6972
   38.880    4.6445
   38.895    4.3707
   38.910    4.5287
   38.925    4.2549
   38.940    4.4866
   38.955    4.5182
   38.970    4.2338
   38.985    4.8341
   39.000    4.4971
   39.015    4.7393
   39.030    4.4971
   39.045    4.4128
   39.060    4.3602
   39.075    4.8447
   39.090    4.4444
   39.105    4.3075
   39.120    4.3075
   39.135    4.4971
   39.150    4.6761
   39.165    4.6445
   39.180    4.6972
   39.195    4.5919
   39.210    4.2970
   39.225    4.6867
   39.240    4.7920
   39.255    4.4234
   39.270    4.5287
   39.285    4.7709
   39.300    4.5076
   39.315    4.4023
   39.330    4.6656
   39.345    4.6656
   39.360    4.6445
   39.375    4.7604
   39.390    4.5076
   39.405    4.4550
   39.420    4.5603
   39.435    4.8973
   39.450    4.6445
   39.465    4.9289
   39.480    4.9394
   39.495    4.4550
   39.510    4.6130
   39.525    4.6130
   39.540    4.5287
   39.555    4.3286
   39.570    4.1706
   39.585    4.5182
   39.600    4.4971
   39.615    4.4339
   39.630    4.6235
   39.645    4.5708
   39.660    4.3391
   39.675    4.4339
   39.690    4.4971
   39.705    4.4339
   39.720    4.6867
   39.735    4.2970
   39.750    4.5498
   39.765    4.3075
   39.780    4.6024
   39.795    4.6656
   39.810    4.6340
   39.825    4.4444
   39.840    4.3286
   39.855    4.4444
   39.870    4.2233
   39.885    4.6551
   39.900    4.6445
   39.915    4.4128
   39.930    4.8973
   39.945    4.6761
   39.960    4.4444
   39.975    4.0337
   39.990    4.1601
