    1.500    4.4760
    1.515    4.2233
    1.530    4.7288
    1.545    4.7920
    1.560    4.8973
    1.575    4.6340
    1.590    4.2549
    1.605    4.2865
    1.620    4.3707
    1.635    4.4023
    1.650    4.1496
    1.665    4.2549
    1.680    4.2022
    1.695    4.2970
    1.710    4.3391
    1.725    4.0442
    1.740    3.9494
    1.755    4.2759
    1.770    4.1601
    1.785    4.0442
    1.800    3.8863
    1.815    4.1390
    1.830    4.0758
    1.845    4.1285
    1.860    4.2549
    1.875    4.0126
    1.890    4.1496
    1.905    4.1601
    1.920    3.9600
    1.935    4.1180
    1.950    3.6651
    1.965    3.6546
    1.980    3.7915
    1.995    3.9705
    2.010    3.9600
    2.025    4.0337
    2.040    4.1390
    2.055    3.8336
    2.070    3.9494
    2.085    3.8547
    2.100    3.8968
    2.115    3.7915
    2.130    3.7915
    2.145    3.9073
    2.160    3.7177
    2.175    3.8231
    2.190    3.8125
    2.205    3.5914
    2.220    3.5282
    2.235    3.8441
    2.250    3.6651
    2.265    3.6967
    2.280    3.8547
    2.295    3.8020
    2.310    3.6230
    2.325    3.4966
    2.340    3.8125
    2.355    3.3175
    2.370    3.8020
    2.385    3.7283
    2.400    3.6335
    2.415    3.7915
    2.430    3.9916
    2.445    3.7388
    2.460    3.6230
    2.475    3.9284
    2.490    3.6546
    2.505    3.4966
    2.520    3.7283
    2.535    3.8441
    2.550    3.5598
    2.565    3.7388
    2.580    3.6862
    2.595    3.8863
    2.610    3.5703
    2.625    3.6967
    2.640    3.8125
    2.655    3.9179
    2.670    4.0653
    2.685    3.4966
    2.700    3.8231
    2.715    3.8968
    2.730    3.7072
    2.745    3.6967
    2.760    4.0232
    2.775    3.7388
    2.790    3.5914
    2.805    3.6440
    2.820    3.6967
    2.835    3.4966
    2.850    3.6862
    2.865    3.5703
    2.880    3.5808
    2.895    3.6546
    2.910    3.6862
    2.925    3.6124
    2.940    3.6756
    2.955    3.7283
    2.970    3.7599
    2.985    3.8231
    3.000    3.8652
    3.015    3.7915
    3.030    3.6124
    3.045    3.6651
    3.060    3.6124
    3.075    3.7283
    3.090    3.4966
    3.105    3.6019
    3.120    3.8336
    3.135    3.6651
    3.150    3.6546
    3.165    3.6335
    3.180    3.7915
    3.195    3.7915
    3.210    4.0864
    3.225    3.7388
    3.240    3.4544
    3.255    3.6230
    3.270    3.7072
    3.285    3.8020
    3.300    3.6230
    3.315    4.0969
    3.330    3.9494
    3.345    3.3491
    3.360    3.4860
    3.375    3.6546
    3.390    3.5703
    3.405    3.8757
    3.420    3.9073
    3.435    3.6756
    3.450    3.7177
    3.465    3.6967
    3.480    3.5914
    3.495    3.6230
    3.510    3.5703
    3.525    3.5387
    3.540    3.9073
    3.555    3.7493
    3.570    3.7493
    3.585    4.0442
    3.600    3.6440
    3.615    3.7177
    3.630    3.8020
    3.645    4.0126
    3.660    4.2022
    3.675    3.8968
    3.690    3.7704
    3.705    3.8125
    3.720    3.8757
    3.735    4.0337
    3.750    4.0021
    3.765    3.7388
    3.780    3.8441
    3.795    4.0653
    3.810    4.1917
    3.825    3.8441
    3.840    4.2443
    3.855    4.4655
    3.870    4.1811
    3.885    3.9284
    3.900    4.0126
    3.915    4.1285
    3.930    3.4966
    3.945    3.5914
    3.960    3.8020
    3.975    3.6967
    3.990    3.7915
    4.005    3.6335
    4.020    3.8020
    4.035    3.6651
    4.050    3.2438
    4.065    3.4860
    4.080    3.8125
    4.095    3.5598
    4.110    3.4544
    4.125    3.5071
    4.140    3.6651
    4.155    3.3281
    4.170    3.2649
    4.185    3.3281
    4.200    3.4123
    4.215    3.6546
    4.230    3.6967
    4.245    3.7072
    4.260    3.3491
    4.275    3.6546
    4.290    3.5492
    4.305    3.2333
    4.320    3.5071
    4.335    3.4966
    4.350    3.4018
    4.365    3.3807
    4.380    3.6019
    4.395    3.5492
    4.410    3.6019
    4.425    3.5387
    4.440    3.8125
    4.455    3.5387
    4.470    3.7283
    4.485    3.3386
    4.500    3.1174
    4.515    3.1069
    4.530    3.6651
    4.545    3.3807
    4.560    3.7388
    4.575    3.8125
    4.590    3.6124
    4.605    3.6019
    4.620    3.3386
    4.635    3.6440
    4.650    3.1280
    4.665    3.1912
    4.680    3.4018
    4.695    3.6967
    4.710    3.4334
    4.725    3.2859
    4.740    3.3913
    4.755    3.6862
    4.770    3.2333
    4.785    3.6440
    4.800    3.4755
    4.815    3.3807
    4.830    3.4966
    4.845    3.5071
    4.860    3.3702
    4.875    3.2543
    4.890    3.6756
    4.905    3.7177
    4.920    3.2754
    4.935    3.2543
    4.950    3.5176
    4.965    3.6124
    4.980    3.7809
    4.995    3.5176
    5.010    3.4755
    5.025    3.6756
    5.040    3.2438
    5.055    3.6019
    5.070    3.3913
    5.085    3.3281
    5.100    3.2754
    5.115    3.4755
    5.130    3.7177
    5.145    3.3702
    5.160    3.2754
    5.175    3.2965
    5.190    3.6124
    5.205    3.6862
    5.220    3.3807
    5.235    3.6651
    5.250    3.6124
    5.265    3.4755
    5.280    3.5282
    5.295    3.5176
    5.310    3.3386
    5.325    3.4123
    5.340    3.8652
    5.355    3.2543
    5.370    3.4439
    5.385    3.4966
    5.400    3.6862
    5.415    3.6019
    5.430    3.4018
    5.445    3.2333
    5.460    3.5598
    5.475    3.7072
    5.490    3.8020
    5.505    3.7493
    5.520    3.4544
    5.535    3.7388
    5.550    3.7809
    5.565    3.5071
    5.580    3.4544
    5.595    3.3175
    5.610    3.2859
    5.625    3.2227
    5.640    3.5914
    5.655    3.2965
    5.670    3.4018
    5.685    3.3807
    5.700    3.4544
    5.715    3.4966
    5.730    3.5492
    5.745    3.5492
    5.760    3.3597
    5.775    3.6651
    5.790    3.6546
    5.805    3.4650
    5.820    3.3281
    5.835    3.4544
    5.850    3.2965
    5.865    3.5492
    5.880    3.7493
    5.895    3.7493
    5.910    3.4966
    5.925    3.5282
    5.940    3.3281
    5.955    3.5808
    5.970    3.6124
    5.985    3.4334
    6.000    3.2859
    6.015    3.4229
    6.030    3.6651
    6.045    3.7177
    6.060    3.6651
    6.075    3.8441
    6.090    3.4966
    6.105    3.6019
    6.120    3.6967
    6.135    3.6019
    6.150    3.7809
    6.165    3.5492
    6.180    3.5703
    6.195    3.6862
    6.210    3.5492
    6.225    3.4650
    6.240    3.4544
    6.255    3.6756
    6.270    3.6440
    6.285    3.5492
    6.300    3.7704
    6.315    3.8652
    6.330    3.4860
    6.345    3.5808
    6.360    3.5282
    6.375    3.7072
    6.390    3.6862
    6.405    3.7177
    6.420    3.5176
    6.435    3.8020
    6.450    3.6967
    6.465    3.4123
    6.480    3.4439
    6.495    3.3702
    6.510    3.4966
    6.525    3.7283
    6.540    3.7704
    6.555    3.6124
    6.570    3.5176
    6.585    3.6335
    6.600    3.5808
    6.615    3.6756
    6.630    3.6546
    6.645    3.5282
    6.660    3.7599
    6.675    3.6546
    6.690    3.7177
    6.705    3.7388
    6.720    3.8652
    6.735    3.9600
    6.750    3.4544
    6.765    3.5703
    6.780    3.4755
    6.795    3.9073
    6.810    3.7072
    6.825    3.7704
    6.840    3.7072
    6.855    3.8547
    6.870    3.7388
    6.885    3.7177
    6.900    3.6756
    6.915    3.7599
    6.930    3.6019
    6.945    3.4229
    6.960    3.4544
    6.975    3.6862
    6.990    3.6756
    7.005    3.6019
    7.020    3.4966
    7.035    3.6862
    7.050    3.9179
    7.065    3.7177
    7.080    3.2438
    7.095    3.5387
    7.110    3.6546
    7.125    3.7283
    7.140    3.8336
    7.155    3.3597
    7.170    3.3913
    7.185    3.4650
    7.200    3.6124
    7.215    3.6440
    7.230    3.8547
    7.245    3.9179
    7.260    3.4650
    7.275    3.4334
    7.290    3.3807
    7.305    3.4334
    7.320    3.6651
    7.335    3.4439
    7.350    3.5914
    7.365    3.5598
    7.380    3.6862
    7.395    3.6124
    7.410    3.4860
    7.425    3.6546
    7.440    3.7283
    7.455    3.7072
    7.470    3.7704
    7.485    3.7177
    7.500    3.9705
    7.515    3.4334
    7.530    3.9916
    7.545    4.0653
    7.560    3.8547
    7.575    3.5808
    7.590    3.3702
    7.605    3.3281
    7.620    3.5282
    7.635    3.5598
    7.650    3.5598
    7.665    3.6019
    7.680    3.7704
    7.695    4.0232
    7.710    4.1601
    7.725    3.5703
    7.740    3.7072
    7.755    3.6862
    7.770    3.9705
    7.785    3.7072
    7.800    3.6546
    7.815    3.6546
    7.830    3.9389
    7.845    4.2022
    7.860    3.8968
    7.875    3.8020
    7.890    3.5598
    7.905    3.8020
    7.920    3.8863
    7.935    3.8441
    7.950    3.6019
    7.965    3.6335
    7.980    3.7599
    7.995    3.9073
    8.010    3.9705
    8.025    3.7599
    8.040    3.6756
    8.055    3.9284
    8.070    3.9494
    8.085    3.8125
    8.100    3.7177
    8.115    4.0126
    8.130    3.6546
    8.145    3.7283
    8.160    3.5176
    8.175    3.9179
    8.190    3.8231
    8.205    3.7599
    8.220    3.8652
    8.235    3.7493
    8.250    4.1180
    8.265    4.0126
    8.280    3.9389
    8.295    3.7704
    8.310    3.8020
    8.325    3.8125
    8.340    4.0126
    8.355    4.0442
    8.370    4.0969
    8.385    3.8020
    8.400    3.7493
    8.415    3.8968
    8.430    3.9494
    8.445    3.7493
    8.460    3.7072
    8.475    3.5598
    8.490    4.0021
    8.505    3.9179
    8.520    3.9494
    8.535    3.7599
    8.550    3.8547
    8.565    4.0337
    8.580    3.8441
    8.595    3.7388
    8.610    3.9810
    8.625    3.8441
    8.640    3.7704
    8.655    3.8547
    8.670    3.9389
    8.685    3.8968
    8.700    3.9494
    8.715    4.0758
    8.730    3.9284
    8.745    3.9389
    8.760    3.7704
    8.775    3.7072
    8.790    3.9705
    8.805    4.1496
    8.820    4.1601
    8.835    3.8231
    8.850    3.9284
    8.865    3.9494
    8.880    4.0126
    8.895    3.9810
    8.910    3.9494
    8.925    3.9389
    8.940    3.8757
    8.955    3.8125
    8.970    3.8757
    8.985    3.9916
    9.000    3.8968
    9.015    4.0126
    9.030    4.1285
    9.045    3.9810
    9.060    3.8652
    9.075    3.9705
    9.090    3.9600
    9.105    3.8336
    9.120    3.8652
    9.135    3.9284
    9.150    3.9705
    9.165    4.0864
    9.180    4.2022
    9.195    4.0548
    9.210    3.8231
    9.225    3.8547
    9.240    3.9810
    9.255    3.8863
    9.270    4.0021
    9.285    4.0442
    9.300    4.0021
    9.315    4.0864
    9.330    3.9600
    9.345    3.9179
    9.360    4.4971
    9.375    4.3075
    9.390    3.9073
    9.405    3.9284
    9.420    4.2759
    9.435    4.1811
    9.450    4.2759
    9.465    4.0548
    9.480    4.1074
    9.495    4.2654
    9.510    4.3181
    9.525    4.2443
    9.540    4.5814
    9.555    4.5498
    9.570    4.5814
    9.585    4.4655
    9.600    4.2443
    9.615    4.0758
    9.630    4.1917
    9.645    4.2022
    9.660    4.0969
    9.675    3.9494
    9.690    4.0126
    9.705    4.0442
    9.720    3.8547
    9.735    3.8125
    9.750    4.2338
    9.765    4.4866
    9.780    4.1074
    9.795    4.2654
    9.810    4.3813
    9.825    4.2443
    9.840    4.1496
    9.855    4.3075
    9.870    4.1706
    9.885    4.3813
    9.900    4.2865
    9.915    4.1285
    9.930    4.1180
    9.945    4.4023
    9.960    4.3602
    9.975    4.1917
    9.990    4.0442
   10.005    4.0758
   10.020    4.5603
   10.035    4.0653
   10.050    4.3181
   10.065    4.2338
   10.080    4.4234
   10.095    4.4128
   10.110    4.2233
   10.125    4.2970
   10.140    4.2127
   10.155    4.3497
   10.170    4.0337
   10.185    4.4128
   10.200    4.4128
   10.215    4.8341
   10.230    4.6340
   10.245    4.1706
   10.260    4.7077
   10.275    4.5498
   10.290    4.8131
   10.305    4.4234
   10.320    4.2865
   10.335    4.3918
   10.350    4.2443
   10.365    4.5814
   10.380    4.7183
   10.395    4.5076
   10.410    4.3918
   10.425    4.5498
   10.440    4.4550
   10.455    4.2759
   10.470    4.3918
   10.485    4.4023
   10.500    4.5919
   10.515    4.9289
   10.530    4.6130
   10.545    4.5603
   10.560    4.2443
   10.575    4.4971
   10.590    4.3286
   10.605    4.4128
   10.620    4.1706
   10.635    4.2233
   10.650    4.1496
   10.665    4.1180
   10.680    4.1390
   10.695    4.4444
   10.710    4.4128
   10.725    4.4339
   10.740    4.3813
   10.755    4.6972
   10.770    4.6130
   10.785    4.5392
   10.800    4.4128
   10.815    4.2865
   10.830    4.2443
   10.845    4.4655
   10.860    4.6024
   10.875    4.5919
   10.890    4.3286
   10.905    4.5814
   10.920    4.9605
   10.935    4.7393
   10.950    4.5708
   10.965    4.6761
   10.980    4.7183
   10.995    4.9184
   11.010    4.8236
   11.025    4.5919
   11.040    4.6445
   11.055    4.7077
   11.070    4.6972
   11.085    4.8341
   11.100    4.6656
   11.115    4.6130
   11.130    4.7077
   11.145    4.8763
   11.160    4.5919
   11.175    4.6972
   11.190    4.6340
   11.205    4.9184
   11.220    4.4760
   11.235    4.6656
   11.250    4.6340
   11.265    4.9289
   11.280    4.4444
   11.295    4.5287
   11.310    4.6867
   11.325    4.3918
   11.340    5.0132
   11.355    4.8657
   11.370    4.6024
   11.385    4.8657
   11.400    4.7288
   11.415    5.0764
   11.430    4.6024
   11.445    4.8552
   11.460    4.9078
   11.475    4.8131
   11.490    4.9500
   11.505    4.7815
   11.520    4.6340
   11.535    4.8236
   11.550    4.8131
   11.565    4.9921
   11.580    4.9289
   11.595    4.6235
   11.610    4.9289
   11.625    4.6656
   11.640    5.0553
   11.655    4.6130
   11.670    4.8131
   11.685    5.2554
   11.700    4.9710
   11.715    4.9921
   11.730    4.8131
   11.745    4.8236
   11.760    4.6340
   11.775    4.7183
   11.790    4.7709
   11.805    5.1711
   11.820    5.2343
   11.835    4.9816
   11.850    4.7288
   11.865    4.8657
   11.880    4.9078
   11.895    5.0869
   11.910    4.9500
   11.925    5.1711
   11.940    4.6656
   11.955    5.1501
   11.970    5.3186
   11.985    4.9184
   12.000    4.9394
   12.015    5.1080
   12.030    5.1606
   12.045    5.2554
   12.060    5.2765
   12.075    4.8763
   12.090    4.9921
   12.105    5.0869
   12.120    5.0974
   12.135    4.9921
   12.150    5.1817
   12.165    5.1922
   12.180    4.8973
   12.195    4.9816
   12.210    4.8763
   12.225    4.9394
   12.240    5.3818
   12.255    5.3712
   12.270    5.0448
   12.285    5.2027
   12.300    5.2027
   12.315    5.3923
   12.330    5.6345
   12.345    4.9710
   12.360    4.9289
   12.375    4.9394
   12.390    4.8657
   12.405    4.9710
   12.420    4.8763
   12.435    5.0764
   12.450    5.4450
   12.465    5.0026
   12.480    5.0448
   12.495    5.2343
   12.510    5.2659
   12.525    5.2765
   12.540    5.2554
   12.555    5.3502
   12.570    5.3081
   12.585    5.2343
   12.600    5.1080
   12.615    5.5714
   12.630    5.2238
   12.645    5.2343
   12.660    5.4555
   12.675    5.2870
   12.690    5.5398
   12.705    5.6029
   12.720    5.5398
   12.735    5.1922
   12.750    5.3923
   12.765    5.2765
   12.780    5.5924
   12.795    5.1817
   12.810    5.0658
   12.825    5.3081
   12.840    5.7083
   12.855    5.6135
   12.870    5.6767
   12.885    5.6029
   12.900    5.4660
   12.915    5.1922
   12.930    5.5608
   12.945    5.8452
   12.960    5.9084
   12.975    5.7188
   12.990    5.7083
   13.005    5.6135
   13.020    5.8557
   13.035    6.2138
   13.050    6.0453
   13.065    5.4976
   13.080    5.7293
   13.095    5.8978
   13.110    6.1927
   13.125    5.9610
   13.140    5.5819
   13.155    5.4660
   13.170    5.8978
   13.185    5.8978
   13.200    5.8662
   13.215    5.9926
   13.230    5.8136
   13.245    5.7820
   13.260    5.9505
   13.275    5.5082
   13.290    6.2243
   13.305    5.9926
   13.320    6.1717
   13.335    6.0874
   13.350    6.0664
   13.365    6.2559
   13.380    6.1927
   13.395    6.0032
   13.410    5.8452
   13.425    5.7609
   13.440    5.8662
   13.455    6.0453
   13.470    6.0769
   13.485    6.2033
   13.500    6.1717
   13.515    5.9926
   13.530    5.7399
   13.545    6.0348
   13.560    6.1401
   13.575    5.7715
   13.590    5.9926
   13.605    6.0242
   13.620    5.8241
   13.635    5.8768
   13.650    6.1927
   13.665    5.7715
   13.680    6.2770
   13.695    6.4139
   13.710    6.1717
   13.725    6.3191
   13.740    6.2138
   13.755    5.8978
   13.770    6.3086
   13.785    6.1927
   13.800    6.1295
   13.815    6.2454
   13.830    6.2454
   13.845    6.5719
   13.860    6.1927
   13.875    6.4139
   13.890    6.0242
   13.905    6.2665
   13.920    6.8457
   13.935    6.7615
   13.950    6.6772
   13.965    6.5087
   13.980    6.4666
   13.995    6.2665
   14.010    6.4771
   14.025    6.6877
   14.040    6.7825
   14.055    6.5613
   14.070    6.1822
   14.085    6.2349
   14.100    6.7509
   14.115    6.6035
   14.130    6.7509
   14.145    6.6772
   14.160    7.0142
   14.175    6.9405
   14.190    6.7615
   14.205    6.9089
   14.220    6.7299
   14.235    6.7930
   14.250    6.5192
   14.265    6.3296
   14.280    6.7615
   14.295    6.9300
   14.310    6.8352
   14.325    6.8668
   14.340    7.1090
   14.355    7.0248
   14.370    7.0458
   14.385    6.8246
   14.400    6.9616
   14.415    7.2565
   14.430    7.2986
   14.445    7.0774
   14.460    6.8246
   14.475    6.8352
   14.490    7.1090
   14.505    7.4144
   14.520    7.2775
   14.535    7.0563
   14.550    6.8668
   14.565    7.1090
   14.580    7.0037
   14.595    6.4876
   14.610    7.0142
   14.625    7.3407
   14.640    7.5408
   14.655    7.5197
   14.670    7.2459
   14.685    7.2880
   14.700    7.0985
   14.715    7.3618
   14.730    7.2354
   14.745    7.5092
   14.760    7.3828
   14.775    7.5303
   14.790    7.3723
   14.805    7.4355
   14.820    7.4671
   14.835    7.8041
   14.850    7.7514
   14.865    7.2143
   14.880    7.0774
   14.895    6.9300
   14.910    7.8252
   14.925    7.4776
   14.940    7.5303
   14.955    7.4039
   14.970    7.6883
   14.985    7.4566
   15.000    7.5197
   15.015    7.4460
   15.030    7.9410
   15.045    7.6567
   15.060    7.6567
   15.075    7.7620
   15.090    7.4776
   15.105    8.2043
   15.120    7.8568
   15.135    7.7936
   15.150    7.6883
   15.165    7.9726
   15.180    7.8989
   15.195    8.1517
   15.210    8.0253
   15.225    8.0042
   15.240    8.1411
   15.255    8.0147
   15.270    8.3412
   15.285    7.6461
   15.300    7.9621
   15.315    8.4781
   15.330    8.3939
   15.345    8.2570
   15.360    8.1306
   15.375    8.6256
   15.390    8.2359
   15.405    8.0990
   15.420    8.4150
   15.435    8.6677
   15.450    8.2991
   15.465    8.1622
   15.480    8.2780
   15.495    8.3307
   15.510    8.3412
   15.525    8.4466
   15.540    9.1838
   15.555    9.2259
   15.570    9.0047
   15.585    8.5308
   15.600    8.7204
   15.615    8.5624
   15.630    8.5413
   15.645    8.5308
   15.660    8.6993
   15.675    8.4466
   15.690    8.5624
   15.705    8.5835
   15.720    9.5419
   15.735    8.9626
   15.750    8.9626
   15.765    9.1627
   15.780    8.9731
   15.795    9.0363
   15.810    9.2891
   15.825    8.7520
   15.840    8.8257
   15.855    9.4576
   15.870    9.2680
   15.885    8.4781
   15.900    9.1101
   15.915    9.1311
   15.930    9.3839
   15.945    9.3523
   15.960    9.3102
   15.975    9.3312
   15.990    9.4681
   16.005    9.5945
   16.020    9.5629
   16.035    9.0995
   16.050    9.3207
   16.065    9.2891
   16.080    9.6998
   16.095    9.4787
   16.110    9.4576
   16.125    9.6261
   16.140    9.6472
   16.155    9.7630
   16.170    9.2470
   16.185    9.2154
   16.200    9.8894
   16.215   10.2686
   16.230    9.8368
   16.245    9.9105
   16.260   10.1738
   16.275   10.3423
   16.290    9.9421
   16.305    9.6261
   16.320    9.8473
   16.335   10.0474
   16.350   10.0158
   16.365   10.1106
   16.380    9.8473
   16.395   10.2370
   16.410   10.3212
   16.425   10.2370
   16.440   10.1422
   16.455    9.9737
   16.470   10.1632
   16.485   10.2896
   16.500   10.0474
   16.515   10.6372
   16.530   10.4371
   16.545   10.3318
   16.560   10.2159
   16.575   10.1632
   16.590   10.7636
   16.605   10.2791
   16.620   10.5635
   16.635   10.6056
   16.650   10.9531
   16.665   11.0374
   16.680   10.7425
   16.695   10.6793
   16.710   10.4897
   16.725   10.7952
   16.740   10.8478
   16.755   10.8373
   16.770   11.0163
   16.785   10.8478
   16.800   10.8162
   16.815   10.9321
   16.830   11.5219
   16.845   11.6061
   16.860   11.3849
   16.875   10.7846
   16.890   11.1006
   16.905   11.1111
   16.920   11.0795
   16.935   11.2480
   16.950   11.5850
   16.965   11.8062
   16.980   12.0695
   16.995   11.2164
   17.010   11.1638
   17.025   11.3007
   17.040   11.6693
   17.055   11.8905
   17.070   11.6061
   17.085   11.5850
   17.100   12.3539
   17.115   12.1959
   17.130   12.1116
   17.145   11.8905
   17.160   11.6798
   17.175   12.0695
   17.190   11.7746
   17.205   11.9326
   17.220   11.5324
   17.235   11.6272
   17.250   11.8167
   17.265   12.0484
   17.280   12.6909
   17.295   12.4908
   17.310   11.9431
   17.325   11.5745
   17.340   12.8594
   17.355   12.6277
   17.370   12.5961
   17.385   12.2170
   17.400   12.5645
   17.415   12.6909
   17.430   12.6172
   17.445   12.4592
   17.460   12.7646
   17.475   12.6066
   17.490   12.7541
   17.505   12.6909
   17.520   12.9331
   17.535   12.8699
   17.550   12.6909
   17.565   12.4908
   17.580   12.8067
   17.595   12.9963
   17.610   12.7962
   17.625   13.2175
   17.640   13.1122
   17.655   13.4702
   17.670   12.8173
   17.685   12.8278
   17.700   12.5434
   17.715   12.5329
   17.730   13.1016
   17.745   12.7330
   17.760   12.8594
   17.775   13.0384
   17.790   13.1438
   17.805   13.9231
   17.820   13.7230
   17.835   13.0068
   17.850   13.0279
   17.865   13.7757
   17.880   13.8283
   17.895   13.7546
   17.910   14.2391
   17.925   13.1227
   17.940   13.1648
   17.955   13.3439
   17.970   13.8494
   17.985   14.0390
   18.000   14.0495
   18.015   13.4071
   18.030   13.3439
   18.045   13.7230
   18.060   13.9021
   18.075   13.6809
   18.090   13.4808
   18.105   13.9968
   18.120   13.8494
   18.135   13.7441
   18.150   14.0074
   18.165   14.2496
   18.180   13.7441
   18.195   13.8389
   18.210   14.1443
   18.225   14.6498
   18.240   14.3760
   18.255   14.3128
   18.270   14.4181
   18.285   14.8815
   18.300   14.9552
   18.315   15.0079
   18.330   14.6498
   18.345   14.0916
   18.360   13.8389
   18.375   14.3760
   18.390   14.2075
   18.405   14.3865
   18.420   14.6814
   18.435   14.8289
   18.450   14.4813
   18.465   14.7025
   18.480   14.1654
   18.495   14.5550
   18.510   14.7657
   18.525   14.2707
   18.540   14.5972
   18.555   14.7657
   18.570   14.8394
   18.585   14.6498
   18.600   15.0816
   18.615   14.2496
   18.630   14.1548
   18.645   15.1764
   18.660   15.5977
   18.675   14.4813
   18.690   14.2075
   18.705   14.6498
   18.720   14.8920
   18.735   15.0606
   18.750   14.5972
   18.765   15.5661
   18.780   14.9026
   18.795   14.7235
   18.810   14.6709
   18.825   14.8499
   18.840   14.7341
   18.855   14.3655
   18.870   14.5656
   18.885   15.3449
   18.900   14.8394
   18.915   14.6709
   18.930   15.1343
   18.945   15.5661
   18.960   15.0395
   18.975   14.5866
   18.990   15.1975
   19.005   14.8499
   19.020   14.8078
   19.035   15.2923
   19.050   14.9763
   19.065   14.5656
   19.080   15.3449
   19.095   15.5872
   19.110   15.2396
   19.125   15.0500
   19.140   15.1975
   19.155   15.1343
   19.170   15.3239
   19.185   14.9026
   19.200   14.6603
   19.215   14.8710
   19.230   15.3344
   19.245   15.1553
   19.260   14.9868
   19.275   14.4497
   19.290   14.6814
   19.305   15.3765
   19.320   15.2185
   19.335   15.2396
   19.350   15.3765
   19.365   15.0395
   19.380   14.9026
   19.395   14.8815
   19.410   15.3239
   19.425   15.8294
   19.440   15.6503
   19.455   15.3449
   19.470   15.3870
   19.485   15.1869
   19.500   14.9552
   19.515   15.3239
   19.530   15.5766
   19.545   15.3660
   19.560   15.0816
   19.575   14.4497
   19.590   14.1864
   19.605   15.2080
   19.620   15.3976
   19.635   14.7657
   19.650   14.5445
   19.665   15.2185
   19.680   14.6077
   19.695   14.9552
   19.710   15.3344
   19.725   14.9974
   19.740   15.5661
   19.755   15.1027
   19.770   15.4608
   19.785   15.3028
   19.800   15.4081
   19.815   15.5872
   19.830   15.3028
   19.845   15.4186
   19.860   14.6709
   19.875   14.8815
   19.890   14.7025
   19.905   15.0816
   19.920   15.3765
   19.935   15.1448
   19.950   15.2923
   19.965   15.4292
   19.980   15.3976
   19.995   15.1869
   20.010   15.5345
   20.025   14.7341
   20.040   14.7446
   20.055   14.9131
   20.070   15.5556
   20.085   15.0290
   20.100   15.1659
   20.115   14.6498
   20.130   14.7130
   20.145   14.7657
   20.160   14.7446
   20.175   14.7446
   20.190   14.4286
   20.205   14.8078
   20.220   15.1448
   20.235   14.3023
   20.250   14.3760
   20.265   15.2080
   20.280   14.5972
   20.295   14.4708
   20.310   15.1132
   20.325   15.2607
   20.340   14.7341
   20.355   14.5024
   20.370   14.9026
   20.385   14.7551
   20.400   14.6603
   20.415   14.6919
   20.430   14.2917
   20.445   14.0600
   20.460   14.6814
   20.475   14.6182
   20.490   14.7973
   20.505   14.4497
   20.520   14.4708
   20.535   14.1654
   20.550   14.4708
   20.565   14.2075
   20.580   14.4181
   20.595   15.1659
   20.610   14.8078
   20.625   14.3444
   20.640   14.3339
   20.655   14.7551
   20.670   14.3339
   20.685   14.5550
   20.700   13.4702
   20.715   14.0284
   20.730   14.1443
   20.745   14.7657
   20.760   14.2601
   20.775   13.9652
   20.790   14.3655
   20.805   14.8605
   20.820   14.4181
   20.835   14.1759
   20.850   13.5334
   20.865   13.8073
   20.880   14.6182
   20.895   14.0706
   20.910   13.6914
   20.925   13.6493
   20.940   13.9547
   20.955   14.5972
   20.970   14.3549
   20.985   13.9337
   21.000   13.9968
   21.015   13.7019
   21.030   13.9231
   21.045   14.2075
   21.060   13.6282
   21.075   13.4597
   21.090   13.3439
   21.105   13.5124
   21.120   14.4918
   21.135   13.9337
   21.150   13.7230
   21.165   13.7335
   21.180   13.5440
   21.195   13.4808
   21.210   13.9547
   21.225   13.5440
   21.240   13.8389
   21.255   13.8178
   21.270   13.7230
   21.285   13.0911
   21.300   13.2912
   21.315   13.4597
   21.330   12.7646
   21.345   13.1016
   21.360   13.6177
   21.375   13.7019
   21.390   14.0811
   21.405   13.3544
   21.420   13.4387
   21.435   13.4808
   21.450   13.7335
   21.465   13.3544
   21.480   13.5650
   21.495   13.2807
   21.510   13.6809
   21.525   13.9968
   21.540   13.3439
   21.555   13.0279
   21.570   13.4387
   21.585   13.1648
   21.600   12.9542
   21.615   13.0700
   21.630   13.0700
   21.645   12.6066
   21.660   13.0279
   21.675   12.8383
   21.690   12.6804
   21.705   13.3333
   21.720   13.0806
   21.735   12.8489
   21.750   13.3228
   21.765   13.0068
   21.780   13.2280
   21.795   12.7646
   21.810   13.5018
   21.825   13.5756
   21.840   13.1227
   21.855   12.8489
   21.870   12.9331
   21.885   13.1859
   21.900   12.5856
   21.915   12.8594
   21.930   13.1016
   21.945   12.6066
   21.960   12.5434
   21.975   12.7857
   21.990   12.7962
   22.005   13.0595
   22.020   12.5645
   22.035   12.6066
   22.050   12.4908
   22.065   12.2380
   22.080   12.2801
   22.095   12.3644
   22.110   12.1854
   22.125   12.4065
   22.140   12.3328
   22.155   12.4487
   22.170   12.6172
   22.185   11.8483
   22.200   12.4803
   22.215   12.4908
   22.230   12.1222
   22.245   12.6593
   22.260   12.1748
   22.275   12.6593
   22.290   12.7330
   22.305   12.8489
   22.320   12.2591
   22.335   12.6804
   22.350   12.5224
   22.365   12.2696
   22.380   12.2907
   22.395   12.1011
   22.410   11.9642
   22.425   12.3223
   22.440   12.4803
   22.455   12.8173
   22.470   12.5434
   22.485   12.9858
   22.500   12.8699
   22.515   12.5329
   22.530   12.8383
   22.545   12.4171
   22.560   11.6588
   22.575   11.8062
   22.590   11.2480
   22.605   11.7536
   22.620   11.5113
   22.635   11.9958
   22.650   11.8905
   22.665   11.5219
   22.680   11.5850
   22.695   12.0695
   22.710   11.6061
   22.725   11.2691
   22.740   11.7325
   22.755   11.4797
   22.770   11.8799
   22.785   12.2170
   22.800   11.4903
   22.815   11.5956
   22.830   12.0274
   22.845   11.6377
   22.860   11.8062
   22.875   11.5534
   22.890   11.6166
   22.905   11.8799
   22.920   11.6377
   22.935   11.7325
   22.950   12.3012
   22.965   11.7957
   22.980   11.5219
   22.995   12.0695
   23.010   11.8483
   23.025   10.9953
   23.040   11.0795
   23.055   11.7325
   23.070   11.9221
   23.085   11.5745
   23.100   11.9221
   23.115   11.0374
   23.130   11.6166
   23.145   11.3533
   23.160   11.3533
   23.175   11.2902
   23.190   11.4271
   23.205   11.2059
   23.220   11.5008
   23.235   11.8167
   23.250   11.5956
   23.265   11.7009
   23.280   11.7536
   23.295   11.1743
   23.310   11.2902
   23.325   11.1322
   23.340   10.8162
   23.355   11.1322
   23.370   11.2586
   23.385   10.8899
   23.400   10.7214
   23.415   11.0585
   23.430   11.0690
   23.445   11.2902
   23.460   11.1848
   23.475   11.4587
   23.490   11.3744
   23.505   10.9637
   23.520   10.8689
   23.535   11.0058
   23.550   11.1322
   23.565   11.7325
   23.580   11.3428
   23.595   11.0585
   23.610   10.8057
   23.625   10.7425
   23.640   10.9637
   23.655   10.6582
   23.670   10.4160
   23.685   10.7530
   23.700   10.9321
   23.715   10.4265
   23.730   10.6161
   23.745   10.8899
   23.760   10.6582
   23.775   11.1638
   23.790   11.0374
   23.805   10.4476
   23.820   10.6898
   23.835   10.2896
   23.850   10.8268
   23.865   10.5951
   23.880   10.4265
   23.895    9.9210
   23.910   10.3107
   23.925   10.6056
   23.940   10.5740
   23.955   10.4687
   23.970   11.1427
   23.985   10.4792
   24.000   10.3949
   24.015   10.5213
   24.030   10.3002
   24.045   10.5213
   24.060   10.3633
   24.075   10.3318
   24.090   10.3107
   24.105   10.5424
   24.120   10.4581
   24.135   10.5003
   24.150   10.6372
   24.165   10.6477
   24.180   10.3002
   24.195   10.5740
   24.210   10.6477
   24.225   10.7530
   24.240   10.6688
   24.255   10.0263
   24.270   10.4687
   24.285   10.6056
   24.300   10.0369
   24.315   10.0790
   24.330   10.2896
   24.345   10.5003
   24.360   10.0474
   24.375   10.4687
   24.390   10.1738
   24.405   10.1106
   24.420    9.9526
   24.435   10.0895
   24.450    9.8262
   24.465   10.1422
   24.480    9.9315
   24.495   10.0369
   24.510   10.4792
   24.525   10.3423
   24.540   10.2475
   24.555   10.2475
   24.570   10.4687
   24.585    9.8578
   24.600    9.8894
   24.615    9.8894
   24.630    9.6051
   24.645    9.7841
   24.660    9.7209
   24.675    9.6472
   24.690   10.0369
   24.705   10.0790
   24.720   10.6477
   24.735   10.2159
   24.750    9.4787
   24.765    9.5419
   24.780    9.2891
   24.795    9.8684
   24.810    9.6367
   24.825    9.5524
   24.840    9.3523
   24.855    9.9105
   24.870    9.6682
   24.885   10.1211
   24.900    9.8368
   24.915    9.9210
   24.930    9.9737
   24.945   10.2580
   24.960   10.1316
   24.975    9.7736
   24.990    9.6893
   25.005   10.0579
   25.020    9.2259
   25.035    9.7209
   25.050    9.8789
   25.065    9.5419
   25.080    9.7630
   25.095    9.7841
   25.110    9.6156
   25.125    9.8157
   25.140    9.5103
   25.155    9.2575
   25.170    9.0258
   25.185    9.5629
   25.200    9.9105
   25.215    9.7736
   25.230    9.5945
   25.245    9.7209
   25.260    9.8578
   25.275    9.7630
   25.290    9.4787
   25.305    9.3207
   25.320    9.6051
   25.335    9.4576
   25.350    9.5524
   25.365    9.4681
   25.380    9.9526
   25.395    9.6472
   25.410    9.1627
   25.425    9.2996
   25.440    9.3944
   25.455    9.2048
   25.470    9.2680
   25.485    9.4892
   25.500    9.4365
   25.515    9.7314
   25.530    9.8894
   25.545    9.3734
   25.560    9.3102
   25.575    9.4050
   25.590    9.4260
   25.605    9.2786
   25.620    8.7204
   25.635    9.0047
   25.650    9.2154
   25.665    9.0363
   25.680    8.6151
   25.695    9.0785
   25.710    8.9942
   25.725    9.4365
   25.740    9.6156
   25.755    9.5524
   25.770    9.5103
   25.785    9.6472
   25.800    9.3523
   25.815    9.0153
   25.830    9.2575
   25.845    9.5313
   25.860    9.3312
   25.875    9.1732
   25.890    9.1732
   25.905    9.3312
   25.920    9.4471
   25.935    9.0153
   25.950    9.0995
   25.965    8.7098
   25.980    8.7414
   25.995    9.1311
   26.010    8.6677
   26.025    8.5940
   26.040    8.9415
   26.055    8.8152
   26.070    9.0047
   26.085    9.1101
   26.100    8.9415
   26.115    8.6888
   26.130    8.8573
   26.145    8.7625
   26.160    8.9310
   26.175    9.2364
   26.190    8.8784
   26.205    8.8362
   26.220    8.7520
   26.235    8.7836
   26.250    8.7414
   26.265    8.5519
   26.280    9.0363
   26.295    9.0153
   26.310    9.0890
   26.325    9.2786
   26.340    9.0258
   26.355    9.1417
   26.370    8.6993
   26.385    8.7730
   26.400    8.4887
   26.415    8.4992
   26.430    8.9415
   26.445    9.4471
   26.460    9.0363
   26.475    8.6151
   26.490    8.5940
   26.505    8.6151
   26.520    8.1201
   26.535    8.8362
   26.550    9.0995
   26.565    8.9837
   26.580    8.7098
   26.595    8.2886
   26.610    8.4571
   26.625    8.6256
   26.640    8.8678
   26.655    8.5097
   26.670    8.6361
   26.685    8.7309
   26.700    8.4781
   26.715    8.5308
   26.730    8.2780
   26.745    8.6361
   26.760    8.2359
   26.775    8.4571
   26.790    8.2570
   26.805    8.8257
   26.820    8.6361
   26.835    8.9100
   26.850    8.4571
   26.865    8.2780
   26.880    8.5413
   26.895    8.5835
   26.910    8.1201
   26.925    8.0990
   26.940    8.4044
   26.955    8.2675
   26.970    8.1833
   26.985    8.5203
   27.000    8.5835
   27.015    8.9415
   27.030    8.9415
   27.045    8.6993
   27.060    8.7520
   27.075    8.1938
   27.090    8.0885
   27.105    8.4781
   27.120    8.4150
   27.135    8.4255
   27.150    8.4360
   27.165    8.3412
   27.180    8.3307
   27.195    8.5097
   27.210    8.3939
   27.225    8.6045
   27.240    8.5519
   27.255    8.0147
   27.270    8.0674
   27.285    8.2254
   27.300    8.4992
   27.315    8.6677
   27.330    8.3728
   27.345    8.2991
   27.360    8.3623
   27.375    8.1833
   27.390    8.0358
   27.405    8.1727
   27.420    8.4571
   27.435    7.6777
   27.450    7.8673
   27.465    8.2570
   27.480    8.4150
   27.495    8.3518
   27.510    8.0569
   27.525    7.9831
   27.540    8.3412
   27.555    8.0990
   27.570    8.0569
   27.585    7.8989
   27.600    7.6883
   27.615    7.9937
   27.630    8.1306
   27.645    7.8673
   27.660    8.3202
   27.675    8.5203
   27.690    7.9726
   27.705    7.4355
   27.720    7.6145
   27.735    8.1622
   27.750    7.7725
   27.765    8.1411
   27.780    8.2780
   27.795    7.9200
   27.810    8.0042
   27.825    8.0253
   27.840    8.3834
   27.855    8.3307
   27.870    7.9831
   27.885    8.1411
   27.900    7.7830
   27.915    7.5408
   27.930    7.8673
   27.945    8.0779
   27.960    8.0885
   27.975    7.6988
   27.990    7.7199
   28.005    7.9937
   28.020    7.8357
   28.035    8.0463
   28.050    8.5413
   28.065    7.6461
   28.080    7.7620
   28.095    8.0042
   28.110    8.1201
   28.125    7.6777
   28.140    7.9516
   28.155    7.8252
   28.170    7.6567
   28.185    7.8357
   28.200    7.7830
   28.215    7.6356
   28.230    7.6567
   28.245    7.5513
   28.260    7.8357
   28.275    7.5829
   28.290    7.5724
   28.305    7.4671
   28.320    7.4144
   28.335    7.5513
   28.350    7.6251
   28.365    7.5092
   28.380    7.8884
   28.395    7.6251
   28.410    7.4882
   28.425    7.4987
   28.440    7.3618
   28.455    7.6461
   28.470    7.8989
   28.485    7.8146
   28.500    7.6461
   28.515    7.5197
   28.530    7.7725
   28.545    7.9305
   28.560    7.4776
   28.575    7.6251
   28.590    7.3091
   28.605    7.6040
   28.620    7.7620
   28.635    7.6356
   28.650    7.6672
   28.665    7.5935
   28.680    7.8462
   28.695    7.2986
   28.710    7.2565
   28.725    7.4882
   28.740    7.2249
   28.755    7.4987
   28.770    7.3723
   28.785    7.2775
   28.800    7.5092
   28.815    7.5829
   28.830    7.5303
   28.845    7.8041
   28.860    7.5935
   28.875    7.4987
   28.890    7.4355
   28.905    7.1827
   28.920    7.4460
   28.935    7.6672
   28.950    7.5092
   28.965    7.4355
   28.980    7.3828
   28.995    6.9826
   29.010    7.1195
   29.025    7.5092
   29.040    7.3618
   29.055    7.1406
   29.070    7.2775
   29.085    6.9932
   29.100    7.4250
   29.115    7.3828
   29.130    6.8773
   29.145    7.2038
   29.160    7.0774
   29.175    7.3302
   29.190    7.0563
   29.205    7.0774
   29.220    7.0985
   29.235    6.9616
   29.250    6.9616
   29.265    7.0879
   29.280    7.4355
   29.295    7.2038
   29.310    7.1933
   29.325    6.8984
   29.340    6.8562
   29.355    7.1195
   29.370    7.1827
   29.385    7.2670
   29.400    7.4566
   29.415    7.0458
   29.430    7.1090
   29.445    6.9300
   29.460    7.1301
   29.475    6.9721
   29.490    6.6456
   29.505    6.7615
   29.520    7.0142
   29.535    6.7930
   29.550    6.9826
   29.565    6.8352
   29.580    6.9405
   29.595    7.2354
   29.610    6.8773
   29.625    6.7930
   29.640    6.9932
   29.655    6.7825
   29.670    6.4771
   29.685    6.8878
   29.700    7.1827
   29.715    6.8141
   29.730    6.8457
   29.745    7.0563
   29.760    6.9405
   29.775    6.6772
   29.790    6.9405
   29.805    6.8668
   29.820    6.7615
   29.835    7.0879
   29.850    6.6561
   29.865    6.5298
   29.880    6.7088
   29.895    6.6351
   29.910    7.1195
   29.925    6.9300
   29.940    6.9405
   29.955    6.5298
   29.970    7.1722
   29.985    7.1933
   30.000    6.6983
   30.015    6.9089
   30.030    7.0248
   30.045    6.9510
   30.060    6.6245
   30.075    6.7193
   30.090    6.6772
   30.105    7.0037
   30.120    6.6983
   30.135    6.9089
   30.150    6.8352
   30.165    6.7509
   30.180    6.4244
   30.195    6.4139
   30.210    6.6772
   30.225    6.9300
   30.240    7.1617
   30.255    6.6561
   30.270    6.8036
   30.285    6.6245
   30.300    6.6877
   30.315    6.5298
   30.330    6.4139
   30.345    6.7404
   30.360    6.6877
   30.375    6.6877
   30.390    6.7509
   30.405    6.9616
   30.420    6.3718
   30.435    6.2033
   30.450    6.5298
   30.465    6.5192
   30.480    6.7299
   30.495    6.6667
   30.510    6.5087
   30.525    6.4666
   30.540    6.4982
   30.555    6.5403
   30.570    6.2243
   30.585    6.1717
   30.600    6.2559
   30.615    6.5824
   30.630    6.4560
   30.645    6.6667
   30.660    6.4982
   30.675    6.3086
   30.690    6.3402
   30.705    6.5403
   30.720    6.9194
   30.735    6.4455
   30.750    6.1295
   30.765    6.4350
   30.780    6.4139
   30.795    6.3296
   30.810    6.6667
   30.825    7.0248
   30.840    6.4982
   30.855    6.3402
   30.870    6.4771
   30.885    6.3507
   30.900    6.0874
   30.915    6.1401
   30.930    6.4139
   30.945    6.2559
   30.960    6.2665
   30.975    6.3718
   30.990    6.2033
   31.005    6.3191
   31.020    6.4876
   31.035    6.3086
   31.050    6.2770
   31.065    6.4560
   31.080    6.6667
   31.095    6.7930
   31.110    6.3191
   31.125    6.2033
   31.140    6.1401
   31.155    6.3612
   31.170    6.0453
   31.185    6.0664
   31.200    6.3296
   31.215    6.3928
   31.230    6.1717
   31.245    6.0137
   31.260    6.1085
   31.275    6.2138
   31.290    6.1295
   31.305    6.3718
   31.320    6.0769
   31.335    6.8141
   31.350    6.0664
   31.365    5.9189
   31.380    6.3507
   31.395    6.1085
   31.410    6.2875
   31.425    6.1822
   31.440    6.4139
   31.455    6.0979
   31.470    6.2875
   31.485    6.1190
   31.500    6.1927
   31.515    6.0664
   31.530    6.0137
   31.545    5.7188
   31.560    6.2138
   31.575    5.9400
   31.590    5.6661
   31.605    5.8978
   31.620    5.8978
   31.635    5.7293
   31.650    5.6240
   31.665    5.9821
   31.680    6.3507
   31.695    6.0242
   31.710    5.8347
   31.725    5.7925
   31.740    6.0242
   31.755    5.7399
   31.770    5.5819
   31.785    5.6661
   31.800    5.8241
   31.815    5.7293
   31.830    5.8452
   31.845    6.0664
   31.860    5.8978
   31.875    5.8978
   31.890    5.5924
   31.905    5.7715
   31.920    5.9189
   31.935    5.7399
   31.950    5.5082
   31.965    5.9505
   31.980    6.1822
   31.995    5.8136
   32.010    5.7715
   32.025    5.8873
   32.040    5.6135
   32.055    5.6977
   32.070    5.7504
   32.085    5.6767
   32.100    5.4766
   32.115    5.8768
   32.130    5.7188
   32.145    5.5819
   32.160    5.8241
   32.175    5.4450
   32.190    5.7083
   32.205    6.0979
   32.220    5.9400
   32.235    5.6767
   32.250    5.7715
   32.265    5.5819
   32.280    5.3081
   32.295    5.9294
   32.310    6.1295
   32.325    5.6872
   32.340    5.5819
   32.355    5.6029
   32.370    5.5398
   32.385    5.3607
   32.400    5.5608
   32.415    5.5398
   32.430    5.5503
   32.445    5.3291
   32.460    5.4555
   32.475    5.3607
   32.490    5.1606
   32.505    5.3923
   32.520    5.6767
   32.535    5.4766
   32.550    5.7504
   32.565    5.3712
   32.580    5.5292
   32.595    5.2133
   32.610    5.1080
   32.625    5.5608
   32.640    5.6135
   32.655    5.5082
   32.670    5.4555
   32.685    5.2659
   32.700    5.2449
   32.715    5.5608
   32.730    5.5398
   32.745    5.3923
   32.760    5.7504
   32.775    5.6345
   32.790    5.7399
   32.805    5.5503
   32.820    5.4871
   32.835    5.2975
   32.850    5.5292
   32.865    5.6451
   32.880    5.3818
   32.895    5.2975
   32.910    5.5608
   32.925    5.4976
   32.940    5.5398
   32.955    5.2659
   32.970    5.1711
   32.985    5.2133
   33.000    5.4871
   33.015    5.5503
   33.030    5.4660
   33.045    5.1395
   33.060    5.5503
   33.075    5.5292
   33.090    5.1817
   33.105    4.9921
   33.120    5.1290
   33.135    5.4766
   33.150    5.4450
   33.165    5.3397
   33.180    5.4239
   33.195    5.1395
   33.210    5.2133
   33.225    5.0026
   33.240    4.8025
   33.255    4.8763
   33.270    5.0237
   33.285    4.8763
   33.300    5.2975
   33.315    5.1395
   33.330    5.2870
   33.345    5.3186
   33.360    5.2449
   33.375    5.2659
   33.390    5.4871
   33.405    5.0658
   33.420    5.0448
   33.435    5.2238
   33.450    5.0026
   33.465    5.1395
   33.480    5.0974
   33.495    5.1817
   33.510    5.0658
   33.525    5.2554
   33.540    5.1395
   33.555    4.9605
   33.570    4.8131
   33.585    4.7499
   33.600    4.8973
   33.615    4.8868
   33.630    5.0448
   33.645    4.8763
   33.660    5.3081
   33.675    4.9078
   33.690    4.7499
   33.705    4.8973
   33.720    4.8025
   33.735    5.0553
   33.750    5.1922
   33.765    5.2238
   33.780    4.8447
   33.795    4.5498
   33.810    4.7709
   33.825    4.4760
   33.840    4.7604
   33.855    4.9289
   33.870    4.8763
   33.885    4.7499
   33.900    4.8973
   33.915    4.8447
   33.930    4.9500
   33.945    4.7604
   33.960    4.5603
   33.975    4.9184
   33.990    4.9605
   34.005    4.8131
   34.020    4.4866
   34.035    4.5392
   34.050    4.8236
   34.065    4.8973
   34.080    4.5708
   34.095    4.5287
   34.110    4.6340
   34.125    4.8552
   34.140    4.9289
   34.155    4.8447
   34.170    4.9921
   34.185    4.4550
   34.200    4.7709
   34.215    4.7920
   34.230    4.8236
   34.245    4.9921
   34.260    4.3707
   34.275    4.7077
   34.290    4.7393
   34.305    4.8868
   34.320    4.2865
   34.335    4.3813
   34.350    4.6445
   34.365    4.6972
   34.380    4.8763
   34.395    4.5814
   34.410    4.5919
   34.425    4.4444
   34.440    4.4550
   34.455    4.5919
   34.470    4.8868
   34.485    4.3707
   34.500    4.3391
   34.515    4.5392
   34.530    4.7077
   34.545    4.7288
   34.560    4.7499
   34.575    4.7815
   34.590    4.4550
   34.605    4.7499
   34.620    4.6972
   34.635    4.4971
   34.650    4.3813
   34.665    4.4234
   34.680    4.1496
   34.695    4.2970
   34.710    4.7288
   34.725    4.3707
   34.740    4.1811
   34.755    4.2970
   34.770    4.4866
   34.785    4.6761
   34.800    4.6340
   34.815    4.2865
   34.830    4.5498
   34.845    4.8763
   34.860    4.4760
   34.875    4.4128
   34.890    4.3075
   34.905    4.2865
   34.920    4.4971
   34.935    4.3286
   34.950    4.4234
   34.965    4.6340
   34.980    4.1706
   34.995    4.4128
   35.010    4.3286
   35.025    4.3918
   35.040    4.2338
   35.055    4.5392
   35.070    4.4655
   35.085    4.5603
   35.100    4.5498
   35.115    4.5603
   35.130    4.4760
   35.145    4.6340
   35.160    4.6340
   35.175    4.5182
   35.190    4.4866
   35.205    4.3497
   35.220    4.5076
   35.235    4.3707
   35.250    4.3813
   35.265    4.3497
   35.280    4.1390
   35.295    4.1074
   35.310    4.3286
   35.325    4.1390
   35.340    4.1180
   35.355    4.1811
   35.370    4.0758
   35.385    4.3602
   35.400    4.4128
   35.415    4.1917
   35.430    4.4760
   35.445    4.2970
   35.460    4.2865
   35.475    4.4444
   35.490    4.4971
   35.505    4.2338
   35.520    4.4128
   35.535    4.1811
   35.550    4.4128
   35.565    4.2654
   35.580    4.1180
   35.595    3.9073
   35.610    4.2127
   35.625    4.2759
   35.640    4.1074
   35.655    4.3497
   35.670    4.4866
   35.685    4.2759
   35.700    3.8968
   35.715    3.9179
   35.730    4.1180
   35.745    4.2549
   35.760    4.3602
   35.775    4.3813
   35.790    4.1917
   35.805    4.1390
   35.820    4.4234
   35.835    4.1811
   35.850    4.0232
   35.865    3.9810
   35.880    4.3813
   35.895    4.6656
   35.910    4.0969
   35.925    4.1180
   35.940    4.2233
   35.955    4.1706
   35.970    3.9389
   35.985    4.1811
   36.000    4.1074
   36.015    3.8968
   36.030    3.8757
   36.045    3.9600
   36.060    4.0548
   36.075    3.9705
   36.090    4.0758
   36.105    4.3707
   36.120    4.2233
   36.135    4.0653
   36.150    4.0758
   36.165    4.1811
   36.180    3.8863
   36.195    3.9600
   36.210    3.8020
   36.225    3.9179
   36.240    4.0758
   36.255    4.3286
   36.270    3.9705
   36.285    4.0126
   36.300    4.1074
   36.315    4.0969
   36.330    4.0758
   36.345    4.2233
   36.360    3.8968
   36.375    3.9916
   36.390    4.2338
   36.405    3.9916
   36.420    4.1601
   36.435    3.8336
   36.450    4.0126
   36.465    4.1706
   36.480    3.9916
   36.495    4.0969
   36.510    3.9389
   36.525    3.8020
   36.540    3.9810
   36.555    4.1811
   36.570    4.1180
   36.585    4.2443
   36.600    4.1496
   36.615    4.1180
   36.630    3.7915
   36.645    4.3602
   36.660    4.1074
   36.675    4.0337
   36.690    4.1180
   36.705    3.8652
   36.720    4.0232
   36.735    3.6651
   36.750    3.7599
   36.765    3.8231
   36.780    3.8441
   36.795    3.7283
   36.810    3.8231
   36.825    3.8863
   36.840    4.1285
   36.855    4.1180
   36.870    3.9916
   36.885    3.9600
   36.900    3.7283
   36.915    3.7283
   36.930    3.8757
   36.945    4.0442
   36.960    3.9494
   36.975    4.1180
   36.990    3.9600
   37.005    3.6651
   37.020    3.8441
   37.035    3.9705
   37.050    3.9179
   37.065    3.9705
   37.080    3.6651
   37.095    4.0548
   37.110    3.8547
   37.125    4.0548
   37.140    3.9705
   37.155    3.9810
   37.170    4.0337
   37.185    3.7915
   37.200    3.7283
   37.215    4.0758
   37.230    3.8863
   37.245    3.7177
   37.260    3.6862
   37.275    3.8441
   37.290    3.9179
   37.305    3.8547
   37.320    3.9284
   37.335    4.0021
   37.350    4.0126
   37.365    3.7809
   37.380    4.0548
   37.395    4.2233
   37.410    3.6862
   37.425    3.4439
   37.440    3.5914
   37.455    3.7388
   37.470    3.6335
   37.485    3.6124
   37.500    3.6546
   37.515    3.8231
   37.530    3.7704
   37.545    3.8231
   37.560    3.8547
   37.575    3.6440
   37.590    3.7177
   37.605    3.8863
   37.620    3.6335
   37.635    3.9284
   37.650    3.7915
   37.665    3.5176
   37.680    3.6862
   37.695    3.9600
   37.710    3.9916
   37.725    3.7283
   37.740    3.7809
   37.755    3.8231
   37.770    3.8547
   37.785    3.8125
   37.800    3.8336
   37.815    3.8231
   37.830    3.8547
   37.845    3.7704
   37.860    3.8968
   37.875    3.9389
   37.890    3.7072
   37.905    3.5282
   37.920    3.5492
   37.935    3.5282
   37.950    3.7177
   37.965    3.7072
   37.980    3.7915
   37.995    3.6335
   38.010    3.6862
   38.025    3.7809
   38.040    3.8231
   38.055    3.8125
   38.070    3.8547
   38.085    3.5914
   38.100    3.9284
   38.115    3.6546
   38.130    3.5914
   38.145    3.7072
   38.160    3.5598
   38.175    3.8757
   38.190    3.8863
   38.205    3.8652
   38.220    3.7388
   38.235    3.7915
   38.250    3.8968
   38.265    3.6335
   38.280    3.6546
   38.295    3.6967
   38.310    3.6651
   38.325    3.8020
   38.340    3.6546
   38.355    3.8441
   38.370    3.7177
   38.385    3.7599
   38.400    3.8547
   38.415    3.5703
   38.430    3.9284
   38.445    3.8652
   38.460    4.0232
   38.475    3.7177
   38.490    3.6335
   38.505    3.3702
   38.520    3.5387
   38.535    3.7283
   38.550    3.9600
   38.565    3.7493
   38.580    3.7072
   38.595    3.4229
   38.610    3.5598
   38.625    3.7283
   38.640    3.7915
   38.655    3.6124
   38.670    3.6019
   38.685    3.7388
   38.700    3.6756
   38.715    3.2227
   38.730    3.5598
   38.745    3.6019
   38.760    3.8020
   38.775    3.3175
   38.790    3.5808
   38.805    3.7177
   38.820    3.7283
   38.835    3.7704
   38.850    3.8336
   38.865    3.4018
   38.880    3.4650
   38.895    3.6862
   38.910    3.3913
   38.925    3.5703
   38.940    3.2122
   38.955    3.3913
   38.970    3.4018
   38.985    3.6335
   39.000    3.5914
   39.015    3.5492
   39.030    3.4755
   39.045    3.4229
   39.060    3.4860
   39.075    3.8336
   39.090    3.5703
   39.105    3.9600
   39.120    3.6756
   39.135    3.7072
   39.150    3.4755
   39.165    3.7493
   39.180    3.9073
   39.195    3.6124
   39.210    3.6756
   39.225    3.6230
   39.240    3.7493
   39.255    3.6230
   39.270    3.6335
   39.285    3.5808
   39.300    3.3597
   39.315    3.4018
   39.330    3.3386
   39.345    3.4123
   39.360    3.4755
   39.375    3.7072
   39.390    3.6756
   39.405    3.4966
   39.420    3.4229
   39.435    3.5387
   39.450    3.5703
   39.465    3.3281
   39.480    3.4755
   39.495    3.7388
   39.510    3.4334
   39.525    3.4966
   39.540    3.3913
   39.555    3.6546
   39.570    3.4966
   39.585    3.4229
   39.600    3.4860
   39.615    3.5387
   39.630    3.2122
   39.645    3.2649
   39.660    3.2965
   39.675    3.5282
   39.690    3.6546
   39.705    3.5387
   39.720    3.2859
   39.735    3.5492
   39.750    3.6335
   39.765    3.2438
   39.780    3.5387
   39.795    3.5071
   39.810    3.1912
   39.825    3.4123
   39.840    3.2122
   39.855    3.4755
   39.870    3.4544
   39.885    3.5176
   39.900    3.2017
   39.915    3.4123
   39.930    3.2543
   39.945    3.5492
   39.960    3.5492
   39.975    3.4650
   39.990    3.5808
