    1.500   21.6851
    1.515   21.6114
    1.530   21.7694
    1.545   21.8957
    1.560   20.6424
    1.575   19.6630
    1.590   20.0737
    1.605   20.1369
    1.620   20.0632
    1.635   19.0100
    1.650   19.0416
    1.665   18.5361
    1.680   18.0095
    1.695   19.0943
    1.710   18.1780
    1.725   17.6725
    1.740   17.9147
    1.755   18.1359
    1.770   17.2617
    1.785   17.3565
    1.800   17.0090
    1.815   16.8194
    1.830   16.0190
    1.845   15.7662
    1.860   16.0821
    1.875   15.7873
    1.890   15.5556
    1.905   15.1975
    1.920   15.7978
    1.935   15.4502
    1.950   14.9763
    1.965   14.8078
    1.980   15.1553
    1.995   14.8605
    2.010   14.3655
    2.025   14.3233
    2.040   14.0179
    2.055   14.1969
    2.070   13.6282
    2.085   14.1548
    2.100   13.7125
    2.115   13.9547
    2.130   13.2912
    2.145   13.3965
    2.160   14.0390
    2.175   13.7967
    2.190   13.0279
    2.205   12.6488
    2.220   12.5750
    2.235   12.2907
    2.250   13.0279
    2.265   12.5750
    2.280   12.9121
    2.295   12.7962
    2.310   12.7751
    2.325   12.7962
    2.340   12.9963
    2.355   12.8383
    2.370   12.8067
    2.385   12.3855
    2.400   12.3223
    2.415   11.9431
    2.430   12.1327
    2.445   12.0063
    2.460   12.3749
    2.475   12.4065
    2.490   11.8589
    2.505   11.7220
    2.520   12.0906
    2.535   12.1748
    2.550   12.0274
    2.565   11.8378
    2.580   11.9221
    2.595   11.9853
    2.610   11.9115
    2.625   12.2591
    2.640   12.3960
    2.655   12.1854
    2.670   12.1432
    2.685   12.1011
    2.700   12.0274
    2.715   12.2591
    2.730   12.2170
    2.745   11.7852
    2.760   11.8378
    2.775   11.7641
    2.790   12.2275
    2.805   12.3749
    2.820   12.1748
    2.835   11.7641
    2.850   12.3012
    2.865   11.7536
    2.880   11.8273
    2.895   12.7225
    2.910   12.4065
    2.925   12.1854
    2.940   12.1327
    2.955   11.9431
    2.970   12.5645
    2.985   12.4065
    3.000   12.5540
    3.015   12.9437
    3.030   12.9858
    3.045   12.9753
    3.060   12.5434
    3.075   12.6488
    3.090   12.8910
    3.105   12.4803
    3.120   13.1648
    3.135   13.9758
    3.150   13.1754
    3.165   13.9442
    3.180   13.7651
    3.195   14.0811
    3.210   13.8599
    3.225   13.8810
    3.240   13.8073
    3.255   14.3655
    3.270   14.9763
    3.285   14.2917
    3.300   15.0500
    3.315   15.3239
    3.330   15.2817
    3.345   15.4081
    3.360   15.3660
    3.375   16.3349
    3.390   16.6825
    3.405   17.0616
    3.420   17.2933
    3.435   17.7883
    3.450   17.3670
    3.465   17.4092
    3.480   18.1885
    3.495   18.9889
    3.510   19.2838
    3.525   19.1785
    3.540   19.0837
    3.555   20.7478
    3.570   21.4745
    3.585   21.4534
    3.600   23.0121
    3.615   23.0121
    3.630   23.9916
    3.645   25.0132
    3.660   25.1290
    3.675   26.3507
    3.690   27.6461
    3.705   29.1101
    3.720   30.6372
    3.735   32.1643
    3.750   33.3649
    3.765   35.0922
    3.780   37.6830
    3.795   40.0316
    3.810   42.5803
    3.825   46.6983
    3.840   50.6793
    3.855   55.6293
    3.870   58.1253
    3.885   56.5561
    3.900   52.6066
    3.915   46.0032
    3.930   36.7351
    3.945   28.0779
    3.960   21.1585
    3.975   16.7246
    3.990   15.1132
    4.005   13.5440
    4.020   12.2907
    4.035   11.5113
    4.050   11.0269
    4.065   10.6688
    4.080   10.0579
    4.095   10.3739
    4.110   10.0369
    4.125   10.0790
    4.140    9.8578
    4.155    9.0995
    4.170    9.1311
    4.185    9.6577
    4.200    9.4576
    4.215    9.0153
    4.230    8.5835
    4.245    8.9837
    4.260    9.3734
    4.275    8.8362
    4.290    9.0785
    4.305    8.6783
    4.320    8.6677
    4.335    8.7520
    4.350    8.4255
    4.365    8.8784
    4.380    8.8889
    4.395    8.5519
    4.410    8.5413
    4.425    9.1311
    4.440    8.6993
    4.455    8.6045
    4.470    8.9731
    4.485    9.0153
    4.500    8.6993
    4.515    8.7836
    4.530    8.7520
    4.545    8.5519
    4.560    8.7625
    4.575    8.6572
    4.590    8.7941
    4.605    8.2886
    4.620    9.1522
    4.635    8.8784
    4.650    8.7098
    4.665    9.0679
    4.680    8.6572
    4.695    8.2675
    4.710    8.7309
    4.725    8.9100
    4.740    9.3312
    4.755    8.7625
    4.770    8.4360
    4.785    8.9837
    4.800    8.5729
    4.815    8.8152
    4.830    9.2575
    4.845    9.2470
    4.860    9.1522
    4.875    9.0890
    4.890    8.7836
    4.905    8.9837
    4.920    8.8362
    4.935    8.7098
    4.950    8.9205
    4.965    9.3207
    4.980    9.5945
    4.995    9.1101
    5.010    9.2048
    5.025    9.3102
    5.040    9.8473
    5.055    9.9631
    5.070    9.2891
    5.085    9.6156
    5.100    9.8473
    5.115    9.6788
    5.130    9.8052
    5.145    9.7420
    5.160   10.0369
    5.175   10.1843
    5.190   10.3633
    5.205   10.7214
    5.220   11.0900
    5.235   11.1848
    5.250   11.7536
    5.265   11.1954
    5.280   11.7957
    5.295   12.3644
    5.310   12.2380
    5.325   12.4697
    5.340   13.1122
    5.355   12.9015
    5.370   13.6072
    5.385   14.0495
    5.400   14.3549
    5.415   15.0079
    5.430   16.3139
    5.445   16.9879
    5.460   18.4202
    5.475   19.4523
    5.490   19.9789
    5.505   20.1685
    5.520   19.2101
    5.535   18.3044
    5.550   15.9558
    5.565   13.6177
    5.580   12.0169
    5.595   10.6161
    5.610    9.8157
    5.625    9.4681
    5.640    8.8257
    5.655    8.5835
    5.670    8.8889
    5.685    8.2886
    5.700    8.8468
    5.715    8.7520
    5.730    8.3518
    5.745    8.2675
    5.760    8.0147
    5.775    8.2359
    5.790    8.4360
    5.805    8.2359
    5.820    7.8989
    5.835    8.3939
    5.850    8.8889
    5.865    7.9831
    5.880    8.0990
    5.895    8.6361
    5.910    8.3834
    5.925    7.9937
    5.940    7.7830
    5.955    8.0358
    5.970    7.8778
    5.985    8.0569
    6.000    8.1201
    6.015    8.3623
    6.030    8.2464
    6.045    7.9305
    6.060    7.8146
    6.075    8.1517
    6.090    8.3307
    6.105    8.0569
    6.120    8.0674
    6.135    7.5408
    6.150    8.1306
    6.165    8.1095
    6.180    8.3307
    6.195    7.9094
    6.210    7.9937
    6.225    8.1938
    6.240    8.3202
    6.255    8.3834
    6.270    8.8678
    6.285    8.6256
    6.300    8.5413
    6.315    8.8573
    6.330    8.6572
    6.345    8.8257
    6.360    8.3834
    6.375    8.1938
    6.390    8.4992
    6.405    8.3834
    6.420    8.4466
    6.435    8.3518
    6.450    8.3412
    6.465    8.9521
    6.480    8.7520
    6.495    9.0258
    6.510    8.8573
    6.525    8.8994
    6.540    9.3628
    6.555    8.6888
    6.570    9.2786
    6.585    9.0995
    6.600    9.0469
    6.615    8.8046
    6.630    9.5313
    6.645    9.8262
    6.660   10.2370
    6.675   10.4581
    6.690   10.6688
    6.705   10.1527
    6.720   11.3639
    6.735   10.8794
    6.750   11.2796
    6.765   11.1954
    6.780   10.4897
    6.795   10.1632
    6.810    9.7841
    6.825    9.1732
    6.840    8.6993
    6.855    8.4676
    6.870    8.4150
    6.885    8.3412
    6.900    8.8257
    6.915    8.1201
    6.930    8.1411
    6.945    8.2570
    6.960    8.5940
    6.975    8.0253
    6.990    7.8146
    7.005    8.1306
    7.020    8.4044
    7.035    8.5413
    7.050    8.5308
    7.065    8.3728
    7.080    8.3412
    7.095    8.6783
    7.110    8.3939
    7.125    8.2149
    7.140    8.5413
    7.155    8.1517
    7.170    7.9937
    7.185    8.0674
    7.200    8.1517
    7.215    7.9200
    7.230    8.2991
    7.245    7.8462
    7.260    7.8568
    7.275    8.0990
    7.290    8.3518
    7.305    7.9726
    7.320    8.2780
    7.335    8.3623
    7.350    8.3202
    7.365    8.8046
    7.380    8.5624
    7.395    8.1727
    7.410    8.0779
    7.425    8.0253
    7.440    8.3728
    7.455    8.5308
    7.470    8.4781
    7.485    8.6045
    7.500    8.5097
    7.515    8.7730
    7.530    8.6677
    7.545    8.5940
    7.560    8.8468
    7.575    8.7625
    7.590    9.1101
    7.605    9.0679
    7.620    8.8046
    7.635    8.9521
    7.650    9.3207
    7.665    9.6051
    7.680    9.7420
    7.695    9.7630
    7.710    9.5735
    7.725    9.7209
    7.740    9.8894
    7.755   10.3528
    7.770   10.8268
    7.785   10.8057
    7.800   10.5213
    7.815   10.8162
    7.830   10.2896
    7.845    9.6893
    7.860    9.4576
    7.875    8.7520
    7.890    9.1101
    7.905    8.6888
    7.920    8.6467
    7.935    8.3202
    7.950    8.7414
    7.965    8.7941
    7.980    8.5624
    7.995    8.6045
    8.010    8.2886
    8.025    8.3518
    8.040    8.4466
    8.055    8.5413
    8.070    8.2043
    8.085    8.2254
    8.100    8.1201
    8.115    8.4255
    8.130    8.7098
    8.145    8.4044
    8.160    8.5413
    8.175    8.1201
    8.190    8.5203
    8.205    8.1938
    8.220    8.1727
    8.235    8.5940
    8.250    8.3939
    8.265    8.3728
    8.280    8.8046
    8.295    8.3834
    8.310    8.4466
    8.325    8.3202
    8.340    8.5203
    8.355    8.4255
    8.370    8.2570
    8.385    8.1411
    8.400    8.9521
    8.415    8.4571
    8.430    8.5940
    8.445    8.3307
    8.460    8.3412
    8.475    8.6467
    8.490    8.7520
    8.505    8.2991
    8.520    8.5203
    8.535    8.6677
    8.550    8.6677
    8.565    8.4887
    8.580    8.9205
    8.595    8.6783
    8.610    8.8362
    8.625    9.0153
    8.640    9.0363
    8.655    8.7625
    8.670    8.7309
    8.685    8.6677
    8.700    9.3523
    8.715    8.6783
    8.730    8.6151
    8.745    8.9626
    8.760    9.3628
    8.775    9.0574
    8.790    8.8468
    8.805    8.5624
    8.820    8.4571
    8.835    8.6045
    8.850    8.8152
    8.865    9.0785
    8.880    8.8889
    8.895    8.7625
    8.910    8.7836
    8.925    8.7520
    8.940    8.9731
    8.955    9.0047
    8.970    9.0785
    8.985    8.7520
    9.000    9.0785
    9.015    9.1943
    9.030    8.9100
    9.045    8.7625
    9.060    9.2259
    9.075    8.9310
    9.090    8.6045
    9.105    8.4360
    9.120    8.7204
    9.135    8.8362
    9.150    8.7098
    9.165    9.3944
    9.180    8.8994
    9.195    8.7309
    9.210    9.0995
    9.225    9.3944
    9.240    9.5524
    9.255    9.2891
    9.270    9.1732
    9.285    9.4997
    9.300    9.5313
    9.315    9.8157
    9.330    9.7314
    9.345    9.4681
    9.360    9.9421
    9.375   10.0263
    9.390    9.7104
    9.405   10.7320
    9.420   10.5213
    9.435   10.4792
    9.450   10.9215
    9.465   11.3217
    9.480   12.1222
    9.495   12.2275
    9.510   12.8173
    9.525   13.7441
    9.540   14.1022
    9.555   14.2917
    9.570   13.8073
    9.585   13.4597
    9.600   13.1859
    9.615   12.6382
    9.630   11.3639
    9.645   10.2054
    9.660   10.0685
    9.675    9.9947
    9.690    9.4155
    9.705    9.2575
    9.720    9.0679
    9.735    9.1838
    9.750    9.0047
    9.765    8.9310
    9.780    9.1627
    9.795    8.7730
    9.810    8.9521
    9.825    8.9731
    9.840    8.8994
    9.855    9.0785
    9.870    8.7625
    9.885    8.5308
    9.900    8.8468
    9.915    8.6467
    9.930    8.9415
    9.945    9.0995
    9.960    9.0047
    9.975    8.5729
    9.990    8.6151
   10.005    8.6045
   10.020    8.5729
   10.035    9.0574
   10.050    9.0363
   10.065    8.6783
   10.080    8.8257
   10.095    9.3312
   10.110    9.5629
   10.125    9.1101
   10.140    9.4365
   10.155    9.3839
   10.170    9.2259
   10.185    9.4260
   10.200    9.0574
   10.215    9.6051
   10.230    9.6788
   10.245    9.4997
   10.260   10.1001
   10.275    9.9842
   10.290   10.0474
   10.305   10.0895
   10.320   10.4476
   10.335   10.6582
   10.350   10.7952
   10.365   10.1527
   10.380   10.0790
   10.395    9.7209
   10.410    9.4155
   10.425    9.0047
   10.440    9.3628
   10.455    9.0469
   10.470    9.0679
   10.485    8.8152
   10.500    9.0363
   10.515    8.5519
   10.530    8.5308
   10.545    8.5519
   10.560    8.5835
   10.575    8.3307
   10.590    8.2886
   10.605    8.8468
   10.620    8.7941
   10.635    8.5729
   10.650    8.5940
   10.665    9.0047
   10.680    8.9626
   10.695    9.2259
   10.710    8.5519
   10.725    8.9310
   10.740    8.5519
   10.755    8.4044
   10.770    8.5624
   10.785    8.6467
   10.800    9.0469
   10.815    9.0469
   10.830    8.8994
   10.845    8.5413
   10.860    8.6888
   10.875    8.7204
   10.890    8.9205
   10.905    9.2575
   10.920    8.7520
   10.935    8.8046
   10.950    9.2364
   10.965    9.1943
   10.980    9.4681
   10.995   10.1632
   11.010    9.6788
   11.025    9.7841
   11.040   10.3212
   11.055   10.1106
   11.070   10.0053
   11.085   10.1106
   11.100    9.6051
   11.115    9.6261
   11.130    9.2154
   11.145    8.7625
   11.160    8.5308
   11.175    8.3307
   11.190    8.2886
   11.205    8.5097
   11.220    8.2991
   11.235    8.2991
   11.250    8.5729
   11.265    8.3096
   11.280    8.2675
   11.295    8.2254
   11.310    8.6256
   11.325    8.5308
   11.340    8.0779
   11.355    8.1411
   11.370    8.4781
   11.385    8.6151
   11.400    8.7625
   11.415    8.9205
   11.430    8.5624
   11.445    8.4044
   11.460    8.6677
   11.475    8.5097
   11.490    8.2886
   11.505    8.4150
   11.520    8.7730
   11.535    8.6572
   11.550    8.6151
   11.565    8.8046
   11.580    8.4360
   11.595    8.6467
   11.610    8.7941
   11.625    8.6572
   11.640    9.3102
   11.655    9.4787
   11.670    9.6261
   11.685    9.0679
   11.700    9.4576
   11.715   10.0158
   11.730   10.0895
   11.745    9.7209
   11.760    9.6156
   11.775    9.7841
   11.790    9.0995
   11.805    8.8152
   11.820    8.2886
   11.835    7.6356
   11.850    8.2149
   11.865    8.5940
   11.880    8.2570
   11.895    7.7620
   11.910    8.0990
   11.925    8.4571
   11.940    8.1306
   11.955    8.0779
   11.970    8.0885
   11.985    8.1411
   12.000    7.6883
   12.015    7.8989
   12.030    8.2043
   12.045    7.6251
   12.060    7.8778
   12.075    8.1306
   12.090    8.1938
   12.105    7.6567
   12.120    7.8778
   12.135    8.0779
   12.150    8.0253
   12.165    7.6672
   12.180    7.9726
   12.195    8.3412
   12.210    8.0253
   12.225    7.9305
   12.240    8.2254
   12.255    8.0358
   12.270    8.0885
   12.285    8.0358
   12.300    7.6356
   12.315    7.6672
   12.330    7.9726
   12.345    8.3518
   12.360    8.0463
   12.375    8.1411
   12.390    7.9410
   12.405    7.8568
   12.420    7.7936
   12.435    7.8462
   12.450    8.1306
   12.465    7.7093
   12.480    7.9305
   12.495    7.8568
   12.510    7.7725
   12.525    8.1727
   12.540    7.6461
   12.555    7.7199
   12.570    7.3934
   12.585    7.6988
   12.600    8.1938
   12.615    7.9516
   12.630    7.5724
   12.645    7.8778
   12.660    8.0990
   12.675    7.8041
   12.690    7.5935
   12.705    7.7514
   12.720    7.6461
   12.735    7.7409
   12.750    8.0042
   12.765    7.5619
   12.780    7.6777
   12.795    8.2570
   12.810    8.1622
   12.825    8.0463
   12.840    8.0990
   12.855    8.1727
   12.870    8.2780
   12.885    7.7620
   12.900    8.2464
   12.915    8.7309
   12.930    8.5519
   12.945    8.8573
   12.960    8.7520
   12.975    9.0153
   12.990    8.9415
   13.005    8.6888
   13.020    8.5835
   13.035    7.8568
   13.050    8.0042
   13.065    8.2675
   13.080    7.7830
   13.095    8.1727
   13.110    7.6251
   13.125    7.8146
   13.140    7.9516
   13.155    7.5619
   13.170    7.5935
   13.185    7.5197
   13.200    7.5303
   13.215    7.2880
   13.230    7.4039
   13.245    7.9305
   13.260    7.9621
   13.275    8.1411
   13.290    8.0042
   13.305    7.6251
   13.320    8.1095
   13.335    7.6040
   13.350    7.8884
   13.365    7.8778
   13.380    7.7936
   13.395    7.8462
   13.410    7.8357
   13.425    7.5619
   13.440    8.1517
   13.455    7.9831
   13.470    7.6356
   13.485    7.6567
   13.500    7.9831
   13.515    8.2886
   13.530    8.2886
   13.545    8.4044
   13.560    8.2043
   13.575    7.6251
   13.590    7.5829
   13.605    7.9094
   13.620    8.1411
   13.635    8.0147
   13.650    7.9726
   13.665    7.8357
   13.680    7.7725
   13.695    7.2459
   13.710    7.5197
   13.725    7.8778
   13.740    7.6461
   13.755    7.6777
   13.770    7.9094
   13.785    7.3723
   13.800    7.3302
   13.815    7.9200
   13.830    7.3302
   13.845    7.3618
   13.860    8.0253
   13.875    8.1095
   13.890    7.7409
   13.905    7.5724
   13.920    7.3723
   13.935    7.4671
   13.950    7.7936
   13.965    7.8568
   13.980    7.7725
   13.995    7.7093
   14.010    7.2986
   14.025    7.8041
   14.040    8.0779
   14.055    8.3202
   14.070    8.0569
   14.085    8.2991
   14.100    8.4571
   14.115    8.6045
   14.130    8.5097
   14.145    8.0885
   14.160    7.7936
   14.175    8.1833
   14.190    7.9516
   14.205    7.8252
   14.220    7.9200
   14.235    7.4671
   14.250    7.8673
   14.265    7.9094
   14.280    7.4671
   14.295    7.5303
   14.310    7.5513
   14.325    7.5724
   14.340    7.1090
   14.355    7.4566
   14.370    7.3091
   14.385    7.3934
   14.400    7.0879
   14.415    7.6145
   14.430    7.2670
   14.445    7.3934
   14.460    7.0985
   14.475    7.6777
   14.490    7.7093
   14.505    7.4355
   14.520    7.5197
   14.535    7.4144
   14.550    7.5513
   14.565    7.6461
   14.580    7.5935
   14.595    7.0985
   14.610    7.2354
   14.625    7.2565
   14.640    7.4144
   14.655    7.3618
   14.670    7.2249
   14.685    7.3618
   14.700    7.6040
   14.715    7.1933
   14.730    7.3828
   14.745    7.4882
   14.760    7.4250
   14.775    7.3091
   14.790    7.2880
   14.805    7.6145
   14.820    7.2459
   14.835    7.5935
   14.850    7.3828
   14.865    7.7199
   14.880    7.5935
   14.895    7.4671
   14.910    7.8146
   14.925    7.6356
   14.940    7.5724
   14.955    7.7409
   14.970    7.6777
   14.985    7.1933
   15.000    7.3196
   15.015    7.1090
   15.030    7.6883
   15.045    7.7936
   15.060    7.5092
   15.075    7.7830
   15.090    7.4250
   15.105    7.7304
   15.120    7.7514
   15.135    7.4882
   15.150    7.8989
   15.165    8.4571
   15.180    7.7620
   15.195    7.6145
   15.210    7.6040
   15.225    7.4987
   15.240    7.7199
   15.255    7.6988
   15.270    7.6040
   15.285    7.4144
   15.300    7.7620
   15.315    7.8252
   15.330    7.4039
   15.345    8.0674
   15.360    8.1201
   15.375    7.9937
   15.390    7.2775
   15.405    7.5829
   15.420    7.4355
   15.435    7.4355
   15.450    7.7830
   15.465    7.4355
   15.480    7.4566
   15.495    7.6672
   15.510    7.6356
   15.525    7.5303
   15.540    7.8041
   15.555    7.6356
   15.570    7.4882
   15.585    7.5513
   15.600    7.3934
   15.615    7.6040
   15.630    7.7093
   15.645    7.3196
   15.660    7.1406
   15.675    7.6461
   15.690    7.8146
   15.705    7.2670
   15.720    7.1301
   15.735    7.4987
   15.750    7.7514
   15.765    7.7093
   15.780    7.8778
   15.795    7.5724
   15.810    7.5303
   15.825    7.4039
   15.840    7.3091
   15.855    7.7199
   15.870    7.5935
   15.885    7.6040
   15.900    7.2249
   15.915    7.5197
   15.930    7.4566
   15.945    7.2038
   15.960    7.3934
   15.975    7.6251
   15.990    7.4566
   16.005    7.4671
   16.020    7.4566
   16.035    7.4566
   16.050    7.4776
   16.065    7.4987
   16.080    7.4671
   16.095    7.6777
   16.110    7.1617
   16.125    7.7725
   16.140    7.9094
   16.155    7.6672
   16.170    7.9516
   16.185    8.3202
   16.200    8.0253
   16.215    7.7514
   16.230    7.6461
   16.245    7.6251
   16.260    7.7620
   16.275    7.6145
   16.290    7.6567
   16.305    7.8673
   16.320    7.8357
   16.335    7.6672
   16.350    7.5092
   16.365    7.4882
   16.380    7.3302
   16.395    7.2038
   16.410    7.1301
   16.425    7.6040
   16.440    7.6145
   16.455    7.6251
   16.470    7.6145
   16.485    7.6251
   16.500    7.5513
   16.515    7.2354
   16.530    7.6251
   16.545    7.9094
   16.560    7.6567
   16.575    7.6988
   16.590    7.9305
   16.605    7.8041
   16.620    7.5829
   16.635    7.7409
   16.650    7.5408
   16.665    8.0042
   16.680    7.6356
   16.695    7.8357
   16.710    7.5724
   16.725    7.4566
   16.740    7.7409
   16.755    7.9094
   16.770    7.3407
   16.785    7.7830
   16.800    7.7199
   16.815    7.8146
   16.830    7.8884
   16.845    7.6777
   16.860    7.6145
   16.875    7.8252
   16.890    7.7514
   16.905    7.6672
   16.920    7.6356
   16.935    7.2459
   16.950    7.6356
   16.965    7.6567
   16.980    8.0042
   16.995    8.1095
   17.010    8.3728
   17.025    7.9831
   17.040    7.9831
   17.055    8.3096
   17.070    8.1201
   17.085    8.0569
   17.100    8.2886
   17.115    8.2991
   17.130    8.1411
   17.145    8.0253
   17.160    8.0042
   17.175    7.3512
   17.190    7.8884
   17.205    8.0569
   17.220    7.7304
   17.235    7.5408
   17.250    7.2249
   17.265    7.5303
   17.280    7.7620
   17.295    7.4355
   17.310    7.8568
   17.325    7.4566
   17.340    7.6883
   17.355    7.5935
   17.370    7.8041
   17.385    7.2986
   17.400    7.4882
   17.415    7.4671
   17.430    7.5092
   17.445    7.5935
   17.460    7.6145
   17.475    7.9937
   17.490    8.1095
   17.505    7.7830
   17.520    7.4039
   17.535    7.8462
   17.550    7.8357
   17.565    7.4671
   17.580    7.7620
   17.595    7.7725
   17.610    8.0885
   17.625    7.8989
   17.640    7.4144
   17.655    7.2565
   17.670    7.4987
   17.685    7.4671
   17.700    7.4882
   17.715    7.4987
   17.730    7.7199
   17.745    7.4776
   17.760    7.3407
   17.775    7.7304
   17.790    7.4460
   17.805    7.5092
   17.820    7.3723
   17.835    7.3302
   17.850    7.6040
   17.865    7.5197
   17.880    7.6567
   17.895    7.3828
   17.910    7.7514
   17.925    7.8357
   17.940    7.6251
   17.955    7.7199
   17.970    7.4144
   17.985    7.8884
   18.000    7.9305
   18.015    7.9410
   18.030    7.7199
   18.045    7.6777
   18.060    7.2354
   18.075    7.4566
   18.090    7.8041
   18.105    7.6567
   18.120    7.4250
   18.135    7.5408
   18.150    7.3512
   18.165    7.4355
   18.180    7.6883
   18.195    8.0885
   18.210    7.4987
   18.225    7.5724
   18.240    7.9200
   18.255    7.7620
   18.270    7.4776
   18.285    7.6672
   18.300    8.1622
   18.315    7.7514
   18.330    7.6461
   18.345    7.8989
   18.360    7.5303
   18.375    7.4460
   18.390    7.4882
   18.405    7.2143
   18.420    7.4987
   18.435    7.9305
   18.450    7.6461
   18.465    7.8252
   18.480    7.9200
   18.495    7.9726
   18.510    7.7093
   18.525    7.1301
   18.540    7.8146
   18.555    7.6461
   18.570    7.7409
   18.585    7.4776
   18.600    7.4355
   18.615    7.4566
   18.630    7.5303
   18.645    7.8146
   18.660    7.5829
   18.675    8.0674
   18.690    7.1195
   18.705    7.7514
   18.720    7.6883
   18.735    7.2775
   18.750    7.5303
   18.765    7.6145
   18.780    7.3512
   18.795    6.9826
   18.810    7.4144
   18.825    7.7304
   18.840    7.8989
   18.855    7.8673
   18.870    7.5197
   18.885    7.9200
   18.900    7.7725
   18.915    7.6356
   18.930    7.9305
   18.945    8.0779
   18.960    8.2991
   18.975    8.3202
   18.990    7.8989
   19.005    7.7304
   19.020    7.7936
   19.035    7.7304
   19.050    8.0042
   19.065    7.6777
   19.080    7.5408
   19.095    7.2565
   19.110    7.5724
   19.125    7.5513
   19.140    7.8778
   19.155    7.6461
   19.170    7.9516
   19.185    7.6988
   19.200    7.3618
   19.215    7.6567
   19.230    7.3091
   19.245    7.6988
   19.260    7.8884
   19.275    7.9305
   19.290    7.7093
   19.305    7.3723
   19.320    7.1933
   19.335    7.3618
   19.350    7.8778
   19.365    7.8673
   19.380    7.5619
   19.395    7.7936
   19.410    7.7725
   19.425    7.6567
   19.440    7.9726
   19.455    7.8357
   19.470    7.6567
   19.485    7.0879
   19.500    7.7093
   19.515    7.5408
   19.530    7.9094
   19.545    7.9305
   19.560    7.8252
   19.575    7.6883
   19.590    8.2149
   19.605    8.4571
   19.620    8.0042
   19.635    7.6883
   19.650    7.3828
   19.665    7.7620
   19.680    7.5619
   19.695    7.6461
   19.710    8.1201
   19.725    7.8673
   19.740    7.4776
   19.755    7.8252
   19.770    7.7830
   19.785    8.1938
   19.800    7.9516
   19.815    7.7830
   19.830    7.8462
   19.845    7.8146
   19.860    7.8146
   19.875    7.3934
   19.890    7.4987
   19.905    7.8252
   19.920    7.8357
   19.935    7.5092
   19.950    7.3302
   19.965    7.5935
   19.980    7.9200
   19.995    7.6461
   20.010    7.2986
   20.025    7.8989
   20.040    7.6356
   20.055    7.6251
   20.070    7.4144
   20.085    7.6988
   20.100    7.8146
   20.115    7.6461
   20.130    7.3723
   20.145    7.6356
   20.160    7.6461
   20.175    7.5619
   20.190    8.1411
   20.205    8.2991
   20.220    7.7093
   20.235    7.9726
   20.250    7.8673
   20.265    7.9726
   20.280    8.2780
   20.295    7.9516
   20.310    7.8041
   20.325    7.4671
   20.340    7.4987
   20.355    7.9937
   20.370    8.3412
   20.385    8.3202
   20.400    8.5624
   20.415    8.4255
   20.430    8.1517
   20.445    8.2043
   20.460    8.3728
   20.475    8.2359
   20.490    8.1095
   20.505    7.6251
   20.520    8.1201
   20.535    8.1833
   20.550    7.8778
   20.565    7.9937
   20.580    8.1306
   20.595    7.8673
   20.610    7.7830
   20.625    7.8989
   20.640    8.2464
   20.655    8.1411
   20.670    7.6777
   20.685    7.8252
   20.700    7.8673
   20.715    8.0779
   20.730    8.4360
   20.745    7.7514
   20.760    7.7199
   20.775    7.5724
   20.790    7.6883
   20.805    8.0147
   20.820    8.1833
   20.835    8.1833
   20.850    7.5197
   20.865    7.4987
   20.880    7.6567
   20.895    7.6988
   20.910    7.7304
   20.925    8.0042
   20.940    8.1727
   20.955    8.3623
   20.970    8.2991
   20.985    7.8357
   21.000    8.2254
   21.015    7.9621
   21.030    7.1090
   21.045    7.6988
   21.060    7.8989
   21.075    7.7199
   21.090    8.2780
   21.105    8.1727
   21.120    7.7409
   21.135    7.9094
   21.150    8.1095
   21.165    8.1727
   21.180    8.0569
   21.195    8.1833
   21.210    7.6988
   21.225    7.8357
   21.240    8.1095
   21.255    7.9094
   21.270    7.9410
   21.285    7.7514
   21.300    7.5408
   21.315    7.4671
   21.330    7.9200
   21.345    8.1095
   21.360    8.2464
   21.375    7.8252
   21.390    7.7936
   21.405    7.9516
   21.420    8.0253
   21.435    7.8778
   21.450    7.9094
   21.465    8.0253
   21.480    7.8778
   21.495    7.6461
   21.510    7.6356
   21.525    7.7304
   21.540    7.8568
   21.555    7.9516
   21.570    7.7199
   21.585    7.6356
   21.600    7.9831
   21.615    7.8884
   21.630    8.2675
   21.645    8.1411
   21.660    7.9831
   21.675    7.6777
   21.690    7.2565
   21.705    8.1938
   21.720    7.9937
   21.735    8.0253
   21.750    8.0358
   21.765    8.0779
   21.780    7.9305
   21.795    8.0990
   21.810    8.2991
   21.825    8.3939
   21.840    7.7199
   21.855    8.0885
   21.870    8.1833
   21.885    8.0569
   21.900    8.3202
   21.915    8.0779
   21.930    7.6988
   21.945    7.9200
   21.960    8.3307
   21.975    8.5729
   21.990    8.0885
   22.005    7.9094
   22.020    7.7936
   22.035    8.6256
   22.050    8.1306
   22.065    8.0569
   22.080    7.8568
   22.095    7.9094
   22.110    7.9726
   22.125    8.0358
   22.140    8.3623
   22.155    8.0779
   22.170    8.0990
   22.185    7.9726
   22.200    8.2254
   22.215    7.9410
   22.230    7.7725
   22.245    7.9516
   22.260    8.0674
   22.275    7.5092
   22.290    7.7199
   22.305    7.6777
   22.320    7.6040
   22.335    8.1306
   22.350    8.1833
   22.365    8.2464
   22.380    8.5519
   22.395    8.0358
   22.410    8.0463
   22.425    8.1517
   22.440    7.8252
   22.455    8.1095
   22.470    8.1306
   22.485    7.7936
   22.500    8.1727
   22.515    8.8573
   22.530    8.5519
   22.545    8.9942
   22.560    8.7414
   22.575    8.5203
   22.590    8.4887
   22.605    8.4466
   22.620    8.6993
   22.635    8.5308
   22.650    8.5413
   22.665    8.8257
   22.680    8.5835
   22.695    8.1833
   22.710    8.6045
   22.725    8.2991
   22.740    8.0674
   22.755    8.1938
   22.770    8.4360
   22.785    8.4887
   22.800    8.3834
   22.815    8.1411
   22.830    8.0253
   22.845    8.2149
   22.860    8.8152
   22.875    8.9310
   22.890    8.6045
   22.905    8.5097
   22.920    8.6572
   22.935    8.7941
   22.950    8.6151
   22.965    8.6045
   22.980    8.6151
   22.995    8.7836
   23.010    8.7730
   23.025    8.8468
   23.040    8.4360
   23.055    8.3834
   23.070    8.3202
   23.085    8.3096
   23.100    7.8884
   23.115    8.2886
   23.130    8.3939
   23.145    8.4360
   23.160    8.2780
   23.175    8.3096
   23.190    8.4150
   23.205    7.9200
   23.220    8.3096
   23.235    8.2149
   23.250    8.3096
   23.265    8.3202
   23.280    8.0569
   23.295    7.9831
   23.310    7.7199
   23.325    8.3623
   23.340    7.7725
   23.355    8.0253
   23.370    7.8568
   23.385    8.1622
   23.400    7.5829
   23.415    7.8041
   23.430    8.0042
   23.445    7.8568
   23.460    7.7514
   23.475    8.0674
   23.490    7.7514
   23.505    7.9094
   23.520    8.2149
   23.535    8.4150
   23.550    8.1411
   23.565    7.7514
   23.580    7.5408
   23.595    8.3518
   23.610    8.1411
   23.625    8.1201
   23.640    7.8673
   23.655    7.6461
   23.670    7.5724
   23.685    7.9621
   23.700    7.5092
   23.715    8.2149
   23.730    8.0885
   23.745    7.6988
   23.760    7.4671
   23.775    7.8357
   23.790    8.0569
   23.805    8.2886
   23.820    8.0779
   23.835    7.8989
   23.850    8.3518
   23.865    8.2991
   23.880    7.7093
   23.895    7.7199
   23.910    8.3412
   23.925    8.0463
   23.940    8.2043
   23.955    8.1095
   23.970    7.5092
   23.985    7.6145
   24.000    7.5513
   24.015    7.8252
   24.030    7.4250
   24.045    8.1095
   24.060    8.0569
   24.075    7.8041
   24.090    8.1411
   24.105    7.6356
   24.120    7.5829
   24.135    7.8568
   24.150    7.6883
   24.165    7.6777
   24.180    8.1938
   24.195    7.8673
   24.210    7.6988
   24.225    7.8146
   24.240    8.1095
   24.255    7.4566
   24.270    7.2143
   24.285    7.7514
   24.300    8.0674
   24.315    7.5197
   24.330    7.8462
   24.345    7.7409
   24.360    7.6988
   24.375    8.4676
   24.390    8.2149
   24.405    8.2254
   24.420    7.9200
   24.435    7.9516
   24.450    7.6777
   24.465    7.2670
   24.480    7.9200
   24.495    7.8989
   24.510    7.7409
   24.525    8.0042
   24.540    7.6356
   24.555    7.7830
   24.570    7.9937
   24.585    7.8884
   24.600    7.7725
   24.615    8.0147
   24.630    8.3623
   24.645    8.2043
   24.660    7.4144
   24.675    7.4250
   24.690    7.4039
   24.705    7.4250
   24.720    7.8462
   24.735    7.6883
   24.750    7.5724
   24.765    7.6040
   24.780    7.7093
   24.795    7.3302
   24.810    7.8778
   24.825    7.8462
   24.840    7.8568
   24.855    7.6461
   24.870    7.6777
   24.885    7.4250
   24.900    7.5303
   24.915    7.4987
   24.930    7.6461
   24.945    7.6145
   24.960    7.2670
   24.975    7.5092
   24.990    7.8462
   25.005    8.0042
   25.020    7.9726
   25.035    7.6461
   25.050    7.4144
   25.065    7.6040
   25.080    7.4987
   25.095    7.7199
   25.110    7.7199
   25.125    7.7514
   25.140    7.8041
   25.155    7.6883
   25.170    7.6251
   25.185    7.7093
   25.200    7.7830
   25.215    8.0042
   25.230    7.7199
   25.245    7.6672
   25.260    8.0147
   25.275    7.7409
   25.290    7.7936
   25.305    7.8989
   25.320    7.9516
   25.335    7.6672
   25.350    7.8462
   25.365    7.8146
   25.380    7.6672
   25.395    7.5829
   25.410    7.4250
   25.425    8.2991
   25.440    8.0885
   25.455    7.5197
   25.470    7.4039
   25.485    8.1306
   25.500    7.7093
   25.515    7.8041
   25.530    7.5619
   25.545    7.5935
   25.560    7.1933
   25.575    7.5513
   25.590    7.5197
   25.605    7.9305
   25.620    7.3407
   25.635    7.3934
   25.650    7.7093
   25.665    7.4776
   25.680    7.5513
   25.695    7.6672
   25.710    7.7093
   25.725    7.7304
   25.740    7.8041
   25.755    7.9516
   25.770    8.0569
   25.785    8.0358
   25.800    8.4887
   25.815    8.0253
   25.830    8.1727
   25.845    8.1938
   25.860    7.6883
   25.875    7.8462
   25.890    7.6145
   25.905    8.3202
   25.920    8.1517
   25.935    7.7409
   25.950    7.6883
   25.965    7.9516
   25.980    8.0569
   25.995    7.8462
   26.010    7.6777
   26.025    7.3723
   26.040    7.7409
   26.055    7.8778
   26.070    7.7304
   26.085    7.4460
   26.100    7.4566
   26.115    7.5513
   26.130    7.2038
   26.145    7.2986
   26.160    7.4776
   26.175    7.4987
   26.190    7.6883
   26.205    7.8357
   26.220    7.7830
   26.235    7.6672
   26.250    7.2986
   26.265    7.0248
   26.280    7.4460
   26.295    7.3196
   26.310    7.3407
   26.325    7.5724
   26.340    7.4460
   26.355    7.5513
   26.370    7.5724
   26.385    7.5724
   26.400    7.5935
   26.415    7.9305
   26.430    7.7514
   26.445    7.4987
   26.460    7.3618
   26.475    7.5303
   26.490    7.2565
   26.505    7.3196
   26.520    7.3512
   26.535    6.9932
   26.550    7.4250
   26.565    7.7409
   26.580    7.8462
   26.595    7.5935
   26.610    7.4987
   26.625    7.9937
   26.640    7.5619
   26.655    7.3723
   26.670    7.6251
   26.685    7.8041
   26.700    7.5935
   26.715    7.6040
   26.730    7.6672
   26.745    7.6145
   26.760    7.8568
   26.775    7.6567
   26.790    7.2565
   26.805    7.4460
   26.820    7.3828
   26.835    7.3618
   26.850    7.0774
   26.865    7.3091
   26.880    7.6145
   26.895    7.6988
   26.910    7.2249
   26.925    7.3196
   26.940    7.5935
   26.955    7.7725
   26.970    7.4039
   26.985    7.8462
   27.000    7.1722
   27.015    7.5724
   27.030    7.7514
   27.045    7.9410
   27.060    7.5619
   27.075    7.7409
   27.090    7.8989
   27.105    7.8252
   27.120    7.7830
   27.135    7.8778
   27.150    7.5935
   27.165    7.4987
   27.180    7.6251
   27.195    7.7620
   27.210    7.4987
   27.225    7.9937
   27.240    7.5408
   27.255    7.3828
   27.270    7.1722
   27.285    7.6040
   27.300    7.6461
   27.315    7.3196
   27.330    7.1511
   27.345    7.3196
   27.360    7.4144
   27.375    7.3723
   27.390    7.4776
   27.405    7.0879
   27.420    7.2670
   27.435    7.3091
   27.450    7.5724
   27.465    7.6040
   27.480    7.5513
   27.495    7.0458
   27.510    7.1406
   27.525    7.1195
   27.540    7.0669
   27.555    7.2459
   27.570    7.8357
   27.585    7.7514
   27.600    7.8041
   27.615    7.4144
   27.630    7.3091
   27.645    7.5513
   27.660    7.6040
   27.675    7.3828
   27.690    7.4671
   27.705    7.4987
   27.720    7.1406
   27.735    7.2670
   27.750    7.2038
   27.765    7.2880
   27.780    7.4039
   27.795    7.4776
   27.810    7.2354
   27.825    7.2143
   27.840    7.2143
   27.855    7.1090
   27.870    7.4250
   27.885    7.2459
   27.900    7.0985
   27.915    7.5513
   27.930    7.5303
   27.945    7.7409
   27.960    7.6883
   27.975    7.7199
   27.990    7.6461
   28.005    7.7514
   28.020    7.9726
   28.035    7.9726
   28.050    7.6883
   28.065    7.3934
   28.080    7.2986
   28.095    7.1195
   28.110    7.4460
   28.125    7.4671
   28.140    7.2880
   28.155    7.1617
   28.170    7.3196
   28.185    7.6461
   28.200    7.2986
   28.215    7.2459
   28.230    7.4671
   28.245    7.9094
   28.260    7.4144
   28.275    7.1722
   28.290    7.2459
   28.305    7.6883
   28.320    7.2880
   28.335    7.2986
   28.350    7.2143
   28.365    7.0037
   28.380    6.7299
   28.395    7.2249
   28.410    6.8141
   28.425    7.3512
   28.440    6.7404
   28.455    7.0142
   28.470    7.4039
   28.485    7.5303
   28.500    7.2565
   28.515    6.8878
   28.530    6.8773
   28.545    7.3302
   28.560    7.5303
   28.575    7.0669
   28.590    7.2565
   28.605    6.8036
   28.620    6.9194
   28.635    7.4039
   28.650    7.4987
   28.665    6.9089
   28.680    6.9826
   28.695    7.2038
   28.710    7.1301
   28.725    7.0248
   28.740    6.8668
   28.755    6.8984
   28.770    7.0142
   28.785    6.9932
   28.800    7.1722
   28.815    7.3196
   28.830    7.0879
   28.845    7.0248
   28.860    7.0037
   28.875    7.2038
   28.890    7.3091
   28.905    7.3828
   28.920    7.2143
   28.935    7.2459
   28.950    7.2775
   28.965    7.3091
   28.980    7.7514
   28.995    7.2775
   29.010    7.2775
   29.025    7.3512
   29.040    7.2670
   29.055    7.4144
   29.070    7.5619
   29.085    6.8878
   29.100    6.7825
   29.115    6.9932
   29.130    7.0248
   29.145    7.1511
   29.160    7.2249
   29.175    7.0669
   29.190    7.1722
   29.205    7.4355
   29.220    7.4250
   29.235    7.0248
   29.250    7.2880
   29.265    7.0669
   29.280    7.1511
   29.295    7.4566
   29.310    7.3618
   29.325    7.3828
   29.340    7.0669
   29.355    6.9089
   29.370    7.0037
   29.385    6.7825
   29.400    7.0353
   29.415    6.8457
   29.430    6.8457
   29.445    7.0353
   29.460    7.2354
   29.475    7.1195
   29.490    7.3934
   29.505    7.2249
   29.520    7.1511
   29.535    7.0985
   29.550    7.1933
   29.565    7.1090
   29.580    6.8668
   29.595    6.9826
   29.610    7.0879
   29.625    6.8141
   29.640    6.6140
   29.655    7.1090
   29.670    6.7825
   29.685    6.6877
   29.700    6.8668
   29.715    6.8668
   29.730    6.7720
   29.745    7.1195
   29.760    6.9932
   29.775    6.9721
   29.790    6.8352
   29.805    6.9405
   29.820    7.0774
   29.835    6.6667
   29.850    7.0879
   29.865    7.2565
   29.880    7.3723
   29.895    7.1090
   29.910    7.2459
   29.925    7.1406
   29.940    7.1511
   29.955    7.3091
   29.970    7.1195
   29.985    6.9616
   30.000    6.7299
   30.015    6.5508
   30.030    7.0669
   30.045    7.7199
   30.060    7.4987
   30.075    7.1511
   30.090    6.5508
   30.105    6.4771
   30.120    7.0879
   30.135    6.8773
   30.150    6.7825
   30.165    7.1090
   30.180    6.9826
   30.195    6.5929
   30.210    6.7720
   30.225    6.8773
   30.240    6.4666
   30.255    6.4666
   30.270    6.9405
   30.285    6.8773
   30.300    6.6035
   30.315    6.7720
   30.330    6.9826
   30.345    7.0248
   30.360    6.8878
   30.375    7.1617
   30.390    7.4144
   30.405    7.2670
   30.420    7.0142
   30.435    6.7088
   30.450    6.6456
   30.465    6.5403
   30.480    7.1617
   30.495    6.9405
   30.510    6.4982
   30.525    6.2875
   30.540    6.9300
   30.555    7.2459
   30.570    6.9510
   30.585    6.7930
   30.600    6.5929
   30.615    7.0879
   30.630    7.1301
   30.645    6.6351
   30.660    7.0669
   30.675    6.7088
   30.690    6.8773
   30.705    6.7299
   30.720    6.5192
   30.735    7.2459
   30.750    7.0248
   30.765    6.6877
   30.780    6.8457
   30.795    7.1090
   30.810    6.8984
   30.825    6.5824
   30.840    6.5298
   30.855    6.8562
   30.870    6.9300
   30.885    6.3402
   30.900    6.5508
   30.915    6.7299
   30.930    6.7930
   30.945    6.5613
   30.960    6.2875
   30.975    6.5192
   30.990    6.3928
   31.005    6.5087
   31.020    6.8668
   31.035    7.0563
   31.050    6.6877
   31.065    6.4560
   31.080    6.6456
   31.095    6.7299
   31.110    6.6983
   31.125    6.7193
   31.140    7.1722
   31.155    6.8878
   31.170    6.6245
   31.185    6.7404
   31.200    6.7509
   31.215    6.5192
   31.230    6.7720
   31.245    6.6561
   31.260    6.9721
   31.275    7.0353
   31.290    6.5192
   31.305    6.2665
   31.320    6.3191
   31.335    6.7825
   31.350    6.5824
   31.365    6.8036
   31.380    6.7720
   31.395    6.7825
   31.410    6.5824
   31.425    6.6456
   31.440    6.9932
   31.455    7.3091
   31.470    6.8668
   31.485    6.7825
   31.500    6.8141
   31.515    6.4982
   31.530    6.4455
   31.545    6.3823
   31.560    6.4666
   31.575    6.6877
   31.590    6.3296
   31.605    6.5192
   31.620    6.1295
   31.635    6.1717
   31.650    6.2454
   31.665    6.7615
   31.680    6.5929
   31.695    6.6351
   31.710    6.7509
   31.725    6.8457
   31.740    7.0353
   31.755    7.2459
   31.770    7.0563
   31.785    7.0879
   31.800    7.0037
   31.815    7.2354
   31.830    6.9616
   31.845    7.1722
   31.860    7.1301
   31.875    6.4455
   31.890    6.9089
   31.905    6.6561
   31.920    7.0458
   31.935    6.9089
   31.950    6.5824
   31.965    7.0142
   31.980    6.9721
   31.995    7.0563
   32.010    7.0142
   32.025    7.6251
   32.040    7.3407
   32.055    7.6988
   32.070    7.8146
   32.085    7.8462
   32.100    7.6040
   32.115    7.0774
   32.130    7.0037
   32.145    7.2038
   32.160    7.4776
   32.175    7.7199
   32.190    7.2565
   32.205    6.8352
   32.220    7.0669
   32.235    6.6667
   32.250    6.5087
   32.265    6.3191
   32.280    6.4876
   32.295    6.3928
   32.310    6.4244
   32.325    6.6140
   32.340    6.6035
   32.355    6.7615
   32.370    6.6035
   32.385    6.3612
   32.400    6.5929
   32.415    6.4771
   32.430    6.7404
   32.445    6.8984
   32.460    6.7509
   32.475    6.6667
   32.490    6.4666
   32.505    6.4771
   32.520    6.6983
   32.535    6.4244
   32.550    6.3823
   32.565    6.3296
   32.580    6.6456
   32.595    6.3823
   32.610    6.3191
   32.625    6.5719
   32.640    6.3402
   32.655    6.4350
   32.670    6.2138
   32.685    6.7299
   32.700    6.6351
   32.715    6.5403
   32.730    6.0453
   32.745    6.5298
   32.760    6.5719
   32.775    6.0558
   32.790    6.6772
   32.805    6.5192
   32.820    6.5087
   32.835    7.0037
   32.850    6.4771
   32.865    6.7193
   32.880    6.4666
   32.895    6.5192
   32.910    6.4244
   32.925    6.5087
   32.940    6.6772
   32.955    6.7088
   32.970    6.4350
   32.985    6.0453
   33.000    6.2243
   33.015    6.4244
   33.030    6.6245
   33.045    5.8978
   33.060    6.0242
   33.075    6.7509
   33.090    6.2875
   33.105    6.1295
   33.120    6.7615
   33.135    6.4560
   33.150    6.3612
   33.165    6.4876
   33.180    6.3823
   33.195    6.4139
   33.210    6.4139
   33.225    6.2033
   33.240    6.3402
   33.255    6.2349
   33.270    6.1611
   33.285    6.2454
   33.300    6.3191
   33.315    6.0558
   33.330    5.9505
   33.345    6.1085
   33.360    6.1506
   33.375    6.3402
   33.390    6.6456
   33.405    6.6667
   33.420    6.4771
   33.435    6.2559
   33.450    6.8878
   33.465    6.6667
   33.480    6.2665
   33.495    6.1822
   33.510    6.1717
   33.525    6.2770
   33.540    6.5192
   33.555    6.2665
   33.570    6.2349
   33.585    6.2770
   33.600    6.4034
   33.615    6.1717
   33.630    6.1611
   33.645    6.5298
   33.660    6.5613
   33.675    6.5613
   33.690    6.6983
   33.705    6.2665
   33.720    6.2770
   33.735    6.4244
   33.750    6.4350
   33.765    6.5298
   33.780    6.8457
   33.795    6.4455
   33.810    7.1301
   33.825    6.5192
   33.840    6.6035
   33.855    7.4355
   33.870    7.0458
   33.885    6.6140
   33.900    6.7193
   33.915    6.8562
   33.930    6.6140
   33.945    6.7930
   33.960    6.5087
   33.975    6.7509
   33.990    6.5824
   34.005    6.4455
   34.020    6.6772
   34.035    6.0979
   34.050    6.2559
   34.065    6.0979
   34.080    6.1401
   34.095    6.0664
   34.110    6.2875
   34.125    6.1611
   34.140    6.0874
   34.155    6.2665
   34.170    6.3191
   34.185    6.0769
   34.200    6.3718
   34.215    6.2454
   34.230    6.5298
   34.245    6.6035
   34.260    6.2033
   34.275    6.1295
   34.290    6.3402
   34.305    6.0137
   34.320    5.9189
   34.335    5.9189
   34.350    6.6561
   34.365    6.1506
   34.380    5.7820
   34.395    6.1927
   34.410    6.0032
   34.425    6.1822
   34.440    6.2665
   34.455    6.2349
   34.470    6.7193
   34.485    6.1295
   34.500    6.2981
   34.515    6.1506
   34.530    5.9505
   34.545    5.9084
   34.560    6.4034
   34.575    6.7720
   34.590    6.4876
   34.605    6.1401
   34.620    6.1822
   34.635    6.3191
   34.650    6.3612
   34.665    6.4771
   34.680    6.3612
   34.695    6.1085
   34.710    6.2349
   34.725    6.3086
   34.740    6.3823
   34.755    6.2875
   34.770    6.1085
   34.785    5.9084
   34.800    6.2349
   34.815    6.5403
   34.830    6.4666
   34.845    6.1085
   34.860    6.0348
   34.875    5.8347
   34.890    6.4876
   34.905    6.4244
   34.920    5.8768
   34.935    6.2875
   34.950    6.1611
   34.965    6.0664
   34.980    5.8978
   34.995    6.0137
   35.010    5.7820
   35.025    5.9926
   35.040    5.7609
   35.055    6.0137
   35.070    6.3612
   35.085    6.4560
   35.100    6.3507
   35.115    6.4244
   35.130    6.2875
   35.145    6.2454
   35.160    6.1611
   35.175    6.2559
   35.190    5.8452
   35.205    5.7715
   35.220    5.9400
   35.235    6.4666
   35.250    6.3296
   35.265    5.8768
   35.280    5.9505
   35.295    6.2138
   35.310    6.2981
   35.325    6.1295
   35.340    6.1717
   35.355    6.0242
   35.370    5.9505
   35.385    6.1190
   35.400    5.9821
   35.415    6.1085
   35.430    5.9610
   35.445    5.9716
   35.460    6.0769
   35.475    6.1295
   35.490    6.0874
   35.505    5.8873
   35.520    6.0348
   35.535    6.0664
   35.550    5.6872
   35.565    5.6661
   35.580    6.0137
   35.595    5.9505
   35.610    5.8768
   35.625    5.9294
   35.640    6.2875
   35.655    6.3718
   35.670    6.2559
   35.685    6.0979
   35.700    5.8557
   35.715    6.2559
   35.730    6.3402
   35.745    6.2981
   35.760    6.2033
   35.775    6.3718
   35.790    5.9189
   35.805    5.6872
   35.820    5.8768
   35.835    6.0979
   35.850    5.9610
   35.865    6.2349
   35.880    5.9716
   35.895    5.7715
   35.910    6.0874
   35.925    6.1085
   35.940    5.8768
   35.955    6.0242
   35.970    5.9294
   35.985    6.3191
   36.000    5.8978
   36.015    6.1822
   36.030    6.5298
   36.045    5.9505
   36.060    5.6977
   36.075    5.8557
   36.090    6.1927
   36.105    6.0453
   36.120    5.8452
   36.135    6.3928
   36.150    5.9505
   36.165    6.0137
   36.180    6.1295
   36.195    6.1717
   36.210    5.8873
   36.225    5.9084
   36.240    6.0979
   36.255    6.1717
   36.270    6.0769
   36.285    6.0453
   36.300    6.2243
   36.315    6.4139
   36.330    6.1822
   36.345    6.4455
   36.360    6.3823
   36.375    5.9821
   36.390    5.8557
   36.405    6.1085
   36.420    5.8452
   36.435    6.1295
   36.450    6.2138
   36.465    5.6767
   36.480    5.8978
   36.495    6.3086
   36.510    5.9294
   36.525    6.1401
   36.540    5.7188
   36.555    5.7925
   36.570    6.0453
   36.585    6.0032
   36.600    5.9926
   36.615    6.0348
   36.630    5.6767
   36.645    6.0558
   36.660    5.9610
   36.675    6.1085
   36.690    5.9400
   36.705    5.9189
   36.720    5.6661
   36.735    5.8768
   36.750    5.8978
   36.765    6.3086
   36.780    5.6661
   36.795    6.0242
   36.810    5.9610
   36.825    6.0453
   36.840    6.1717
   36.855    5.9294
   36.870    6.0137
   36.885    5.8978
   36.900    6.0769
   36.915    6.0558
   36.930    6.1190
   36.945    5.7820
   36.960    5.9084
   36.975    5.7715
   36.990    5.9821
   37.005    6.0348
   37.020    6.3191
   37.035    6.0453
   37.050    5.8347
   37.065    5.6135
   37.080    6.0558
   37.095    6.3296
   37.110    5.9821
   37.125    5.9716
   37.140    5.6451
   37.155    5.9084
   37.170    6.1085
   37.185    6.2665
   37.200    6.1927
   37.215    5.9294
   37.230    5.7925
   37.245    5.6977
   37.260    6.3718
   37.275    6.0137
   37.290    5.9084
   37.305    6.0348
   37.320    6.6456
   37.335    6.1611
   37.350    6.1822
   37.365    6.0453
   37.380    6.0137
   37.395    5.8241
   37.410    5.4766
   37.425    5.5819
   37.440    5.9716
   37.455    6.0769
   37.470    5.9400
   37.485    5.9084
   37.500    6.1401
   37.515    6.2349
   37.530    5.9084
   37.545    6.3612
   37.560    5.7083
   37.575    5.9716
   37.590    5.7293
   37.605    5.5924
   37.620    5.6451
   37.635    5.8347
   37.650    5.8768
   37.665    5.8557
   37.680    5.4976
   37.695    5.9400
   37.710    5.8136
   37.725    5.6661
   37.740    6.1401
   37.755    6.3718
   37.770    6.1085
   37.785    6.0032
   37.800    5.7820
   37.815    6.1506
   37.830    6.0979
   37.845    6.4350
   37.860    5.8136
   37.875    6.4034
   37.890    6.0558
   37.905    6.1927
   37.920    6.0032
   37.935    5.8873
   37.950    5.6872
   37.965    5.9821
   37.980    5.9610
   37.995    6.0137
   38.010    5.9505
   38.025    5.8031
   38.040    5.7504
   38.055    5.7925
   38.070    5.9505
   38.085    5.8452
   38.100    5.8241
   38.115    5.9926
   38.130    5.8241
   38.145    5.7820
   38.160    5.7820
   38.175    5.7083
   38.190    5.7504
   38.205    6.0664
   38.220    5.7925
   38.235    5.6451
   38.250    5.4344
   38.265    5.5924
   38.280    6.0137
   38.295    5.7925
   38.310    5.9400
   38.325    5.8136
   38.340    5.8662
   38.355    5.7188
   38.370    6.1927
   38.385    5.8873
   38.400    5.8241
   38.415    6.0348
   38.430    5.8031
   38.445    5.5819
   38.460    6.0242
   38.475    5.9821
   38.490    5.9400
   38.505    6.3402
   38.520    5.8978
   38.535    6.0558
   38.550    5.7715
   38.565    5.9926
   38.580    5.8347
   38.595    6.2875
   38.610    6.1822
   38.625    5.7188
   38.640    5.7609
   38.655    5.8768
   38.670    6.4244
   38.685    5.9505
   38.700    6.0348
   38.715    5.9400
   38.730    5.9294
   38.745    6.0979
   38.760    5.8241
   38.775    5.7399
   38.790    5.9084
   38.805    5.9400
   38.820    5.7715
   38.835    5.5398
   38.850    5.9189
   38.865    5.7188
   38.880    5.8662
   38.895    6.2559
   38.910    5.8978
   38.925    5.6767
   38.940    6.1717
   38.955    6.3191
   38.970    6.0137
   38.985    6.0558
   39.000    5.9400
   39.015    6.0242
   39.030    6.0874
   39.045    6.1085
   39.060    5.7820
   39.075    5.7609
   39.090    6.0558
   39.105    5.8241
   39.120    6.0664
   39.135    6.1717
   39.150    6.0032
   39.165    5.9189
   39.180    5.8241
   39.195    5.8978
   39.210    6.1822
   39.225    5.6767
   39.240    6.1190
   39.255    6.0979
   39.270    6.0137
   39.285    5.9716
   39.300    6.2665
   39.315    5.8136
   39.330    6.2243
   39.345    5.7504
   39.360    5.4450
   39.375    5.7820
   39.390    5.7715
   39.405    5.7925
   39.420    6.0979
   39.435    6.2770
   39.450    6.1611
   39.465    5.9294
   39.480    6.0348
   39.495    5.8768
   39.510    5.7504
   39.525    5.8978
   39.540    6.1822
   39.555    5.6451
   39.570    5.6872
   39.585    5.6135
   39.600    5.8662
   39.615    6.0558
   39.630    5.9926
   39.645    6.5298
   39.660    6.4034
   39.675    5.9084
   39.690    5.5503
   39.705    6.1085
   39.720    5.7399
   39.735    5.6661
   39.750    5.6872
   39.765    5.9610
   39.780    6.0664
   39.795    5.7399
   39.810    6.0874
   39.825    5.7925
   39.840    5.7504
   39.855    5.4976
   39.870    5.7504
   39.885    6.2454
   39.900    5.4766
   39.915    5.4871
   39.930    5.9400
   39.945    5.9505
   39.960    5.8452
   39.975    6.0453
   39.990    6.0558
