    1.500   33.0490
    1.515   32.9753
    1.530   33.1227
    1.545   33.0700
    1.560   31.8694
    1.575   31.5113
    1.590   31.0058
    1.605   30.4897
    1.620   30.1948
    1.635   30.1001
    1.650   29.5524
    1.665   28.6467
    1.680   27.7409
    1.695   28.2254
    1.710   28.1306
    1.725   27.6883
    1.740   27.1406
    1.755   27.1827
    1.770   26.4034
    1.785   26.1401
    1.800   26.2454
    1.815   25.6872
    1.830   24.9289
    1.845   24.2233
    1.860   24.1285
    1.875   24.9605
    1.890   23.8863
    1.905   23.4650
    1.920   23.1174
    1.935   22.9068
    1.950   22.3381
    1.965   22.3381
    1.980   22.4539
    1.995   22.3486
    2.010   21.8957
    2.025   21.6324
    2.040   20.8215
    2.055   21.0743
    2.070   21.6008
    2.085   21.0427
    2.100   20.3476
    2.115   20.3581
    2.130   19.5998
    2.145   19.6209
    2.160   19.7367
    2.175   19.7051
    2.190   19.4945
    2.205   19.5577
    2.220   19.7051
    2.235   18.6730
    2.250   18.6414
    2.265   18.2728
    2.280   18.5150
    2.295   18.4729
    2.310   18.2833
    2.325   17.8936
    2.340   17.5145
    2.355   17.6935
    2.370   17.5250
    2.385   17.3670
    2.400   17.0932
    2.415   17.5777
    2.430   17.3249
    2.445   17.1564
    2.460   17.1564
    2.475   16.4824
    2.490   16.9458
    2.505   16.4613
    2.520   16.5245
    2.535   16.3033
    2.550   16.3454
    2.565   15.9347
    2.580   16.0084
    2.595   16.2085
    2.610   15.4818
    2.625   15.3976
    2.640   15.9558
    2.655   15.4713
    2.670   15.4397
    2.685   15.2607
    2.700   14.9131
    2.715   15.3870
    2.730   14.8815
    2.745   15.0606
    2.760   15.1027
    2.775   14.7762
    2.790   14.5972
    2.805   14.6498
    2.820   14.4813
    2.835   14.3971
    2.850   14.1864
    2.865   14.4181
    2.880   14.5129
    2.895   13.9863
    2.910   14.0390
    2.925   14.1443
    2.940   14.2812
    2.955   14.3233
    2.970   14.2812
    2.985   14.4392
    3.000   14.0390
    3.015   13.2280
    3.030   13.8915
    3.045   13.7441
    3.060   13.8389
    3.075   13.7019
    3.090   13.6388
    3.105   13.5756
    3.120   12.8278
    3.135   14.0074
    3.150   13.1648
    3.165   12.9015
    3.180   13.1859
    3.195   13.0068
    3.210   13.2070
    3.225   13.7546
    3.240   13.7230
    3.255   13.4702
    3.270   12.7225
    3.285   12.8699
    3.300   13.0068
    3.315   13.1016
    3.330   13.1438
    3.345   12.9858
    3.360   12.8383
    3.375   12.5856
    3.390   12.3433
    3.405   12.9015
    3.420   12.8173
    3.435   12.3117
    3.450   12.1959
    3.465   11.9853
    3.480   12.6066
    3.495   12.4697
    3.510   12.7120
    3.525   12.4908
    3.540   12.6488
    3.555   12.5224
    3.570   12.3644
    3.585   12.2486
    3.600   12.2486
    3.615   12.0800
    3.630   12.2170
    3.645   11.8694
    3.660   12.0169
    3.675   11.7220
    3.690   11.8273
    3.705   11.5534
    3.720   11.7114
    3.735   12.0800
    3.750   12.4592
    3.765   11.6588
    3.780   11.3112
    3.795   11.3955
    3.810   11.8483
    3.825   11.7641
    3.840   11.5429
    3.855   11.2480
    3.870   11.7746
    3.885   11.3428
    3.900   11.7325
    3.915   11.2902
    3.930   11.3217
    3.945   11.2270
    3.960   11.4165
    3.975   11.6482
    3.990   11.3112
    4.005   10.9953
    4.020   11.3323
    4.035   11.2586
    4.050   10.7846
    4.065   10.7846
    4.080   11.5008
    4.095   10.8583
    4.110   11.0058
    4.125   10.6372
    4.140   11.2796
    4.155   10.7320
    4.170   10.7109
    4.185   10.9953
    4.200   11.2270
    4.215   11.0690
    4.230   10.8162
    4.245   10.8268
    4.260   11.4481
    4.275   10.5635
    4.290   10.7320
    4.305   10.5108
    4.320   10.6477
    4.335   10.5951
    4.350   10.0369
    4.365   10.4581
    4.380   10.8689
    4.395   11.0479
    4.410   10.4160
    4.425   10.2896
    4.440   10.5951
    4.455   10.4897
    4.470   10.6898
    4.485   10.3423
    4.500   10.4897
    4.515   10.2686
    4.530   10.4581
    4.545   10.1316
    4.560   10.3212
    4.575    9.8368
    4.590   10.4371
    4.605   10.5635
    4.620   10.1948
    4.635   10.0158
    4.650   10.6688
    4.665   10.3107
    4.680   10.1316
    4.695   10.4371
    4.710   10.0158
    4.725    9.8368
    4.740   10.5003
    4.755   10.0053
    4.770   10.6898
    4.785   10.0790
    4.800   10.5319
    4.815   10.3318
    4.830   10.1843
    4.845    9.8999
    4.860   10.1527
    4.875   10.2264
    4.890    9.6472
    4.905    9.9526
    4.920    9.9421
    4.935   10.0685
    4.950   10.2264
    4.965    9.7314
    4.980   10.1632
    4.995   10.2686
    5.010   10.4160
    5.025   10.1738
    5.040    9.5840
    5.055    9.9842
    5.070    9.9631
    5.085   10.3844
    5.100    9.9947
    5.115   10.1632
    5.130   10.0053
    5.145   10.0158
    5.160    9.9631
    5.175   10.0895
    5.190   10.3318
    5.205    9.8684
    5.220    9.9631
    5.235   10.3844
    5.250   10.4265
    5.265   10.4897
    5.280   10.5529
    5.295   10.9215
    5.310   11.0374
    5.325   10.5951
    5.340   10.9110
    5.355   10.9953
    5.370   10.7109
    5.385   11.0900
    5.400   11.4060
    5.415   11.0795
    5.430   11.1532
    5.445   10.7214
    5.460   11.0374
    5.475   11.1848
    5.490   11.7641
    5.505   11.4692
    5.520   11.3428
    5.535   11.1322
    5.550   11.6798
    5.565   11.8905
    5.580   12.1327
    5.595   12.3117
    5.610   11.9431
    5.625   11.9537
    5.640   11.8694
    5.655   11.7852
    5.670   12.0274
    5.685   11.6482
    5.700   11.9326
    5.715   12.1432
    5.730   11.8483
    5.745   12.7541
    5.760   12.4487
    5.775   12.2275
    5.790   12.4276
    5.805   12.5750
    5.820   12.9437
    5.835   13.7967
    5.850   14.0495
    5.865   14.1443
    5.880   14.8183
    5.895   15.7873
    5.910   16.8510
    5.925   17.5145
    5.940   17.8410
    5.955   17.4934
    5.970   17.1985
    5.985   16.9458
    6.000   16.0927
    6.015   14.3233
    6.030   12.8805
    6.045   11.7852
    6.060   10.5635
    6.075    9.9421
    6.090    9.4892
    6.105    9.9315
    6.120    9.7630
    6.135    9.5524
    6.150    9.6156
    6.165    9.7630
    6.180    9.5524
    6.195    9.0047
    6.210    9.1732
    6.225    9.5103
    6.240    9.3944
    6.255    9.5313
    6.270    9.4681
    6.285    9.5313
    6.300    9.2996
    6.315    8.8994
    6.330    9.1732
    6.345    8.9837
    6.360    9.0785
    6.375    9.5735
    6.390    9.6577
    6.405    9.1627
    6.420    9.3207
    6.435    9.6998
    6.450    9.6261
    6.465    9.1417
    6.480    9.2891
    6.495    9.2364
    6.510    9.4050
    6.525    9.1206
    6.540    9.4997
    6.555    9.8684
    6.570    9.4260
    6.585    9.2364
    6.600    9.5103
    6.615    9.4260
    6.630    9.0047
    6.645    9.6893
    6.660    9.2048
    6.675    9.5945
    6.690    9.1206
    6.705    9.0047
    6.720    8.9942
    6.735    9.6367
    6.750    9.4892
    6.765    9.1417
    6.780    9.1943
    6.795    9.1732
    6.810    9.4050
    6.825    9.9210
    6.840    9.0363
    6.855    9.0153
    6.870    9.5419
    6.885    9.3523
    6.900    9.2680
    6.915    9.1311
    6.930    8.8784
    6.945    9.5313
    6.960    9.6577
    6.975    9.8789
    6.990    9.3418
    7.005    9.3734
    7.020    9.2470
    7.035    9.5945
    7.050    9.5524
    7.065    9.7736
    7.080    9.6051
    7.095   10.0158
    7.110    9.5735
    7.125    9.4365
    7.140    9.6682
    7.155   10.0579
    7.170    9.5840
    7.185    9.3418
    7.200    9.9631
    7.215    9.8368
    7.230    9.4997
    7.245    9.8999
    7.260    9.4050
    7.275    9.4997
    7.290    9.2996
    7.305    9.3102
    7.320    9.3207
    7.335    9.1522
    7.350    9.5419
    7.365    9.3102
    7.380    9.2575
    7.395    9.5419
    7.410    9.7209
    7.425    9.2470
    7.440    8.9100
    7.455    8.6783
    7.470    9.2786
    7.485    9.7630
    7.500    9.1101
    7.515    9.3102
    7.530    9.2891
    7.545    9.5103
    7.560    8.9205
    7.575    9.5945
    7.590    9.7104
    7.605    9.9947
    7.620    9.6682
    7.635    9.2575
    7.650    9.0574
    7.665    9.4365
    7.680    9.5208
    7.695    9.2470
    7.710    9.3207
    7.725    9.4260
    7.740    9.1311
    7.755    9.1101
    7.770    9.1417
    7.785    9.3628
    7.800    9.4681
    7.815    9.3207
    7.830    9.2470
    7.845    9.1417
    7.860    9.4787
    7.875    9.2470
    7.890    9.4260
    7.905    9.2364
    7.920    9.4892
    7.935    9.4576
    7.950    9.8684
    7.965    8.9942
    7.980    9.5735
    7.995    9.2048
    8.010    8.9626
    8.025    9.4997
    8.040    9.5945
    8.055    9.1943
    8.070    9.0258
    8.085    8.9731
    8.100    8.8362
    8.115    8.7836
    8.130    9.0785
    8.145    9.2891
    8.160    9.4681
    8.175    9.5945
    8.190    8.9942
    8.205    9.2154
    8.220    9.5735
    8.235    9.6998
    8.250    9.3207
    8.265    9.6577
    8.280    9.6682
    8.295    9.7736
    8.310    9.2996
    8.325    9.4365
    8.340    9.7630
    8.355    9.8052
    8.370    9.5945
    8.385    9.9526
    8.400   10.0158
    8.415    9.8894
    8.430    9.7841
    8.445   10.4055
    8.460   10.2370
    8.475    9.9842
    8.490    9.9526
    8.505    9.5840
    8.520    9.6261
    8.535    9.5735
    8.550    9.4471
    8.565    9.4365
    8.580    9.7104
    8.595    9.1311
    8.610    9.5103
    8.625    9.4892
    8.640    9.4787
    8.655    9.5524
    8.670    9.0995
    8.685    9.4576
    8.700   10.1001
    8.715    9.1311
    8.730    9.0469
    8.745    9.3944
    8.760    9.3523
    8.775    9.5629
    8.790    9.6577
    8.805    9.5945
    8.820    9.7209
    8.835    9.4155
    8.850   10.0579
    8.865   10.0053
    8.880    9.9105
    8.895    9.3734
    8.910    9.5208
    8.925    9.4997
    8.940    9.5524
    8.955    9.2470
    8.970    9.3523
    8.985    9.9631
    9.000    9.5840
    9.015    9.7314
    9.030    9.3418
    9.045    9.8684
    9.060    9.5524
    9.075    9.6893
    9.090    9.9210
    9.105    9.9947
    9.120   10.1738
    9.135   10.0263
    9.150    9.7314
    9.165   10.5424
    9.180   10.4792
    9.195   10.4055
    9.210   10.3107
    9.225   10.9321
    9.240   10.6372
    9.255   10.7004
    9.270   10.6688
    9.285   11.1532
    9.300   10.8373
    9.315   11.9431
    9.330   11.7746
    9.345   11.8167
    9.360   12.5434
    9.375   12.6382
    9.390   12.9858
    9.405   13.5334
    9.420   14.4286
    9.435   14.9974
    9.450   15.1975
    9.465   16.0084
    9.480   16.5561
    9.495   16.6825
    9.510   16.3139
    9.525   15.8189
    9.540   14.6077
    9.555   13.7019
    9.570   12.2801
    9.585   11.9221
    9.600   11.1216
    9.615   11.2796
    9.630   10.9005
    9.645   10.4581
    9.660   10.6056
    9.675   10.6582
    9.690   10.1422
    9.705   10.7952
    9.720   10.3528
    9.735   10.3844
    9.750    9.8473
    9.765   10.0158
    9.780    9.5524
    9.795    9.9421
    9.810    9.3418
    9.825    9.5840
    9.840    9.4260
    9.855    9.4260
    9.870    9.3628
    9.885    9.5313
    9.900    9.5735
    9.915    9.3207
    9.930    9.6998
    9.945    9.4365
    9.960    9.5735
    9.975    9.5735
    9.990    9.5629
   10.005    9.4787
   10.020    9.3839
   10.035    9.4260
   10.050    9.5313
   10.065    9.7946
   10.080    9.5313
   10.095    9.5103
   10.110    9.5419
   10.125    9.1732
   10.140    9.4681
   10.155   10.3002
   10.170    9.8157
   10.185    9.4576
   10.200    9.2680
   10.215    9.9421
   10.230   10.1316
   10.245    9.6156
   10.260    9.4155
   10.275    9.2996
   10.290    9.7841
   10.305   10.1106
   10.320   10.1316
   10.335   10.3212
   10.350   10.2791
   10.365   10.3107
   10.380   10.6582
   10.395   11.0479
   10.410   10.7320
   10.425   10.7004
   10.440   10.9110
   10.455   11.3533
   10.470   11.3217
   10.485   11.3112
   10.500   11.3323
   10.515   11.2480
   10.530   10.9637
   10.545   10.7846
   10.560   11.2270
   10.575   11.6272
   10.590   11.6482
   10.605   11.9326
   10.620   12.2486
   10.635   13.3649
   10.650   13.8494
   10.665   14.4392
   10.680   15.1237
   10.695   16.5561
   10.710   16.8931
   10.725   17.6619
   10.740   17.1669
   10.755   16.5456
   10.770   15.9874
   10.785   14.9868
   10.800   13.5861
   10.815   13.1227
   10.830   12.4381
   10.845   11.7114
   10.860   11.4587
   10.875   11.6904
   10.890   12.0484
   10.905   11.9431
   10.920   12.5856
   10.935   12.3328
   10.950   12.0695
   10.965   12.1432
   10.980   12.4171
   10.995   12.2275
   11.010   11.9115
   11.025   11.8483
   11.040   11.4060
   11.055   11.5745
   11.070   11.5745
   11.085   11.6377
   11.100   11.8167
   11.115   11.1216
   11.130   11.0585
   11.145   10.3949
   11.160   10.0158
   11.175   10.1527
   11.190   10.4897
   11.205   10.4687
   11.220    9.9947
   11.235   10.0685
   11.250   10.0474
   11.265    9.8894
   11.280    9.8789
   11.295    9.4892
   11.310    9.6156
   11.325    9.5208
   11.340    9.2259
   11.355   10.0790
   11.370    9.3312
   11.385    9.7209
   11.400    9.8789
   11.415    9.9526
   11.430   10.1632
   11.445   10.2475
   11.460   10.4371
   11.475   10.3633
   11.490    9.7209
   11.505   10.1001
   11.520   10.1632
   11.535   10.1106
   11.550   10.3318
   11.565   10.1738
   11.580   10.8162
   11.595   10.8162
   11.610   11.3007
   11.625   11.0795
   11.640   12.5224
   11.655   12.6593
   11.670   12.6066
   11.685   12.6066
   11.700   12.6066
   11.715   12.7541
   11.730   12.0695
   11.745   11.4692
   11.760   11.2164
   11.775   10.6372
   11.790   10.7109
   11.805   10.5003
   11.820   10.5108
   11.835   10.6793
   11.850   10.8057
   11.865   11.2691
   11.880   11.3323
   11.895   10.5635
   11.910   10.8583
   11.925   11.5008
   11.940   11.4903
   11.955   11.4481
   11.970   11.8483
   11.985   11.6588
   12.000   11.0585
   12.015   10.3528
   12.030    9.2470
   12.045    9.5735
   12.060    9.2891
   12.075    9.4787
   12.090    9.0785
   12.105    9.4365
   12.120    9.2259
   12.135    8.6572
   12.150    8.5097
   12.165    9.1417
   12.180    8.3096
   12.195    9.1101
   12.210    9.1943
   12.225    8.6888
   12.240    8.8257
   12.255    8.5835
   12.270    8.5519
   12.285    8.7204
   12.300    9.1311
   12.315    9.0469
   12.330    8.4466
   12.345    8.7309
   12.360    9.1627
   12.375    9.2154
   12.390    9.0995
   12.405    8.8152
   12.420    8.8994
   12.435    9.0153
   12.450    9.2259
   12.465    9.1206
   12.480    8.9942
   12.495    8.8046
   12.510    8.6677
   12.525    8.9415
   12.540    9.1417
   12.555    8.6677
   12.570    9.0363
   12.585    9.0363
   12.600    8.6783
   12.615    8.6045
   12.630    8.9626
   12.645    8.8468
   12.660    9.0258
   12.675    8.8046
   12.690    9.0995
   12.705    9.1311
   12.720    8.8889
   12.735    9.1522
   12.750    9.1732
   12.765    9.2891
   12.780    9.3944
   12.795    9.7630
   12.810    9.2680
   12.825    8.7309
   12.840    9.5840
   12.855   10.1316
   12.870   10.1527
   12.885   10.3633
   12.900   10.8162
   12.915   10.1211
   12.930   10.0579
   12.945    9.9210
   12.960    9.9737
   12.975    9.5313
   12.990    9.5419
   13.005    9.5103
   13.020    9.9105
   13.035    9.8262
   13.050   10.1738
   13.065   10.2159
   13.080   10.2580
   13.095   10.1106
   13.110   10.5213
   13.125    9.8894
   13.140    9.6261
   13.155    9.2470
   13.170    9.1101
   13.185    9.1522
   13.200    8.7836
   13.215    8.6361
   13.230    8.4466
   13.245    8.7625
   13.260    8.7309
   13.275    9.3628
   13.290    8.5940
   13.305    8.7520
   13.320    8.3096
   13.335    8.4044
   13.350    8.3307
   13.365    8.6993
   13.380    8.3728
   13.395    8.7520
   13.410    8.2886
   13.425    9.1627
   13.440    8.5624
   13.455    8.8152
   13.470    8.9731
   13.485    8.8257
   13.500    9.1417
   13.515    8.6151
   13.530    8.5519
   13.545    8.7204
   13.560    8.6361
   13.575    8.7730
   13.590    8.5413
   13.605    8.7414
   13.620    8.7941
   13.635    8.4360
   13.650    8.5729
   13.665    8.4466
   13.680    8.7836
   13.695    8.9731
   13.710    9.1206
   13.725    9.0679
   13.740    9.1943
   13.755    8.6572
   13.770    8.9415
   13.785    8.9415
   13.800    9.2891
   13.815    8.8678
   13.830    8.7414
   13.845    9.0363
   13.860    9.3628
   13.875    9.2891
   13.890    9.1732
   13.905    9.1206
   13.920    8.9942
   13.935    8.7414
   13.950    9.1522
   13.965    9.0047
   13.980    8.6993
   13.995    8.6467
   14.010    8.4150
   14.025    8.5413
   14.040    8.9837
   14.055    8.7309
   14.070    8.8046
   14.085    8.8152
   14.100    8.8257
   14.115    8.7204
   14.130    8.4571
   14.145    8.7625
   14.160    8.4360
   14.175    8.9100
   14.190    8.8994
   14.205    9.1732
   14.220    8.5729
   14.235    8.8889
   14.250    8.4992
   14.265    8.6045
   14.280    8.6677
   14.295    8.5729
   14.310    8.5624
   14.325    9.0574
   14.340    8.6361
   14.355    8.7730
   14.370    9.1101
   14.385    9.0785
   14.400    8.4571
   14.415    8.5729
   14.430    9.0995
   14.445    9.3944
   14.460    8.5203
   14.475    9.1101
   14.490    9.2364
   14.505    9.2154
   14.520    8.6572
   14.535    8.9731
   14.550    9.4155
   14.565    9.1838
   14.580    9.0153
   14.595    9.2364
   14.610    9.6261
   14.625    8.6256
   14.640    8.6888
   14.655    9.0363
   14.670    8.9100
   14.685    9.0469
   14.700    9.3734
   14.715    9.5945
   14.730    9.0258
   14.745    8.8046
   14.760    8.9310
   14.775    8.6888
   14.790    9.0785
   14.805    9.1838
   14.820    8.9521
   14.835    9.2259
   14.850    9.0469
   14.865    9.1206
   14.880    8.8573
   14.895    8.5940
   14.910    8.8468
   14.925    8.5413
   14.940    8.5203
   14.955    8.5097
   14.970    8.6361
   14.985    8.8257
   15.000    8.8889
   15.015    9.1206
   15.030    9.1101
   15.045    8.7309
   15.060    8.9100
   15.075    8.6677
   15.090    8.8362
   15.105    8.8257
   15.120    8.7941
   15.135    8.9100
   15.150    8.5729
   15.165    8.6783
   15.180    8.9942
   15.195    8.0253
   15.210    8.6993
   15.225    8.8257
   15.240    8.2570
   15.255    8.7204
   15.270    8.6783
   15.285    8.3939
   15.300    8.5413
   15.315    8.1727
   15.330    8.4676
   15.345    8.5519
   15.360    8.5413
   15.375    8.7309
   15.390    8.5940
   15.405    8.4150
   15.420    8.8784
   15.435    8.8468
   15.450    8.3096
   15.465    8.5940
   15.480    9.0363
   15.495    8.7836
   15.510    8.9837
   15.525    8.5729
   15.540    8.8362
   15.555    9.0363
   15.570    9.0574
   15.585    9.5629
   15.600    8.7309
   15.615    8.5729
   15.630    9.1732
   15.645    9.1522
   15.660    9.1522
   15.675    9.0469
   15.690    8.7836
   15.705    8.8573
   15.720    8.9205
   15.735    9.2470
   15.750    9.4997
   15.765    9.3839
   15.780    8.9415
   15.795    8.9837
   15.810    9.0047
   15.825    9.2154
   15.840    9.6682
   15.855    9.8052
   15.870    9.9105
   15.885   10.1527
   15.900   10.1001
   15.915   10.4581
   15.930   10.5108
   15.945   11.2164
   15.960   10.9742
   15.975   10.2475
   15.990   10.5951
   16.005   10.3633
   16.020    9.7314
   16.035    9.9105
   16.050    9.7630
   16.065    9.5313
   16.080    9.0153
   16.095    8.6151
   16.110    8.6361
   16.125    8.2780
   16.140    8.6151
   16.155    8.6993
   16.170    8.9731
   16.185    8.6888
   16.200    8.5519
   16.215    8.2254
   16.230    8.7309
   16.245    8.8257
   16.260    8.5940
   16.275    8.7836
   16.290    8.5203
   16.305    8.3096
   16.320    8.7836
   16.335    8.8362
   16.350    8.7941
   16.365    8.7098
   16.380    8.2886
   16.395    8.4571
   16.410    8.7204
   16.425    8.4150
   16.440    8.2886
   16.455    8.8889
   16.470    8.4255
   16.485    8.2991
   16.500    8.5203
   16.515    8.4360
   16.530    8.6888
   16.545    9.0679
   16.560    8.4676
   16.575    8.6993
   16.590    8.7625
   16.605    8.7520
   16.620    8.8046
   16.635    8.4044
   16.650    8.4255
   16.665    8.7098
   16.680    8.8468
   16.695    8.8573
   16.710    8.8046
   16.725    8.9100
   16.740    8.8362
   16.755    9.0574
   16.770    9.4365
   16.785    9.4050
   16.800    8.9205
   16.815    9.1943
   16.830    9.3312
   16.845    9.3207
   16.860    9.6367
   16.875    9.6577
   16.890    9.9631
   16.905    9.8473
   16.920    9.8052
   16.935    9.4787
   16.950    9.3312
   16.965    9.0995
   16.980    9.3628
   16.995    9.1206
   17.010    9.1522
   17.025    9.1732
   17.040    8.7941
   17.055    9.0785
   17.070    9.0363
   17.085    9.2259
   17.100    9.1101
   17.115    8.9521
   17.130    8.9415
   17.145    9.0153
   17.160    8.4781
   17.175    9.1206
   17.190    8.9626
   17.205    8.5624
   17.220    8.6783
   17.235    8.7625
   17.250    8.8152
   17.265    8.9310
   17.280    8.7836
   17.295    8.7520
   17.310    9.3734
   17.325    9.1417
   17.340    8.4466
   17.355    9.3839
   17.370    9.1101
   17.385    9.0574
   17.400    8.3202
   17.415    8.8362
   17.430    8.7520
   17.445    8.9100
   17.460    8.2043
   17.475    8.4781
   17.490    8.8362
   17.505    9.0258
   17.520    8.9100
   17.535    8.8046
   17.550    8.5308
   17.565    8.9837
   17.580    9.0258
   17.595    8.9310
   17.610    9.0785
   17.625    9.0785
   17.640    9.1206
   17.655    8.8468
   17.670    8.8678
   17.685    9.1417
   17.700    8.9521
   17.715    8.8152
   17.730    9.1943
   17.745    9.2259
   17.760    9.1522
   17.775    8.9205
   17.790    8.9205
   17.805    9.1417
   17.820    8.8784
   17.835    9.0153
   17.850    9.1627
   17.865    9.1943
   17.880    8.5940
   17.895    8.5203
   17.910    8.8046
   17.925    8.8362
   17.940    9.2891
   17.955    8.8994
   17.970    8.7098
   17.985    8.7730
   18.000    8.5519
   18.015    8.6256
   18.030    8.6467
   18.045    8.8362
   18.060    9.2259
   18.075    9.0995
   18.090    8.8152
   18.105    8.8362
   18.120    9.1943
   18.135    9.1417
   18.150    8.6783
   18.165    8.5413
   18.180    8.5940
   18.195    8.2464
   18.210    8.3939
   18.225    8.4676
   18.240    8.3412
   18.255    8.5940
   18.270    8.7520
   18.285    8.9837
   18.300    8.6677
   18.315    8.8152
   18.330    8.9205
   18.345    9.0679
   18.360    8.7625
   18.375    8.6572
   18.390    9.1732
   18.405    9.3312
   18.420    8.8889
   18.435    8.3834
   18.450    8.4571
   18.465    9.1838
   18.480    8.8362
   18.495    9.3312
   18.510    9.2048
   18.525    9.0679
   18.540    9.1943
   18.555    9.1206
   18.570    8.8362
   18.585    8.9100
   18.600    9.1943
   18.615    8.7520
   18.630    8.6677
   18.645    9.3523
   18.660    9.2470
   18.675    9.2996
   18.690    9.2154
   18.705    9.5419
   18.720    9.1943
   18.735    9.1732
   18.750    9.2680
   18.765    9.1732
   18.780    9.4471
   18.795    9.3102
   18.810    9.3207
   18.825    9.7525
   18.840    9.3207
   18.855    9.0153
   18.870    8.9521
   18.885    9.1522
   18.900    8.8573
   18.915    8.8046
   18.930    9.3102
   18.945    9.3207
   18.960    9.2154
   18.975    9.1838
   18.990    9.1417
   19.005    8.9942
   19.020    9.0469
   19.035    9.2891
   19.050    9.4471
   19.065    9.2259
   19.080    9.3839
   19.095    9.1417
   19.110    9.0785
   19.125    9.3944
   19.140    8.8257
   19.155    8.8046
   19.170    9.2259
   19.185    9.1101
   19.200    9.2048
   19.215    8.9942
   19.230    9.4050
   19.245    9.4155
   19.260    8.9100
   19.275    9.2575
   19.290    9.3102
   19.305    9.2996
   19.320    8.9205
   19.335    9.1838
   19.350    9.3944
   19.365    9.2364
   19.380    8.9521
   19.395    8.8046
   19.410    8.8678
   19.425    9.1943
   19.440    9.4787
   19.455    9.1417
   19.470    9.1838
   19.485    9.1943
   19.500    9.5313
   19.515    9.0258
   19.530    8.6256
   19.545    8.9205
   19.560    9.1943
   19.575    8.8257
   19.590    8.5835
   19.605    9.2786
   19.620    9.2786
   19.635    9.1206
   19.650    8.8046
   19.665    8.6783
   19.680    8.9731
   19.695    8.7309
   19.710    8.8468
   19.725    8.8362
   19.740    9.3523
   19.755    8.8889
   19.770    9.2470
   19.785    8.8889
   19.800    8.8573
   19.815    8.7520
   19.830    8.9205
   19.845    9.2259
   19.860    9.0469
   19.875    8.4992
   19.890    9.1417
   19.905    9.0047
   19.920    9.1206
   19.935    9.1732
   19.950    9.0890
   19.965    8.6256
   19.980    8.6888
   19.995    8.7520
   20.010    8.9100
   20.025    8.9100
   20.040    8.7730
   20.055    9.0047
   20.070    9.0785
   20.085    8.9626
   20.100    8.8573
   20.115    8.7520
   20.130    8.9837
   20.145    8.7625
   20.160    9.4155
   20.175    9.3523
   20.190    9.3312
   20.205    8.8046
   20.220    8.6888
   20.235    9.3312
   20.250    8.7941
   20.265    8.8362
   20.280    9.2364
   20.295    9.0469
   20.310    9.4365
   20.325    9.1417
   20.340    8.7204
   20.355    9.4576
   20.370    9.4997
   20.385    9.1838
   20.400    8.9837
   20.415    9.5208
   20.430    8.9731
   20.445    9.2996
   20.460    9.1627
   20.475    9.4681
   20.490    9.7314
   20.505    9.2786
   20.520    9.4365
   20.535    9.2786
   20.550    9.2680
   20.565    9.3734
   20.580    9.6261
   20.595    9.1311
   20.610    8.8573
   20.625    9.0363
   20.640    9.0469
   20.655    8.9415
   20.670    8.8046
   20.685    9.2154
   20.700    9.2048
   20.715    8.7941
   20.730    9.4576
   20.745    9.3312
   20.760    9.2048
   20.775    9.1732
   20.790    9.0047
   20.805    8.6783
   20.820    8.5940
   20.835    9.0047
   20.850    8.8784
   20.865    8.9521
   20.880    8.9415
   20.895    8.8046
   20.910    9.1417
   20.925    9.4576
   20.940    9.2048
   20.955    8.9837
   20.970    9.0153
   20.985    9.1732
   21.000    9.4050
   21.015    8.9205
   21.030    9.1522
   21.045    8.8257
   21.060    8.9942
   21.075    9.1522
   21.090    9.1838
   21.105    9.6998
   21.120    9.3102
   21.135    9.5524
   21.150    9.3734
   21.165    9.0679
   21.180    9.7946
   21.195    9.9631
   21.210    9.7420
   21.225    9.1943
   21.240    9.0469
   21.255    9.5735
   21.270    9.5524
   21.285    9.1943
   21.300    9.1311
   21.315    9.2996
   21.330    9.4365
   21.345    9.2154
   21.360    9.3523
   21.375    8.9837
   21.390    9.1101
   21.405    8.7730
   21.420    9.0574
   21.435    9.7841
   21.450    9.3207
   21.465    9.4155
   21.480    9.7314
   21.495    9.0995
   21.510    9.4155
   21.525    9.2154
   21.540    9.1206
   21.555    9.4050
   21.570    9.1522
   21.585    9.2470
   21.600    8.4781
   21.615    8.6888
   21.630    9.0574
   21.645    9.1417
   21.660    9.4576
   21.675    9.1838
   21.690    9.0363
   21.705    9.2786
   21.720    9.1943
   21.735    9.3102
   21.750    9.0047
   21.765    9.1838
   21.780    9.3734
   21.795    9.7736
   21.810    9.0258
   21.825    9.4787
   21.840    9.3312
   21.855    9.1417
   21.870    9.1206
   21.885    9.1206
   21.900    9.0995
   21.915    9.3523
   21.930    9.0258
   21.945    9.1943
   21.960    8.9731
   21.975    9.0574
   21.990    9.2575
   22.005    9.0679
   22.020    9.3944
   22.035    9.1943
   22.050    9.3839
   22.065    9.2575
   22.080    9.2364
   22.095    9.4471
   22.110    9.4471
   22.125    9.1311
   22.140    9.2364
   22.155    9.4365
   22.170    9.4892
   22.185    9.3839
   22.200    9.1206
   22.215    9.7630
   22.230    9.8789
   22.245   10.0895
   22.260    9.4260
   22.275    9.4892
   22.290    9.7209
   22.305    9.2048
   22.320    9.2048
   22.335    9.3207
   22.350    9.3523
   22.365    9.9315
   22.380    9.5103
   22.395    9.4787
   22.410    9.4155
   22.425    9.4155
   22.440    9.6472
   22.455    9.4787
   22.470    9.2786
   22.485    9.3102
   22.500    9.3418
   22.515    9.9105
   22.530    9.7209
   22.545    9.9315
   22.560    9.8262
   22.575    9.4471
   22.590    9.4365
   22.605    8.9942
   22.620    9.3734
   22.635    9.3312
   22.650    9.2891
   22.665    9.0679
   22.680    9.0258
   22.695    9.6472
   22.710    9.4155
   22.725    9.3207
   22.740    9.6682
   22.755   10.0790
   22.770   10.1316
   22.785   10.4371
   22.800   10.1527
   22.815   10.2264
   22.830   10.4687
   22.845   10.2370
   22.860    9.8999
   22.875    9.3839
   22.890    9.2680
   22.905    9.5208
   22.920    9.7946
   22.935    9.9631
   22.950   10.3844
   22.965    9.8473
   22.980    9.8368
   22.995    9.6682
   23.010    9.3207
   23.025    9.9526
   23.040   10.1738
   23.055    9.6788
   23.070    9.5735
   23.085    9.7314
   23.100    9.5103
   23.115   10.1001
   23.130    9.6788
   23.145    9.5524
   23.160    9.4050
   23.175    9.7104
   23.190    9.6472
   23.205    9.6051
   23.220    9.0890
   23.235    9.6788
   23.250    9.2680
   23.265    8.8362
   23.280    9.3628
   23.295    9.6156
   23.310    9.2364
   23.325    9.4892
   23.340    9.1206
   23.355    9.2575
   23.370    9.8262
   23.385   10.1527
   23.400    9.5629
   23.415    9.2575
   23.430    9.8789
   23.445    9.8473
   23.460    9.6577
   23.475    9.9526
   23.490    9.7525
   23.505   10.1422
   23.520   10.2791
   23.535    9.9631
   23.550    9.5103
   23.565    9.7104
   23.580    9.8789
   23.595    9.9842
   23.610    9.3207
   23.625    9.3102
   23.640    9.3102
   23.655    8.9100
   23.670    8.8257
   23.685    9.2891
   23.700    9.0679
   23.715    9.6893
   23.730    9.3312
   23.745    9.2786
   23.760    9.0574
   23.775    9.1732
   23.790    9.3944
   23.805    8.8994
   23.820    8.8784
   23.835    9.5103
   23.850    9.1627
   23.865    8.8362
   23.880    8.8046
   23.895    9.2996
   23.910    9.4050
   23.925    8.8784
   23.940    9.3628
   23.955    9.4576
   23.970    9.1206
   23.985    9.3839
   24.000    9.0785
   24.015    9.2470
   24.030    9.0995
   24.045    9.6261
   24.060    9.0258
   24.075    9.2470
   24.090    9.2259
   24.105    9.0363
   24.120    9.4050
   24.135    9.5735
   24.150    9.5945
   24.165    9.3944
   24.180    9.1838
   24.195    9.1943
   24.210    9.2680
   24.225    9.0574
   24.240    9.3944
   24.255    8.9626
   24.270    8.6888
   24.285    9.1838
   24.300    9.4576
   24.315    9.1101
   24.330    9.0153
   24.345    9.3312
   24.360    9.2786
   24.375    9.0890
   24.390    9.5419
   24.405    9.7420
   24.420    9.3207
   24.435    9.3418
   24.450    8.8046
   24.465    9.3839
   24.480    9.0469
   24.495    9.1311
   24.510    9.6577
   24.525    9.4050
   24.540    9.4787
   24.555    9.4576
   24.570    9.5208
   24.585    9.1943
   24.600    8.8257
   24.615    9.3839
   24.630    9.3734
   24.645    8.9205
   24.660    8.8257
   24.675    8.9837
   24.690    9.1943
   24.705    9.3628
   24.720    8.7414
   24.735    8.9205
   24.750    9.3418
   24.765    9.0153
   24.780    8.8678
   24.795    8.9626
   24.810    8.9205
   24.825    9.1838
   24.840    8.9205
   24.855    9.1101
   24.870    9.2470
   24.885    9.0785
   24.900    8.9626
   24.915    8.9731
   24.930    9.3312
   24.945    9.4471
   24.960    9.0785
   24.975    9.4260
   24.990    9.2575
   25.005    8.8889
   25.020    8.6151
   25.035    9.1732
   25.050    9.3207
   25.065    9.0679
   25.080    9.5208
   25.095    9.1522
   25.110    8.9942
   25.125    8.8573
   25.140    8.6467
   25.155    8.9310
   25.170    9.3207
   25.185    8.9626
   25.200    8.6993
   25.215    9.3418
   25.230    9.2996
   25.245    9.0890
   25.260    9.0785
   25.275    8.6677
   25.290    8.8152
   25.305    8.9731
   25.320    9.2680
   25.335    9.2680
   25.350    9.1206
   25.365    8.7309
   25.380    8.9205
   25.395    9.1522
   25.410    9.0469
   25.425    9.2364
   25.440    9.0258
   25.455    8.6045
   25.470    8.9521
   25.485    8.9942
   25.500    9.1732
   25.515    9.1627
   25.530    8.8784
   25.545    9.0363
   25.560    9.0047
   25.575    8.8573
   25.590    8.9415
   25.605    8.5308
   25.620    8.9521
   25.635    8.8152
   25.650    9.2154
   25.665    9.2575
   25.680    8.9100
   25.695    8.7625
   25.710    8.9100
   25.725    8.5203
   25.740    8.9731
   25.755    9.4681
   25.770    9.1943
   25.785    9.2996
   25.800    8.7730
   25.815    8.8994
   25.830    8.5097
   25.845    8.7204
   25.860    8.7941
   25.875    8.8994
   25.890    8.9837
   25.905    8.8889
   25.920    9.2364
   25.935    8.8784
   25.950    8.8889
   25.965    8.7309
   25.980    8.7730
   25.995    9.1311
   26.010    9.0679
   26.025    8.9837
   26.040    8.7836
   26.055    8.9837
   26.070    9.1206
   26.085    8.8046
   26.100    8.9731
   26.115    9.1101
   26.130    9.5313
   26.145    9.3839
   26.160    9.2996
   26.175    9.0890
   26.190    9.4471
   26.205    9.3418
   26.220    9.3839
   26.235    9.2891
   26.250    9.4787
   26.265    9.0679
   26.280    9.6577
   26.295    9.0995
   26.310    9.1627
   26.325    9.6472
   26.340    9.7736
   26.355    9.7525
   26.370    9.3207
   26.385    9.4892
   26.400    9.7525
   26.415    9.2891
   26.430    8.9415
   26.445    8.8784
   26.460    9.0153
   26.475    8.9310
   26.490    8.8784
   26.505    8.5835
   26.520    8.5413
   26.535    8.7414
   26.550    8.5308
   26.565    8.8152
   26.580    9.1417
   26.595    8.8362
   26.610    8.9731
   26.625    8.8152
   26.640    8.9837
   26.655    8.6256
   26.670    8.6888
   26.685    8.6888
   26.700    8.8257
   26.715    8.6572
   26.730    8.5940
   26.745    8.9205
   26.760    8.6151
   26.775    8.5835
   26.790    8.9100
   26.805    9.2154
   26.820    8.8573
   26.835    8.4150
   26.850    8.9310
   26.865    8.9942
   26.880    9.1522
   26.895    8.4360
   26.910    8.5097
   26.925    8.4676
   26.940    8.8994
   26.955    8.7204
   26.970    8.8046
   26.985    8.1306
   27.000    8.7309
   27.015    8.9731
   27.030    8.2675
   27.045    8.9731
   27.060    8.8468
   27.075    8.8994
   27.090    8.8152
   27.105    8.7625
   27.120    8.3623
   27.135    8.6151
   27.150    9.1522
   27.165    8.7730
   27.180    9.3628
   27.195    9.0785
   27.210    8.8362
   27.225    8.6572
   27.240    8.6783
   27.255    9.1206
   27.270    9.0469
   27.285    8.4466
   27.300    9.0679
   27.315    9.0890
   27.330    9.1943
   27.345    9.0047
   27.360    9.0258
   27.375    8.7730
   27.390    8.9731
   27.405    8.2149
   27.420    8.1938
   27.435    8.8152
   27.450    9.3944
   27.465    9.3628
   27.480    9.0574
   27.495    9.2680
   27.510    9.1311
   27.525    8.9310
   27.540    9.1206
   27.555    9.2680
   27.570    9.2364
   27.585    8.5308
   27.600    9.2891
   27.615    9.3207
   27.630    9.2364
   27.645    8.9415
   27.660    9.1417
   27.675    9.0890
   27.690    9.4681
   27.705    9.4050
   27.720    8.8257
   27.735    8.6045
   27.750    8.8994
   27.765    9.0363
   27.780    8.9205
   27.795    8.2780
   27.810    8.4466
   27.825    8.3096
   27.840    8.6256
   27.855    8.5308
   27.870    8.6467
   27.885    8.9942
   27.900    8.5203
   27.915    8.4992
   27.930    8.6361
   27.945    8.2359
   27.960    8.6677
   27.975    8.9100
   27.990    8.6361
   28.005    8.6361
   28.020    8.3834
   28.035    8.3728
   28.050    8.3518
   28.065    8.3307
   28.080    8.5203
   28.095    8.5519
   28.110    8.6677
   28.125    8.2570
   28.140    8.4255
   28.155    8.7520
   28.170    8.2991
   28.185    8.4887
   28.200    8.3412
   28.215    8.5097
   28.230    8.3939
   28.245    7.7830
   28.260    8.1306
   28.275    8.5624
   28.290    8.6677
   28.305    8.3623
   28.320    8.1938
   28.335    8.3202
   28.350    8.6572
   28.365    8.6256
   28.380    8.3939
   28.395    8.6045
   28.410    8.6677
   28.425    8.3307
   28.440    8.1306
   28.455    8.4676
   28.470    8.3307
   28.485    8.4992
   28.500    8.5729
   28.515    7.8462
   28.530    7.9621
   28.545    8.6888
   28.560    8.5097
   28.575    8.6045
   28.590    8.7730
   28.605    8.3728
   28.620    8.5097
   28.635    8.6993
   28.650    8.3202
   28.665    8.4255
   28.680    8.2464
   28.695    8.3728
   28.710    8.5308
   28.725    8.4255
   28.740    8.1306
   28.755    8.1411
   28.770    8.1727
   28.785    8.3096
   28.800    8.2570
   28.815    8.1727
   28.830    8.1938
   28.845    8.0885
   28.860    8.1201
   28.875    8.5519
   28.890    8.4992
   28.905    8.0147
   28.920    8.3834
   28.935    8.2464
   28.950    8.1201
   28.965    8.3202
   28.980    8.4360
   28.995    8.4676
   29.010    8.4044
   29.025    8.0147
   29.040    8.1095
   29.055    8.4044
   29.070    8.4992
   29.085    8.0885
   29.100    8.2254
   29.115    8.1306
   29.130    7.8568
   29.145    7.9621
   29.160    7.8673
   29.175    8.3518
   29.190    8.8046
   29.205    8.2886
   29.220    8.1727
   29.235    8.0569
   29.250    8.1833
   29.265    8.1622
   29.280    8.1201
   29.295    7.5724
   29.310    7.9410
   29.325    8.1517
   29.340    8.2780
   29.355    8.2359
   29.370    8.0358
   29.385    7.9831
   29.400    7.9831
   29.415    7.9937
   29.430    7.9621
   29.445    7.9937
   29.460    8.2991
   29.475    8.4992
   29.490    7.9831
   29.505    8.0674
   29.520    8.3939
   29.535    8.2464
   29.550    8.1201
   29.565    8.3307
   29.580    7.9621
   29.595    8.1727
   29.610    7.8462
   29.625    8.2359
   29.640    8.5940
   29.655    8.5203
   29.670    7.6356
   29.685    7.5829
   29.700    7.5303
   29.715    8.2675
   29.730    8.2570
   29.745    8.0990
   29.760    7.7830
   29.775    7.7409
   29.790    7.7725
   29.805    8.2570
   29.820    7.8673
   29.835    8.1833
   29.850    8.4150
   29.865    8.1201
   29.880    8.2043
   29.895    7.9516
   29.910    7.8673
   29.925    7.8673
   29.940    7.8357
   29.955    7.7093
   29.970    8.1201
   29.985    8.0253
   30.000    8.1727
   30.015    8.6677
   30.030    8.0885
   30.045    7.9937
   30.060    8.0147
   30.075    8.4571
   30.090    8.3307
   30.105    8.1201
   30.120    8.5097
   30.135    8.2886
   30.150    8.1727
   30.165    8.0463
   30.180    8.2359
   30.195    8.2149
   30.210    8.3518
   30.225    8.1517
   30.240    8.2043
   30.255    8.4150
   30.270    8.2464
   30.285    8.1938
   30.300    8.0885
   30.315    8.0569
   30.330    7.9831
   30.345    7.9410
   30.360    7.7409
   30.375    8.0674
   30.390    8.0779
   30.405    8.1622
   30.420    8.2886
   30.435    8.0674
   30.450    8.0569
   30.465    7.9305
   30.480    8.2359
   30.495    8.2675
   30.510    8.3939
   30.525    8.1727
   30.540    7.9831
   30.555    7.9621
   30.570    7.8041
   30.585    7.6567
   30.600    7.9831
   30.615    7.7304
   30.630    7.6988
   30.645    8.0674
   30.660    8.2886
   30.675    8.0990
   30.690    8.3939
   30.705    8.2780
   30.720    7.7725
   30.735    7.6567
   30.750    7.9726
   30.765    8.1411
   30.780    7.8146
   30.795    7.3934
   30.810    7.8357
   30.825    7.8673
   30.840    8.1517
   30.855    7.8462
   30.870    7.8357
   30.885    7.9726
   30.900    7.8252
   30.915    8.0253
   30.930    7.9094
   30.945    7.6356
   30.960    7.5724
   30.975    7.7514
   30.990    7.7830
   31.005    7.6356
   31.020    7.4566
   31.035    7.9094
   31.050    8.0674
   31.065    7.9937
   31.080    8.2570
   31.095    7.9621
   31.110    8.0042
   31.125    7.6356
   31.140    7.7514
   31.155    7.6672
   31.170    7.4144
   31.185    7.8041
   31.200    7.6672
   31.215    7.6145
   31.230    7.9937
   31.245    8.0990
   31.260    7.8146
   31.275    7.9200
   31.290    7.8989
   31.305    7.7199
   31.320    7.8041
   31.335    7.9621
   31.350    7.7620
   31.365    7.4460
   31.380    7.7725
   31.395    8.4150
   31.410    7.7409
   31.425    7.2143
   31.440    7.5724
   31.455    7.6040
   31.470    7.4566
   31.485    8.1622
   31.500    8.0358
   31.515    7.7830
   31.530    7.8778
   31.545    7.9621
   31.560    7.4144
   31.575    7.5513
   31.590    7.7304
   31.605    7.2775
   31.620    7.9094
   31.635    7.7725
   31.650    7.8357
   31.665    7.7830
   31.680    7.6883
   31.695    7.4144
   31.710    7.8884
   31.725    7.7093
   31.740    7.6672
   31.755    7.7725
   31.770    7.9621
   31.785    7.6356
   31.800    7.6461
   31.815    7.2986
   31.830    7.4460
   31.845    7.5197
   31.860    7.4039
   31.875    7.5197
   31.890    7.6251
   31.905    8.1727
   31.920    7.7620
   31.935    7.6251
   31.950    7.4987
   31.965    7.4671
   31.980    7.4460
   31.995    7.7620
   32.010    7.7199
   32.025    7.9200
   32.040    7.9305
   32.055    7.4250
   32.070    7.6988
   32.085    7.7620
   32.100    7.4355
   32.115    7.5092
   32.130    7.2986
   32.145    7.8462
   32.160    7.5935
   32.175    7.8778
   32.190    7.2143
   32.205    7.3091
   32.220    7.5408
   32.235    7.6040
   32.250    7.8462
   32.265    7.8252
   32.280    7.8252
   32.295    7.4355
   32.310    7.4882
   32.325    7.7514
   32.340    8.1727
   32.355    8.0358
   32.370    7.5303
   32.385    7.6145
   32.400    7.5513
   32.415    7.4671
   32.430    7.8252
   32.445    7.3934
   32.460    7.3302
   32.475    7.3407
   32.490    7.6567
   32.505    7.8252
   32.520    7.7093
   32.535    7.6988
   32.550    8.0358
   32.565    7.5197
   32.580    7.5724
   32.595    7.5935
   32.610    7.7620
   32.625    8.0358
   32.640    7.5513
   32.655    7.4566
   32.670    7.4460
   32.685    7.4460
   32.700    7.3934
   32.715    7.6567
   32.730    7.6040
   32.745    7.4987
   32.760    7.3091
   32.775    7.3407
   32.790    7.6145
   32.805    7.7514
   32.820    7.4039
   32.835    7.3091
   32.850    7.7199
   32.865    7.8989
   32.880    7.5513
   32.895    7.4566
   32.910    7.2986
   32.925    8.0147
   32.940    7.1933
   32.955    7.4250
   32.970    7.7409
   32.985    7.4355
   33.000    7.2143
   33.015    7.2459
   33.030    7.4144
   33.045    7.2143
   33.060    7.0458
   33.075    7.1827
   33.090    7.5092
   33.105    7.5303
   33.120    7.2249
   33.135    7.4144
   33.150    7.1195
   33.165    7.2986
   33.180    7.3618
   33.195    6.7930
   33.210    7.1617
   33.225    7.4776
   33.240    7.3723
   33.255    7.8673
   33.270    7.6040
   33.285    7.2986
   33.300    7.0353
   33.315    6.9826
   33.330    7.6040
   33.345    7.3091
   33.360    7.5724
   33.375    7.7620
   33.390    7.4987
   33.405    7.9621
   33.420    7.5829
   33.435    7.4039
   33.450    7.3723
   33.465    7.4144
   33.480    7.4987
   33.495    7.1406
   33.510    7.6145
   33.525    7.5197
   33.540    7.8357
   33.555    7.8252
   33.570    7.2986
   33.585    7.8041
   33.600    7.5408
   33.615    7.3302
   33.630    7.5724
   33.645    7.9200
   33.660    8.0569
   33.675    7.6461
   33.690    7.5619
   33.705    7.8884
   33.720    7.3723
   33.735    7.4566
   33.750    7.2459
   33.765    7.4144
   33.780    7.4566
   33.795    7.5197
   33.810    7.5935
   33.825    7.6672
   33.840    7.2459
   33.855    7.5197
   33.870    7.7725
   33.885    7.4460
   33.900    7.8568
   33.915    7.8462
   33.930    7.7409
   33.945    7.1090
   33.960    7.1301
   33.975    7.2775
   33.990    7.6145
   34.005    7.3618
   34.020    7.3934
   34.035    7.7199
   34.050    7.1617
   34.065    7.2038
   34.080    7.4776
   34.095    7.5092
   34.110    7.4355
   34.125    7.2249
   34.140    7.3828
   34.155    7.6251
   34.170    7.6040
   34.185    7.5935
   34.200    7.8146
   34.215    7.4355
   34.230    7.1827
   34.245    7.4566
   34.260    7.4355
   34.275    7.3618
   34.290    7.3934
   34.305    7.0879
   34.320    7.2670
   34.335    7.2249
   34.350    7.3934
   34.365    7.2459
   34.380    7.6251
   34.395    7.6672
   34.410    7.2249
   34.425    7.1090
   34.440    7.1090
   34.455    6.9826
   34.470    7.0774
   34.485    7.4882
   34.500    7.2038
   34.515    7.1617
   34.530    7.4355
   34.545    7.2143
   34.560    7.0458
   34.575    7.3828
   34.590    6.8562
   34.605    7.4671
   34.620    7.4987
   34.635    6.8141
   34.650    7.1827
   34.665    7.2775
   34.680    7.2565
   34.695    7.6567
   34.710    7.4355
   34.725    7.1933
   34.740    6.7930
   34.755    7.0879
   34.770    7.0985
   34.785    7.0774
   34.800    7.4987
   34.815    7.2143
   34.830    7.0458
   34.845    7.6672
   34.860    7.6356
   34.875    7.4987
   34.890    7.2775
   34.905    7.5303
   34.920    7.5513
   34.935    7.4566
   34.950    7.4882
   34.965    7.3618
   34.980    7.3512
   34.995    7.3091
   35.010    7.2670
   35.025    7.2986
   35.040    7.1195
   35.055    7.3828
   35.070    7.3618
   35.085    7.4250
   35.100    7.1406
   35.115    7.2670
   35.130    7.2459
   35.145    7.3723
   35.160    6.7930
   35.175    6.9089
   35.190    6.8246
   35.205    7.2880
   35.220    7.2775
   35.235    7.1933
   35.250    6.8141
   35.265    6.9405
   35.280    7.3407
   35.295    7.7514
   35.310    7.2670
   35.325    7.1617
   35.340    7.5303
   35.355    7.1195
   35.370    7.1406
   35.385    7.7620
   35.400    7.0985
   35.415    7.0563
   35.430    7.2880
   35.445    7.6672
   35.460    7.2459
   35.475    7.0563
   35.490    7.3723
   35.505    7.0458
   35.520    7.0563
   35.535    7.2670
   35.550    7.5303
   35.565    7.7936
   35.580    7.5829
   35.595    7.1827
   35.610    7.0248
   35.625    7.3196
   35.640    7.4776
   35.655    7.4460
   35.670    7.2880
   35.685    7.6672
   35.700    7.4039
   35.715    7.0353
   35.730    7.2354
   35.745    7.1933
   35.760    7.1617
   35.775    7.0353
   35.790    7.6145
   35.805    7.2670
   35.820    7.2986
   35.835    7.4566
   35.850    7.4882
   35.865    7.1827
   35.880    7.4250
   35.895    7.6251
   35.910    7.2459
   35.925    7.1406
   35.940    6.9194
   35.955    7.1090
   35.970    7.1617
   35.985    7.2354
   36.000    7.2880
   36.015    7.6567
   36.030    7.1195
   36.045    7.0774
   36.060    7.1827
   36.075    7.3091
   36.090    7.2143
   36.105    7.1933
   36.120    7.1301
   36.135    7.3512
   36.150    6.9405
   36.165    7.1195
   36.180    6.7720
   36.195    6.9721
   36.210    6.8036
   36.225    7.1722
   36.240    7.0879
   36.255    7.1511
   36.270    7.0248
   36.285    7.0458
   36.300    7.1511
   36.315    7.2459
   36.330    7.1722
   36.345    7.1090
   36.360    7.3828
   36.375    7.4671
   36.390    7.1195
   36.405    6.9826
   36.420    7.0142
   36.435    7.2880
   36.450    7.2565
   36.465    7.0458
   36.480    7.3302
   36.495    7.5408
   36.510    7.2565
   36.525    7.3196
   36.540    7.4566
   36.555    7.1722
   36.570    7.0353
   36.585    7.0985
   36.600    6.4982
   36.615    7.0248
   36.630    7.0774
   36.645    6.7825
   36.660    6.8984
   36.675    7.3302
   36.690    6.9826
   36.705    7.1722
   36.720    6.8457
   36.735    6.8457
   36.750    7.0985
   36.765    7.2038
   36.780    6.8984
   36.795    6.6772
   36.810    6.6561
   36.825    7.3828
   36.840    6.8984
   36.855    6.9826
   36.870    7.3407
   36.885    7.0985
   36.900    6.7825
   36.915    6.8984
   36.930    7.0142
   36.945    7.1617
   36.960    7.0985
   36.975    7.1090
   36.990    7.3618
   37.005    7.1406
   37.020    7.4039
   37.035    7.2143
   37.050    6.8562
   37.065    7.0142
   37.080    6.6877
   37.095    6.8246
   37.110    7.1301
   37.125    7.3934
   37.140    7.1933
   37.155    6.6667
   37.170    6.9826
   37.185    6.7404
   37.200    7.1933
   37.215    7.4460
   37.230    7.4250
   37.245    7.2986
   37.260    6.8036
   37.275    7.2775
   37.290    7.2565
   37.305    6.8878
   37.320    7.3091
   37.335    6.8984
   37.350    6.9721
   37.365    6.8457
   37.380    7.1301
   37.395    6.7720
   37.410    7.0458
   37.425    6.9932
   37.440    6.8668
   37.455    6.9510
   37.470    7.3407
   37.485    7.1722
   37.500    6.9616
   37.515    6.7193
   37.530    7.2565
   37.545    7.0248
   37.560    6.7720
   37.575    6.9089
   37.590    7.0037
   37.605    6.6877
   37.620    6.8141
   37.635    6.9194
   37.650    6.6245
   37.665    6.4455
   37.680    6.7930
   37.695    7.2249
   37.710    7.1827
   37.725    6.9194
   37.740    7.1301
   37.755    7.3618
   37.770    6.8878
   37.785    7.4144
   37.800    7.1722
   37.815    6.7825
   37.830    7.4460
   37.845    6.8141
   37.860    7.5408
   37.875    6.8562
   37.890    6.9405
   37.905    6.6772
   37.920    7.0037
   37.935    7.1511
   37.950    6.8878
   37.965    6.5298
   37.980    6.8141
   37.995    7.1406
   38.010    6.8668
   38.025    7.1301
   38.040    6.9510
   38.055    7.0985
   38.070    6.8036
   38.085    6.7088
   38.100    6.6351
   38.115    6.4244
   38.130    6.8668
   38.145    6.6877
   38.160    6.8668
   38.175    6.9826
   38.190    7.1090
   38.205    6.9932
   38.220    7.0353
   38.235    7.1933
   38.250    7.1827
   38.265    6.8141
   38.280    6.7404
   38.295    6.6667
   38.310    6.5508
   38.325    6.7930
   38.340    6.7404
   38.355    7.0563
   38.370    6.6245
   38.385    7.0037
   38.400    7.6988
   38.415    7.2670
   38.430    6.8984
   38.445    6.8773
   38.460    7.3407
   38.475    7.2038
   38.490    7.0458
   38.505    7.0985
   38.520    6.7930
   38.535    6.9194
   38.550    6.9616
   38.565    6.8668
   38.580    6.5403
   38.595    6.5403
   38.610    6.8036
   38.625    6.7930
   38.640    7.0142
   38.655    7.0563
   38.670    7.0985
   38.685    7.3302
   38.700    6.9826
   38.715    6.5929
   38.730    6.9616
   38.745    6.9300
   38.760    6.7509
   38.775    6.9300
   38.790    7.0248
   38.805    7.1090
   38.820    6.7193
   38.835    6.6983
   38.850    6.7930
   38.865    6.8562
   38.880    7.3512
   38.895    6.7720
   38.910    7.1090
   38.925    6.8246
   38.940    6.7404
   38.955    7.0774
   38.970    6.7930
   38.985    6.8878
   39.000    6.5929
   39.015    6.4876
   39.030    6.6877
   39.045    7.1301
   39.060    7.0353
   39.075    7.0774
   39.090    6.7615
   39.105    6.7088
   39.120    6.9510
   39.135    6.8773
   39.150    7.1090
   39.165    7.3407
   39.180    6.6351
   39.195    6.7088
   39.210    6.6561
   39.225    6.8036
   39.240    6.9721
   39.255    6.4560
   39.270    6.6140
   39.285    6.6983
   39.300    6.8984
   39.315    6.7825
   39.330    7.1195
   39.345    7.0879
   39.360    7.0142
   39.375    6.7615
   39.390    6.7299
   39.405    6.6561
   39.420    6.9826
   39.435    7.1090
   39.450    7.4039
   39.465    6.7193
   39.480    6.5508
   39.495    6.8246
   39.510    6.7615
   39.525    6.7825
   39.540    7.1933
   39.555    7.4671
   39.570    6.9721
   39.585    7.1301
   39.600    6.9932
   39.615    7.1933
   39.630    7.0142
   39.645    7.0353
   39.660    6.4771
   39.675    6.6456
   39.690    7.0248
   39.705    7.0037
   39.720    7.0142
   39.735    7.0142
   39.750    7.0353
   39.765    6.9194
   39.780    7.2143
   39.795    7.3196
   39.810    7.1195
   39.825    6.8668
   39.840    6.7509
   39.855    7.1827
   39.870    6.8352
   39.885    6.9826
   39.900    6.7404
   39.915    6.7825
   39.930    6.8036
   39.945    6.6667
   39.960    7.0669
   39.975    6.9300
   39.990    7.0669
