    1.500    5.5292
    1.515    5.6697
    1.530    5.3712
    1.545    5.2835
    1.560    5.2484
    1.575    5.3712
    1.590    5.1255
    1.605    5.7048
    1.620    5.5292
    1.635    5.0202
    1.650    5.3010
    1.665    5.1606
    1.680    5.0904
    1.695    5.3186
    1.710    5.8803
    1.725    5.1957
    1.740    5.4590
    1.755    5.5117
    1.770    5.3537
    1.785    4.9851
    1.800    4.5287
    1.815    4.9851
    1.830    5.3537
    1.845    5.7223
    1.860    5.5994
    1.875    5.3361
    1.890    4.8271
    1.905    4.7042
    1.920    5.1080
    1.935    5.6345
    1.950    5.0026
    1.965    4.6867
    1.980    5.0202
    1.995    5.2484
    2.010    5.1431
    2.025    4.8973
    2.040    5.0553
    2.055    4.8622
    2.070    5.0377
    2.085    5.0904
    2.100    5.2659
    2.115    5.0904
    2.130    5.1080
    2.145    4.5989
    2.160    4.7920
    2.175    4.8973
    2.190    5.2659
    2.205    4.9324
    2.220    5.0377
    2.235    5.0026
    2.250    5.2308
    2.265    4.8622
    2.280    4.7042
    2.295    4.6165
    2.310    4.7744
    2.325    4.6691
    2.340    4.8973
    2.355    4.7569
    2.370    4.7744
    2.385    4.8271
    2.400    4.8622
    2.415    4.7393
    2.430    5.0553
    2.445    4.7920
    2.460    4.8622
    2.475    4.8973
    2.490    5.0553
    2.505    5.1782
    2.520    5.2484
    2.535    4.7218
    2.550    5.1255
    2.565    5.1782
    2.580    5.2659
    2.595    4.8271
    2.610    4.5111
    2.625    4.5463
    2.640    4.7218
    2.655    5.0553
    2.670    5.3186
    2.685    5.2484
    2.700    4.9851
    2.715    4.6516
    2.730    4.6691
    2.745    4.9324
    2.760    4.8271
    2.775    4.8973
    2.790    4.8447
    2.805    4.7042
    2.820    4.6691
    2.835    5.1957
    2.850    4.6165
    2.865    4.8973
    2.880    4.6691
    2.895    5.0904
    2.910    5.1606
    2.925    5.0377
    2.940    5.0728
    2.955    4.5814
    2.970    4.3181
    2.985    5.0377
    3.000    4.9149
    3.015    4.8622
    3.030    5.4941
    3.045    5.1957
    3.060    5.2659
    3.075    5.3361
    3.090    5.3712
    3.105    5.2484
    3.120    4.4585
    3.135    4.5287
    3.150    4.4585
    3.165    4.7744
    3.180    5.0553
    3.195    4.8973
    3.210    4.8798
    3.225    4.7744
    3.240    4.5111
    3.255    4.6165
    3.270    4.7744
    3.285    4.4936
    3.300    4.7042
    3.315    4.5814
    3.330    4.8798
    3.345    4.6516
    3.360    4.7920
    3.375    4.7569
    3.390    4.5463
    3.405    4.6165
    3.420    4.9851
    3.435    4.7744
    3.450    5.2133
    3.465    4.5814
    3.480    4.5814
    3.495    4.5111
    3.510    4.5111
    3.525    4.3707
    3.540    4.8973
    3.555    4.9675
    3.570    5.1255
    3.585    4.7218
    3.600    4.5463
    3.615    4.9500
    3.630    4.8798
    3.645    4.4936
    3.660    4.6340
    3.675    4.6340
    3.690    4.9500
    3.705    5.1606
    3.720    4.7393
    3.735    4.6340
    3.750    4.6867
    3.765    4.7042
    3.780    4.5989
    3.795    4.7042
    3.810    4.8622
    3.825    4.8798
    3.840    4.8095
    3.855    5.0202
    3.870    4.4058
    3.885    4.8622
    3.900    4.5111
    3.915    4.3707
    3.930    4.6691
    3.945    4.2654
    3.960    4.3532
    3.975    4.4760
    3.990    4.8271
    4.005    4.4409
    4.020    4.6516
    4.035    4.8622
    4.050    4.8973
    4.065    4.4936
    4.080    4.4409
    4.095    4.9675
    4.110    4.7744
    4.125    4.4936
    4.140    4.3707
    4.155    4.6340
    4.170    4.5287
    4.185    4.5814
    4.200    4.7744
    4.215    4.7042
    4.230    4.6165
    4.245    4.5463
    4.260    4.8798
    4.275    4.8271
    4.290    4.6691
    4.305    4.5463
    4.320    4.5111
    4.335    4.3181
    4.350    4.6867
    4.365    4.7218
    4.380    4.6516
    4.395    4.6165
    4.410    4.3532
    4.425    4.2830
    4.440    4.8798
    4.455    4.4585
    4.470    4.9500
    4.485    5.1782
    4.500    4.7569
    4.515    4.9675
    4.530    4.9675
    4.545    5.0026
    4.560    4.6867
    4.575    4.2830
    4.590    4.2830
    4.605    4.7393
    4.620    4.6691
    4.635    4.6340
    4.650    4.3707
    4.665    4.4585
    4.680    4.2303
    4.695    4.7569
    4.710    5.0553
    4.725    5.2659
    4.740    5.0026
    4.755    4.4936
    4.770    4.2478
    4.785    4.4585
    4.800    4.7569
    4.815    4.9675
    4.830    4.5814
    4.845    4.4409
    4.860    4.4409
    4.875    4.7920
    4.890    4.2478
    4.905    4.5638
    4.920    4.9324
    4.935    4.5638
    4.950    4.3707
    4.965    4.3005
    4.980    4.7744
    4.995    4.6516
    5.010    4.7744
    5.025    4.1776
    5.040    4.5638
    5.055    4.6867
    5.070    4.7569
    5.085    4.6165
    5.100    4.8798
    5.115    4.6516
    5.130    4.5989
    5.145    4.7393
    5.160    4.7042
    5.175    5.1080
    5.190    4.9675
    5.205    5.0377
    5.220    4.8271
    5.235    4.7569
    5.250    4.9675
    5.265    5.0026
    5.280    5.1080
    5.295    4.6691
    5.310    4.7569
    5.325    4.8622
    5.340    4.8973
    5.355    4.7218
    5.370    4.8271
    5.385    4.9149
    5.400    4.8095
    5.415    4.6691
    5.430    4.4409
    5.445    4.6867
    5.460    4.5638
    5.475    4.6165
    5.490    4.9149
    5.505    5.0202
    5.520    4.8095
    5.535    4.5638
    5.550    4.1425
    5.565    4.9851
    5.580    4.8271
    5.595    4.7393
    5.610    4.6516
    5.625    4.7744
    5.640    4.7569
    5.655    4.8798
    5.670    4.2303
    5.685    4.4409
    5.700    4.7218
    5.715    4.6340
    5.730    5.0026
    5.745    4.9149
    5.760    4.5989
    5.775    4.4234
    5.790    4.8447
    5.805    4.4936
    5.820    4.8271
    5.835    4.3356
    5.850    4.7218
    5.865    4.5814
    5.880    4.8973
    5.895    5.1431
    5.910    5.3186
    5.925    4.9149
    5.940    4.6691
    5.955    4.3356
    5.970    4.6691
    5.985    4.3707
    6.000    4.5638
    6.015    4.9324
    6.030    4.7218
    6.045    4.3532
    6.060    4.4234
    6.075    4.5989
    6.090    5.0202
    6.105    4.8622
    6.120    4.6340
    6.135    5.0202
    6.150    4.4936
    6.165    4.5463
    6.180    4.9149
    6.195    4.8447
    6.210    4.7744
    6.225    4.5287
    6.240    4.5287
    6.255    4.6165
    6.270    4.8447
    6.285    4.2303
    6.300    4.6516
    6.315    5.0553
    6.330    4.7218
    6.345    4.3707
    6.360    5.0026
    6.375    4.8798
    6.390    4.6516
    6.405    4.6340
    6.420    4.7393
    6.435    5.2659
    6.450    4.7920
    6.465    4.8973
    6.480    4.8973
    6.495    4.6165
    6.510    5.2659
    6.525    4.7569
    6.540    4.5814
    6.555    4.5287
    6.570    4.5287
    6.585    4.5111
    6.600    4.9675
    6.615    4.5638
    6.630    4.4234
    6.645    4.6165
    6.660    4.7393
    6.675    4.7393
    6.690    4.6165
    6.705    4.6691
    6.720    4.6691
    6.735    4.2830
    6.750    4.5638
    6.765    4.7393
    6.780    4.7569
    6.795    4.5989
    6.810    4.9675
    6.825    4.9675
    6.840    5.0553
    6.855    4.7393
    6.870    4.4936
    6.885    4.8798
    6.900    4.7218
    6.915    4.6691
    6.930    4.6867
    6.945    4.9324
    6.960    4.8973
    6.975    5.1431
    6.990    4.5814
    7.005    4.5814
    7.020    4.6516
    7.035    4.4058
    7.050    4.5989
    7.065    4.8622
    7.080    4.6165
    7.095    4.7393
    7.110    4.6516
    7.125    5.0202
    7.140    5.0728
    7.155    4.8095
    7.170    5.2484
    7.185    5.1255
    7.200    4.9675
    7.215    4.5989
    7.230    5.1782
    7.245    5.0904
    7.260    5.0553
    7.275    5.0202
    7.290    4.6867
    7.305    4.4760
    7.320    4.9675
    7.335    5.1957
    7.350    4.8447
    7.365    5.0728
    7.380    4.7569
    7.395    4.7393
    7.410    4.7744
    7.425    4.9500
    7.440    5.0904
    7.455    5.1080
    7.470    4.7920
    7.485    4.5638
    7.500    5.0202
    7.515    4.5989
    7.530    4.7744
    7.545    4.5814
    7.560    4.7744
    7.575    4.9851
    7.590    5.0377
    7.605    4.8447
    7.620    4.7393
    7.635    5.0026
    7.650    4.9675
    7.665    5.3888
    7.680    5.1255
    7.695    4.5989
    7.710    4.8798
    7.725    5.2484
    7.740    5.4064
    7.755    5.4064
    7.770    4.8095
    7.785    4.5287
    7.800    4.5638
    7.815    5.4064
    7.830    5.0377
    7.845    4.4936
    7.860    4.5638
    7.875    5.0202
    7.890    5.6345
    7.905    5.6521
    7.920    5.4941
    7.935    5.0728
    7.950    5.3361
    7.965    5.8276
    7.980    5.5117
    7.995    4.8798
    8.010    5.4590
    8.025    5.0202
    8.040    4.8095
    8.055    5.7399
    8.070    5.7223
    8.085    5.6872
    8.100    6.0207
    8.115    6.4771
    8.130    7.0388
    8.145    7.1968
    8.160    6.4420
    8.175    5.8803
    8.190    6.0032
    8.205    5.6345
    8.220    5.5117
    8.235    4.9324
    8.250    4.3883
    8.265    4.7218
    8.280    4.5638
    8.295    4.6516
    8.310    5.0026
    8.325    5.0553
    8.340    5.3010
    8.355    5.2659
    8.370    4.9149
    8.385    4.9324
    8.400    5.0728
    8.415    4.5814
    8.430    4.8447
    8.445    4.8798
    8.460    5.0553
    8.475    4.9149
    8.490    4.8622
    8.505    4.5111
    8.520    5.1606
    8.535    5.0553
    8.550    5.0026
    8.565    5.1255
    8.580    5.1782
    8.595    4.5111
    8.610    4.9149
    8.625    4.9149
    8.640    5.1782
    8.655    5.5468
    8.670    5.4941
    8.685    5.3712
    8.700    5.3186
    8.715    5.3361
    8.730    4.9500
    8.745    5.3888
    8.760    5.3010
    8.775    4.9675
    8.790    4.6867
    8.805    4.9324
    8.820    4.9149
    8.835    5.2133
    8.850    5.0377
    8.865    4.7744
    8.880    5.2835
    8.895    4.6691
    8.910    5.0026
    8.925    5.2133
    8.940    5.3010
    8.955    5.4064
    8.970    5.5292
    8.985    5.2835
    9.000    4.8622
    9.015    5.3537
    9.030    5.5994
    9.045    5.1782
    9.060    5.1431
    9.075    5.5292
    9.090    5.0904
    9.105    4.6691
    9.120    4.9675
    9.135    5.3010
    9.150    5.0728
    9.165    5.1255
    9.180    4.6516
    9.195    4.6165
    9.210    4.9675
    9.225    5.1431
    9.240    5.1431
    9.255    5.3186
    9.270    4.9851
    9.285    5.6170
    9.300    5.4064
    9.315    5.2133
    9.330    4.7569
    9.345    5.3537
    9.360    5.0728
    9.375    5.1080
    9.390    5.2835
    9.405    5.4766
    9.420    5.4239
    9.435    5.5819
    9.450    5.7750
    9.465    5.3712
    9.480    5.2133
    9.495    5.1957
    9.510    5.0202
    9.525    5.1255
    9.540    5.0904
    9.555    5.6170
    9.570    5.4064
    9.585    5.7925
    9.600    5.4590
    9.615    5.3361
    9.630    5.4941
    9.645    5.7223
    9.660    5.6170
    9.675    5.1782
    9.690    5.5643
    9.705    5.6170
    9.720    5.1782
    9.735    5.2659
    9.750    5.0026
    9.765    5.6872
    9.780    5.8276
    9.795    5.5292
    9.810    5.4766
    9.825    5.4941
    9.840    5.7223
    9.855    5.2133
    9.870    5.5292
    9.885    5.5643
    9.900    5.6872
    9.915    5.6697
    9.930    5.4064
    9.945    5.6521
    9.960    5.4590
    9.975    5.2133
    9.990    5.6170
   10.005    5.6872
   10.020    5.5468
   10.035    5.1431
   10.050    5.6170
   10.065    5.8627
   10.080    5.1957
   10.095    5.0728
   10.110    5.2659
   10.125    5.6521
   10.140    5.8452
   10.155    5.4064
   10.170    5.5117
   10.185    5.7399
   10.200    5.5468
   10.215    5.2835
   10.230    5.5643
   10.245    5.1080
   10.260    5.5292
   10.275    6.3191
   10.290    5.9681
   10.305    5.5292
   10.320    5.9681
   10.335    6.0207
   10.350    5.4766
   10.365    6.0032
   10.380    5.8452
   10.395    5.4415
   10.410    5.8101
   10.425    5.8101
   10.440    6.0909
   10.455    5.6872
   10.470    5.9329
   10.485    6.5298
   10.500    6.3191
   10.515    5.9329
   10.530    5.7925
   10.545    5.8627
   10.560    5.9154
   10.575    5.8978
   10.590    6.3191
   10.605    6.0383
   10.620    6.3191
   10.635    7.0915
   10.650    7.5127
   10.665    7.7058
   10.680    7.4425
   10.695    6.9510
   10.710    6.8808
   10.725    6.3893
   10.740    6.3191
   10.755    5.7574
   10.770    5.9329
   10.785    5.9681
   10.800    6.3718
   10.815    6.1260
   10.830    6.1611
   10.845    5.5643
   10.860    5.8101
   10.875    5.7048
   10.890    5.8627
   10.905    5.7223
   10.920    5.6872
   10.935    5.8627
   10.950    5.7925
   10.965    6.0032
   10.980    5.8803
   10.995    6.1962
   11.010    5.8452
   11.025    5.9329
   11.040    5.0026
   11.055    6.0207
   11.070    5.8276
   11.085    6.4946
   11.100    5.9681
   11.115    5.9329
   11.130    6.0909
   11.145    6.4420
   11.160    6.1436
   11.175    5.8101
   11.190    5.9681
   11.205    5.9329
   11.220    5.6872
   11.235    6.0032
   11.250    5.6872
   11.265    5.8276
   11.280    5.6872
   11.295    5.8101
   11.310    5.7399
   11.325    5.6521
   11.340    6.2138
   11.355    5.6521
   11.370    5.8101
   11.385    5.9681
   11.400    6.2665
   11.415    6.0383
   11.430    5.9856
   11.445    5.9329
   11.460    5.8101
   11.475    6.4420
   11.490    6.3016
   11.505    6.2313
   11.520    6.1436
   11.535    6.3191
   11.550    6.6877
   11.565    6.3016
   11.580    6.2489
   11.595    6.0558
   11.610    5.6170
   11.625    5.8276
   11.640    5.5468
   11.655    6.1260
   11.670    6.2840
   11.685    6.5473
   11.700    6.1611
   11.715    6.0558
   11.730    6.0558
   11.745    6.4771
   11.760    6.0032
   11.775    6.3191
   11.790    6.3542
   11.805    6.3542
   11.820    6.4069
   11.835    6.0734
   11.850    5.8452
   11.865    6.0383
   11.880    6.0909
   11.895    5.5468
   11.910    6.4244
   11.925    6.1787
   11.940    6.1260
   11.955    6.0734
   11.970    6.2138
   11.985    6.3367
   12.000    6.3893
   12.015    6.3191
   12.030    6.5649
   12.045    6.3542
   12.060    6.3718
   12.075    5.9505
   12.090    5.6697
   12.105    6.3542
   12.120    6.4946
   12.135    7.0037
   12.150    6.0734
   12.165    6.5649
   12.180    6.6175
   12.195    6.4244
   12.210    6.3016
   12.225    6.6877
   12.240    6.8633
   12.255    6.1611
   12.270    6.3542
   12.285    6.3893
   12.300    6.0558
   12.315    6.8106
   12.330    6.6351
   12.345    6.2665
   12.360    6.9861
   12.375    6.7930
   12.390    6.5649
   12.405    6.3718
   12.420    6.3367
   12.435    6.4946
   12.450    6.3016
   12.465    5.7750
   12.480    6.5298
   12.495    6.3016
   12.510    6.4244
   12.525    6.6175
   12.540    7.1968
   12.555    7.0037
   12.570    7.1792
   12.585    7.3723
   12.600    7.0563
   12.615    7.1792
   12.630    7.1441
   12.645    7.4074
   12.660    6.4069
   12.675    6.6702
   12.690    6.7930
   12.705    6.7579
   12.720    6.9159
   12.735    6.7930
   12.750    6.6877
   12.765    7.1968
   12.780    7.1617
   12.795    6.9510
   12.810    6.7755
   12.825    6.5298
   12.840    6.7404
   12.855    7.0915
   12.870    7.2494
   12.885    6.3191
   12.900    6.8984
   12.915    7.1441
   12.930    6.6175
   12.945    7.1090
   12.960    7.1968
   12.975    7.0915
   12.990    6.7579
   13.005    7.3547
   13.020    7.3723
   13.035    7.3723
   13.050    7.3196
   13.065    7.3723
   13.080    7.4601
   13.095    7.1792
   13.110    7.0915
   13.125    6.8457
   13.140    7.1090
   13.155    7.2670
   13.170    6.9159
   13.185    7.2670
   13.200    7.4250
   13.215    7.3196
   13.230    7.6707
   13.245    7.9340
   13.260    8.1973
   13.275    7.6532
   13.290    7.4601
   13.305    7.4425
   13.320    7.7058
   13.335    7.4074
   13.350    7.2494
   13.365    7.4250
   13.380    7.8638
   13.395    7.1441
   13.410    7.2670
   13.425    7.2319
   13.440    7.7234
   13.455    8.1446
   13.470    7.8813
   13.485    7.7936
   13.500    7.0388
   13.515    6.8457
   13.530    8.0042
   13.545    7.6532
   13.560    8.0393
   13.575    7.6532
   13.590    7.8813
   13.605    7.8111
   13.620    7.6180
   13.635    7.5829
   13.650    7.8462
   13.665    8.1271
   13.680    8.6712
   13.695    7.7058
   13.710    7.6005
   13.725    8.1095
   13.740    8.2500
   13.755    8.3202
   13.770    8.5133
   13.785    8.4606
   13.800    8.3728
   13.815    8.4255
   13.830    8.1973
   13.845    7.4952
   13.860    7.9164
   13.875    8.0218
   13.890    8.4957
   13.905    8.2500
   13.920    8.3904
   13.935    8.0569
   13.950    7.8287
   13.965    8.4781
   13.980    8.3728
   13.995    9.2680
   14.010    8.6361
   14.025    8.6361
   14.040    9.2329
   14.055    7.8287
   14.070    8.2851
   14.085    8.7590
   14.100    8.9170
   14.115    8.7239
   14.130    8.8468
   14.145    8.2851
   14.160    8.3728
   14.175    8.2149
   14.190    8.2500
   14.205    8.7941
   14.220    8.4255
   14.235    8.5308
   14.250    9.1627
   14.265    8.8468
   14.280    9.1452
   14.295    8.9872
   14.310    8.9696
   14.325    9.2505
   14.340    8.9872
   14.355    9.1627
   14.370    9.6191
   14.385    9.3207
   14.400    8.9170
   14.415    9.1452
   14.430    9.1627
   14.445    8.9696
   14.460    8.8994
   14.475    8.7239
   14.490    8.5484
   14.505    9.6893
   14.520    9.9175
   14.535    9.5138
   14.550    9.3734
   14.565    9.1101
   14.580    8.8292
   14.595    9.2505
   14.610    9.0574
   14.625    8.8819
   14.640    9.1978
   14.655    9.1978
   14.670   10.3914
   14.685    9.8824
   14.700    9.5138
   14.715    9.4260
   14.730    9.6367
   14.745   10.5143
   14.760   10.1983
   14.775    9.9877
   14.790    9.9877
   14.805   10.3388
   14.820    9.4260
   14.835    9.6015
   14.850    9.7244
   14.865    9.7420
   14.880    9.2856
   14.895    9.2154
   14.910    9.9702
   14.925   10.5143
   14.940   10.1808
   14.955    9.8122
   14.970    9.8297
   14.985    9.8648
   15.000   10.3388
   15.015   10.0930
   15.030    9.9526
   15.045   10.3914
   15.060   10.8303
   15.075   11.0409
   15.090   10.5319
   15.105    9.9702
   15.120   10.2510
   15.135   10.2335
   15.150   10.2510
   15.165    9.5138
   15.180    9.8824
   15.195   10.4441
   15.210   10.6547
   15.225   10.8829
   15.240   11.2515
   15.255   11.1111
   15.270   10.6723
   15.285   11.5324
   15.300   11.7255
   15.315   11.1989
   15.330   11.8132
   15.345   11.8483
   15.360   11.2340
   15.375   11.5850
   15.390   11.7079
   15.405   11.9186
   15.420   11.4446
   15.435   11.1462
   15.450   11.4622
   15.465   11.6377
   15.480   11.6026
   15.495   11.5324
   15.510   12.1116
   15.525   11.8834
   15.540   11.3569
   15.555   11.5675
   15.570   11.5324
   15.585   11.1813
   15.600   11.3920
   15.615   11.7781
   15.630   12.0941
   15.645   11.9537
   15.660   12.6909
   15.675   11.8659
   15.690   11.9888
   15.705   11.4095
   15.720   12.4100
   15.735   11.8659
   15.750   12.6909
   15.765   12.7260
   15.780   12.1819
   15.795   12.0414
   15.810   12.5680
   15.825   13.2350
   15.840   13.0771
   15.855   12.2345
   15.870   12.4978
   15.885   12.5154
   15.900   13.2877
   15.915   13.6037
   15.930   13.3228
   15.945   12.7962
   15.960   12.6382
   15.975   12.5856
   15.990   13.0946
   16.005   13.6388
   16.020   14.0074
   16.035   13.1648
   16.050   13.0068
   16.065   13.9196
   16.080   13.8318
   16.095   13.3755
   16.110   13.1297
   16.125   13.3579
   16.140   13.9372
   16.155   13.7967
   16.170   14.2531
   16.185   14.6042
   16.200   13.8494
   16.215   14.5340
   16.230   14.4638
   16.245   14.5340
   16.260   13.9547
   16.275   14.0600
   16.290   14.1654
   16.305   13.5685
   16.320   14.4813
   16.335   14.6919
   16.350   14.7446
   16.365   15.1834
   16.380   14.9728
   16.395   15.7451
   16.410   16.1137
   16.425   15.2887
   16.440   15.4467
   16.455   15.6398
   16.470   15.4818
   16.485   14.5164
   16.500   14.1654
   16.515   14.8675
   16.530   14.6393
   16.545   15.0255
   16.560   14.5164
   16.575   14.4638
   16.590   14.5340
   16.605   15.2887
   16.620   15.7627
   16.635   15.0957
   16.650   15.0430
   16.665   15.4818
   16.680   15.1659
   16.695   15.0079
   16.710   16.3770
   16.725   15.7451
   16.740   15.4818
   16.755   15.5345
   16.770   15.2536
   16.785   15.8153
   16.800   16.1489
   16.815   16.5175
   16.830   17.2722
   16.845   16.2542
   16.860   15.8504
   16.875   16.1664
   16.890   16.9563
   16.905   16.6052
   16.920   15.5696
   16.935   16.4648
   16.950   16.9563
   16.965   16.5175
   16.980   16.3244
   16.995   15.8329
   17.010   16.2717
   17.025   16.4473
   17.040   16.5175
   17.055   16.6228
   17.070   16.5701
   17.085   17.7637
   17.100   17.7286
   17.115   17.5882
   17.130   17.2196
   17.145   16.7106
   17.160   17.9393
   17.175   17.2020
   17.190   17.5004
   17.205   17.3249
   17.220   17.8866
   17.235   17.2898
   17.250   17.2196
   17.265   17.4829
   17.280   17.0616
   17.295   17.1318
   17.310   17.5180
   17.325   17.3776
   17.340   17.0441
   17.355   17.7988
   17.370   18.0095
   17.385   18.1499
   17.400   18.1675
   17.415   17.8164
   17.430   18.5185
   17.445   18.1324
   17.460   17.9393
   17.475   18.2728
   17.490   17.5531
   17.505   18.8871
   17.520   19.0100
   17.535   17.9919
   17.550   18.2552
   17.565   18.3781
   17.580   18.9047
   17.595   19.6770
   17.610   18.6238
   17.625   18.5712
   17.640   19.3962
   17.655   18.7116
   17.670   18.5361
   17.685   19.2031
   17.700   19.7648
   17.715   19.7121
   17.730   19.7472
   17.745   19.7999
   17.760   20.0105
   17.775   19.8701
   17.790   19.5893
   17.805   20.9408
   17.820   21.9414
   17.835   20.9057
   17.850   21.4148
   17.865   21.0637
   17.880   20.7478
   17.895   19.6770
   17.910   19.6244
   17.925   20.0456
   17.940   19.3611
   17.955   19.7472
   17.970   20.1861
   17.985   20.0983
   18.000   20.7653
   18.015   20.0983
   18.030   20.3089
   18.045   20.3616
   18.060   21.3797
   18.075   20.3089
   18.090   20.4494
   18.105   20.6775
   18.120   20.8355
   18.135   20.8355
   18.150   20.7653
   18.165   20.3791
   18.180   19.9930
   18.195   21.6254
   18.210   21.3797
   18.225   20.5196
   18.240   20.4494
   18.255   22.0116
   18.270   21.5025
   18.285   20.9057
   18.300   20.2212
   18.315   20.7829
   18.330   19.9930
   18.345   21.5728
   18.360   22.4855
   18.375   22.5206
   18.390   21.7483
   18.405   21.5377
   18.420   21.3621
   18.435   21.6254
   18.450   23.4860
   18.465   23.8196
   18.480   22.8717
   18.495   23.4509
   18.510   23.5738
   18.525   23.7493
   18.540   23.4158
   18.555   23.3807
   18.570   22.4329
   18.585   22.0818
   18.600   22.3275
   18.615   21.9414
   18.630   21.2217
   18.645   22.4680
   18.660   22.9595
   18.675   22.4504
   18.690   21.6956
   18.705   21.8712
   18.720   22.3275
   18.735   22.4680
   18.750   22.2749
   18.765   22.6786
   18.780   22.5206
   18.795   21.9238
   18.810   21.9414
   18.825   22.2222
   18.840   21.7132
   18.855   21.7658
   18.870   21.8712
   18.885   21.2919
   18.900   22.5908
   18.915   22.2047
   18.930   22.6259
   18.945   22.8892
   18.960   23.2403
   18.975   22.6084
   18.990   22.8015
   19.005   23.9951
   19.020   22.4855
   19.035   21.7307
   19.050   23.2052
   19.065   22.1696
   19.080   22.9770
   19.095   22.3275
   19.110   22.1520
   19.125   22.2047
   19.140   21.7658
   19.155   22.8892
   19.170   22.9595
   19.185   21.5025
   19.200   21.5025
   19.215   22.1520
   19.230   21.1515
   19.245   21.9765
   19.260   22.2749
   19.275   22.1696
   19.290   22.6259
   19.305   22.2222
   19.320   22.8717
   19.335   22.8892
   19.350   21.6781
   19.365   22.2222
   19.380   21.9063
   19.395   21.7307
   19.410   21.8712
   19.425   22.5206
   19.440   21.8536
   19.455   22.4153
   19.470   23.0823
   19.485   23.2227
   19.500   22.1696
   19.515   21.4323
   19.530   21.9589
   19.545   22.8190
   19.560   22.2924
   19.575   22.6435
   19.590   23.5212
   19.605   22.5908
   19.620   21.9940
   19.635   21.9063
   19.650   22.0642
   19.665   22.6786
   19.680   22.3451
   19.695   21.7132
   19.710   21.6254
   19.725   22.2222
   19.740   21.7307
   19.755   21.3270
   19.770   21.2568
   19.785   21.9414
   19.800   22.4153
   19.815   21.7834
   19.830   21.6956
   19.845   22.2573
   19.860   21.1515
   19.875   21.2041
   19.890   20.6249
   19.905   20.7653
   19.920   21.3446
   19.935   21.5201
   19.950   21.6254
   19.965   21.4499
   19.980   21.9238
   19.995   21.6254
   20.010   21.6079
   20.025   20.7127
   20.040   21.2041
   20.055   21.3621
   20.070   21.6605
   20.085   21.1164
   20.100   20.5020
   20.115   21.0813
   20.130   21.2919
   20.145   21.5552
   20.160   20.4669
   20.175   21.9589
   20.190   20.9233
   20.205   21.0111
   20.220   21.4148
   20.235   21.5903
   20.250   21.3972
   20.265   21.1690
   20.280   21.3972
   20.295   21.5728
   20.310   21.5552
   20.325   20.5196
   20.340   21.3446
   20.355   21.3621
   20.370   21.4148
   20.385   21.8712
   20.400   21.4499
   20.415   19.8526
   20.430   20.3616
   20.445   20.5898
   20.460   20.2563
   20.475   20.3616
   20.490   21.0462
   20.505   20.2212
   20.520   20.0456
   20.535   20.8004
   20.550   19.9930
   20.565   20.1861
   20.580   20.0807
   20.595   20.0983
   20.610   20.2036
   20.625   19.9754
   20.640   20.3265
   20.655   20.0105
   20.670   19.8526
   20.685   20.0281
   20.700   19.9228
   20.715   19.8350
   20.730   19.2909
   20.745   19.2909
   20.760   20.7829
   20.775   19.1329
   20.790   18.9398
   20.805   20.0632
   20.820   19.2909
   20.835   20.0983
   20.850   20.3089
   20.865   19.2733
   20.880   18.5887
   20.895   19.3611
   20.910   19.6068
   20.925   19.1680
   20.940   19.2733
   20.955   18.2903
   20.970   18.2728
   20.985   18.9222
   21.000   19.1329
   21.015   19.6946
   21.030   19.9403
   21.045   19.2382
   21.060   19.2909
   21.075   17.8164
   21.090   18.2728
   21.105   18.9749
   21.120   18.6063
   21.135   18.7643
   21.150   18.6940
   21.165   17.8164
   21.180   18.0621
   21.195   18.5536
   21.210   17.6409
   21.225   18.5361
   21.240   18.4308
   21.255   18.3781
   21.270   17.5707
   21.285   18.3430
   21.300   17.7988
   21.315   17.3776
   21.330   18.0621
   21.345   18.4132
   21.360   17.2898
   21.375   17.3425
   21.390   17.0441
   21.405   17.0792
   21.420   17.5355
   21.435   17.8339
   21.450   17.1318
   21.465   18.0095
   21.480   18.9925
   21.495   17.9568
   21.510   16.9563
   21.525   17.5531
   21.540   18.0797
   21.555   17.4302
   21.570   17.1845
   21.585   17.6058
   21.600   17.0090
   21.615   17.5180
   21.630   17.0967
   21.645   16.4297
   21.660   17.0090
   21.675   16.7457
   21.690   16.5701
   21.705   16.5701
   21.720   16.7281
   21.735   17.0265
   21.750   17.0090
   21.765   16.8159
   21.780   16.0786
   21.795   16.5526
   21.810   16.7281
   21.825   16.9738
   21.840   16.4824
   21.855   15.8504
   21.870   16.3770
   21.885   16.4121
   21.900   15.9031
   21.915   15.6574
   21.930   16.4297
   21.945   16.1137
   21.960   16.2366
   21.975   15.3063
   21.990   16.0435
   22.005   16.2366
   22.020   15.8504
   22.035   15.8329
   22.050   15.8856
   22.065   16.2893
   22.080   15.8153
   22.095   14.8850
   22.110   15.4994
   22.125   15.4467
   22.140   15.5520
   22.155   15.1132
   22.170   15.6047
   22.185   15.9207
   22.200   15.0255
   22.215   14.8675
   22.230   15.5169
   22.245   15.5696
   22.260   15.5696
   22.275   14.6217
   22.290   14.7446
   22.305   14.7095
   22.320   15.3239
   22.335   14.8675
   22.350   14.8850
   22.365   15.1483
   22.380   14.7095
   22.395   14.5866
   22.410   14.7095
   22.425   14.8324
   22.440   15.0430
   22.455   15.3941
   22.470   14.8850
   22.485   15.5872
   22.500   14.6042
   22.515   13.3930
   22.530   14.1302
   22.545   14.3233
   22.560   15.3765
   22.575   14.4989
   22.590   14.4638
   22.605   14.2180
   22.620   14.7622
   22.635   14.6919
   22.650   15.0079
   22.665   15.2185
   22.680   14.8324
   22.695   14.4813
   22.710   14.3409
   22.725   13.9021
   22.740   14.2882
   22.755   14.3058
   22.770   13.9723
   22.785   14.2356
   22.800   13.6037
   22.815   13.2526
   22.830   14.2356
   22.845   13.7090
   22.860   12.7962
   22.875   13.3755
   22.890   13.4808
   22.905   13.9372
   22.920   13.9196
   22.935   14.3233
   22.950   12.8489
   22.965   13.7967
   22.980   12.8840
   22.995   12.9542
   23.010   13.3404
   23.025   13.2877
   23.040   12.6909
   23.055   13.1122
   23.070   13.1122
   23.085   13.3930
   23.100   12.8313
   23.115   12.4276
   23.130   12.9542
   23.145   13.8845
   23.160   12.5154
   23.175   12.9366
   23.190   13.5334
   23.205   13.0595
   23.220   13.0420
   23.235   12.6733
   23.250   12.7260
   23.265   13.3228
   23.280   12.6382
   23.295   12.3223
   23.310   12.9366
   23.325   12.7611
   23.340   12.7084
   23.355   13.0244
   23.370   12.8664
   23.385   12.9717
   23.400   12.7084
   23.415   13.4632
   23.430   12.4803
   23.445   12.1994
   23.460   13.0068
   23.475   12.6382
   23.490   12.6558
   23.505   12.1819
   23.520   11.7430
   23.535   12.1116
   23.550   12.3047
   23.565   13.0771
   23.580   12.4978
   23.595   12.8138
   23.610   12.2345
   23.625   11.8834
   23.640   11.6728
   23.655   11.8659
   23.670   12.1643
   23.685   12.8138
   23.700   12.5329
   23.715   13.2175
   23.730   11.9537
   23.745   12.1643
   23.760   13.0244
   23.775   12.9366
   23.790   12.8489
   23.805   13.4106
   23.820   13.3579
   23.835   12.5680
   23.850   11.3217
   23.865   11.7957
   23.880   12.2170
   23.895   11.4797
   23.910   11.5850
   23.925   11.9888
   23.940   11.3920
   23.955   10.9356
   23.970   11.0760
   23.985   10.7952
   24.000   10.7600
   24.015   11.0936
   24.030   10.9356
   24.045   10.8829
   24.060   11.1813
   24.075   11.5324
   24.090   11.9888
   24.105   11.2164
   24.120   11.2164
   24.135   11.2691
   24.150   11.6202
   24.165   11.4622
   24.180   10.7952
   24.195   11.4095
   24.210   10.8303
   24.225   11.2691
   24.240   10.7074
   24.255   11.1813
   24.270   11.1287
   24.285   11.1813
   24.300   11.0409
   24.315   11.1813
   24.330   10.8654
   24.345   10.6898
   24.360   10.7952
   24.375   11.0760
   24.390   11.1989
   24.405   10.8478
   24.420   11.2164
   24.435   10.6723
   24.450   10.9707
   24.465   10.6723
   24.480   11.0058
   24.495   10.8478
   24.510   11.0585
   24.525   10.9356
   24.540   10.6547
   24.555   10.8654
   24.570   10.7249
   24.585   10.7776
   24.600   10.7600
   24.615   10.2510
   24.630   10.4616
   24.645   10.7074
   24.660   10.4090
   24.675   10.2510
   24.690   10.4265
   24.705   10.3388
   24.720    9.9351
   24.735    9.8297
   24.750   10.3037
   24.765   10.3212
   24.780   10.4792
   24.795   10.7776
   24.810   10.4968
   24.825   10.5670
   24.840   10.4968
   24.855    9.8999
   24.870   10.4265
   24.885   10.3739
   24.900   10.4792
   24.915   10.1632
   24.930   10.0930
   24.945   10.7249
   24.960    9.7420
   24.975    9.4787
   24.990    9.6015
   25.005    9.6191
   25.020   10.0930
   25.035   10.0579
   25.050   10.2510
   25.065    9.7595
   25.080    9.9351
   25.095   10.3388
   25.110   10.6898
   25.125   10.4441
   25.140   10.7776
   25.155   11.7430
   25.170   11.4797
   25.185   12.4451
   25.200   12.0765
   25.215   12.5329
   25.230   12.6909
   25.245   11.9888
   25.260   11.0233
   25.275   10.9707
   25.290   10.6372
   25.305   10.1983
   25.320    9.1803
   25.335    9.5840
   25.350    9.3031
   25.365    9.3909
   25.380    9.2680
   25.395   10.0053
   25.410    9.7420
   25.425   10.1632
   25.440    9.7069
   25.455    9.0398
   25.470    9.1803
   25.485    9.4611
   25.500   10.2335
   25.515    9.8297
   25.530    9.8473
   25.545    9.2856
   25.560    9.4085
   25.575    9.5313
   25.590    9.7771
   25.605    9.3031
   25.620    9.6367
   25.635    9.7595
   25.650    9.3909
   25.665    9.5313
   25.680    9.8122
   25.695    8.9345
   25.710    9.6015
   25.725   10.1632
   25.740    9.2505
   25.755    9.1276
   25.770    9.5313
   25.785    9.7946
   25.800    9.2329
   25.815    8.8994
   25.830    9.3207
   25.845    9.1452
   25.860    8.4781
   25.875    8.5484
   25.890    9.0047
   25.905    9.0925
   25.920    9.1101
   25.935    9.1276
   25.950    9.1803
   25.965    8.6712
   25.980    8.8994
   25.995    9.0398
   26.010    9.2505
   26.025    8.7239
   26.040    9.4962
   26.055    8.9872
   26.070    9.1978
   26.085    8.3904
   26.100    8.6712
   26.115    9.1803
   26.130    8.7590
   26.145    8.8117
   26.160    8.7765
   26.175    9.4260
   26.190    8.7590
   26.205    8.8117
   26.220    8.6888
   26.235    8.5133
   26.250    9.3031
   26.265    8.9872
   26.280    8.7590
   26.295    8.8292
   26.310    9.1101
   26.325    8.6537
   26.340    8.7941
   26.355    8.7590
   26.370    8.4255
   26.385    8.2851
   26.400    9.0047
   26.415    8.4957
   26.430    8.4781
   26.445    8.5659
   26.460    8.3377
   26.475    9.0574
   26.490    8.2851
   26.505    8.3026
   26.520    8.7063
   26.535    8.7063
   26.550    8.9696
   26.565    8.7590
   26.580    8.5308
   26.595    9.0574
   26.610    8.7941
   26.625    8.6712
   26.640    8.3026
   26.655    8.6186
   26.670    8.6361
   26.685    9.3031
   26.700    9.1978
   26.715    9.2329
   26.730    9.6191
   26.745    9.8824
   26.760   10.1106
   26.775   10.4090
   26.790   11.2164
   26.805   11.2691
   26.820   10.8654
   26.835   11.3393
   26.850   10.3739
   26.865   10.6723
   26.880   10.9356
   26.895    9.5138
   26.910    9.2505
   26.925    8.5835
   26.940    8.6010
   26.955    8.6712
   26.970    8.3377
   26.985    8.1271
   27.000    8.0393
   27.015    8.3026
   27.030    8.4606
   27.045    8.2851
   27.060    7.9340
   27.075    8.0393
   27.090    7.9867
   27.105    7.9516
   27.120    8.1095
   27.135    8.5484
   27.150    8.6361
   27.165    8.7941
   27.180    8.4255
   27.195    9.0223
   27.210    8.6186
   27.225    8.5308
   27.240    8.4430
   27.255    8.8468
   27.270    8.5308
   27.285    7.8638
   27.300    8.0393
   27.315    8.4079
   27.330    7.9340
   27.345    8.1446
   27.360    7.8638
   27.375    7.7234
   27.390    8.0218
   27.405    8.1446
   27.420    7.5829
   27.435    7.7409
   27.450    7.6883
   27.465    7.7058
   27.480    8.0218
   27.495    7.4601
   27.510    7.4952
   27.525    7.7936
   27.540    7.9867
   27.555    8.1446
   27.570    8.0744
   27.585    8.0042
   27.600    7.8462
   27.615    7.5127
   27.630    7.8989
   27.645    7.6356
   27.660    8.2675
   27.675    8.1622
   27.690    7.7585
   27.705    8.0744
   27.720    7.7936
   27.735    7.6356
   27.750    7.8638
   27.765    8.5484
   27.780    8.3202
   27.795    7.8813
   27.810    7.5654
   27.825    8.6010
   27.840    7.8462
   27.855    7.8638
   27.870    7.4952
   27.885    6.9686
   27.900    7.2670
   27.915    8.2675
   27.930    7.8287
   27.945    8.1446
   27.960    7.8111
   27.975    8.1622
   27.990    7.7936
   28.005    7.8111
   28.020    7.5654
   28.035    7.7760
   28.050    7.2845
   28.065    7.2319
   28.080    7.2143
   28.095    7.5654
   28.110    7.6005
   28.125    7.5303
   28.140    7.4952
   28.155    7.1441
   28.170    6.8984
   28.185    7.2494
   28.200    7.8111
   28.215    7.8111
   28.230    7.4250
   28.245    7.0915
   28.260    6.9510
   28.275    7.0212
   28.290    7.3372
   28.305    7.5478
   28.320    7.5303
   28.335    7.6532
   28.350    7.0212
   28.365    7.0388
   28.380    7.1968
   28.395    6.7404
   28.410    6.9861
   28.425    7.4776
   28.440    7.3196
   28.455    7.4425
   28.470    7.4776
   28.485    7.0563
   28.500    7.2494
   28.515    7.1968
   28.530    7.5303
   28.545    7.7058
   28.560    7.2319
   28.575    7.4601
   28.590    7.2319
   28.605    7.3196
   28.620    6.9686
   28.635    7.0915
   28.650    7.5303
   28.665    6.8282
   28.680    7.3372
   28.695    7.0388
   28.710    6.8984
   28.725    6.5473
   28.740    7.3196
   28.755    7.6532
   28.770    7.6180
   28.785    7.0037
   28.800    7.3899
   28.815    7.3547
   28.830    7.0915
   28.845    7.4074
   28.860    7.1266
   28.875    7.1090
   28.890    6.7579
   28.905    7.2143
   28.920    7.4250
   28.935    7.2143
   28.950    7.4601
   28.965    7.4952
   28.980    6.6000
   28.995    7.4250
   29.010    7.5829
   29.025    7.4776
   29.040    7.4776
   29.055    7.1441
   29.070    7.0388
   29.085    7.1090
   29.100    6.7755
   29.115    7.0037
   29.130    6.9335
   29.145    6.8808
   29.160    6.6175
   29.175    7.4425
   29.190    7.5654
   29.205    6.5473
   29.220    7.4601
   29.235    6.8106
   29.250    6.9335
   29.265    6.3367
   29.280    7.0212
   29.295    7.0212
   29.310    7.0388
   29.325    6.4771
   29.340    7.0739
   29.355    6.8984
   29.370    7.1617
   29.385    7.2143
   29.400    6.7755
   29.415    7.1266
   29.430    7.4250
   29.445    6.8984
   29.460    7.0739
   29.475    7.6356
   29.490    7.1792
   29.505    7.0037
   29.520    6.8633
   29.535    6.9686
   29.550    6.2138
   29.565    6.8282
   29.580    6.9510
   29.595    6.7404
   29.610    6.9861
   29.625    6.5298
   29.640    6.8984
   29.655    7.2670
   29.670    6.8457
   29.685    7.3196
   29.700    6.7755
   29.715    6.6175
   29.730    6.7053
   29.745    6.6175
   29.760    6.7579
   29.775    7.5478
   29.790    7.1090
   29.805    6.7755
   29.820    7.1090
   29.835    6.4244
   29.850    6.9335
   29.865    6.3893
   29.880    6.7579
   29.895    6.9335
   29.910    6.6526
   29.925    6.7404
   29.940    6.6877
   29.955    6.8633
   29.970    6.3542
   29.985    6.4946
   30.000    6.9335
   30.015    6.5298
   30.030    6.6702
   30.045    6.9861
   30.060    6.6877
   30.075    6.8106
   30.090    6.7404
   30.105    6.8457
   30.120    6.8457
   30.135    6.6000
   30.150    6.4771
   30.165    6.6877
   30.180    6.5649
   30.195    6.4771
   30.210    6.5298
   30.225    6.6351
   30.240    6.0207
   30.255    6.5824
   30.270    6.6351
   30.285    7.1617
   30.300    6.7404
   30.315    6.8106
   30.330    6.6000
   30.345    6.1436
   30.360    6.3718
   30.375    6.5824
   30.390    6.1436
   30.405    6.6877
   30.420    6.7404
   30.435    6.4771
   30.450    6.8282
   30.465    6.4946
   30.480    6.7228
   30.495    7.1441
   30.510    7.0563
   30.525    6.4420
   30.540    7.0739
   30.555    7.2319
   30.570    6.6877
   30.585    6.7404
   30.600    6.5473
   30.615    6.4946
   30.630    6.6702
   30.645    6.0558
   30.660    5.9681
   30.675    6.7228
   30.690    7.0563
   30.705    6.4946
   30.720    6.5649
   30.735    6.2840
   30.750    6.7404
   30.765    6.1436
   30.780    6.1611
   30.795    6.4946
   30.810    6.4946
   30.825    6.3191
   30.840    6.1260
   30.855    6.1260
   30.870    6.8282
   30.885    6.6175
   30.900    6.5824
   30.915    7.0212
   30.930    6.9686
   30.945    6.5649
   30.960    6.0909
   30.975    6.5122
   30.990    6.3718
   31.005    6.0734
   31.020    6.7755
   31.035    6.0032
   31.050    6.8633
   31.065    6.3016
   31.080    6.3367
   31.095    6.4244
   31.110    6.1962
   31.125    5.7750
   31.140    5.6697
   31.155    6.1436
   31.170    6.2665
   31.185    5.9856
   31.200    6.6877
   31.215    6.1962
   31.230    6.2489
   31.245    6.1085
   31.260    5.9856
   31.275    6.0558
   31.290    6.3542
   31.305    6.4771
   31.320    6.4771
   31.335    6.5298
   31.350    6.0734
   31.365    6.1085
   31.380    6.9159
   31.395    6.9510
   31.410    6.2489
   31.425    6.4244
   31.440    6.3893
   31.455    6.4420
   31.470    6.3893
   31.485    6.4244
   31.500    6.3367
   31.515    6.0909
   31.530    6.3893
   31.545    6.6526
   31.560    5.7925
   31.575    5.8101
   31.590    6.4069
   31.605    6.5473
   31.620    6.2665
   31.635    6.4771
   31.650    5.7223
   31.665    6.0032
   31.680    6.4069
   31.695    6.6877
   31.710    6.5473
   31.725    6.4595
   31.740    6.5473
   31.755    6.3542
   31.770    6.4771
   31.785    6.3718
   31.800    6.4595
   31.815    6.7404
   31.830    6.1436
   31.845    5.8803
   31.860    6.8457
   31.875    6.5473
   31.890    5.6872
   31.905    6.1436
   31.920    6.4069
   31.935    6.2665
   31.950    6.6175
   31.965    6.1085
   31.980    6.0909
   31.995    6.3542
   32.010    6.1611
   32.025    6.3367
   32.040    6.3893
   32.055    6.0032
   32.070    6.5122
   32.085    6.1787
   32.100    6.3542
   32.115    6.5649
   32.130    6.0383
   32.145    6.3016
   32.160    6.4069
   32.175    6.3893
   32.190    6.0207
   32.205    5.7223
   32.220    6.3718
   32.235    6.0909
   32.250    5.4941
   32.265    5.7750
   32.280    5.8978
   32.295    5.8803
   32.310    5.9681
   32.325    5.9329
   32.340    5.9856
   32.355    5.5468
   32.370    5.4766
   32.385    5.8276
   32.400    5.8276
   32.415    5.7399
   32.430    6.1436
   32.445    5.5819
   32.460    5.8803
   32.475    6.4244
   32.490    6.4420
   32.505    6.0383
   32.520    5.9681
   32.535    6.1962
   32.550    5.6697
   32.565    5.5643
   32.580    6.0207
   32.595    6.0383
   32.610    6.0909
   32.625    5.6872
   32.640    6.0032
   32.655    5.9329
   32.670    6.0032
   32.685    5.6521
   32.700    5.8101
   32.715    5.8276
   32.730    5.9505
   32.745    6.0383
   32.760    5.5292
   32.775    5.7750
   32.790    6.2138
   32.805    5.8276
   32.820    6.0558
   32.835    6.1085
   32.850    6.0207
   32.865    5.7399
   32.880    5.6521
   32.895    5.7750
   32.910    5.9505
   32.925    5.3888
   32.940    5.7574
   32.955    5.8452
   32.970    6.0383
   32.985    6.1436
   33.000    5.4239
   33.015    5.4590
   33.030    5.6345
   33.045    5.8978
   33.060    5.8101
   33.075    5.9505
   33.090    5.6697
   33.105    5.8452
   33.120    5.9856
   33.135    5.8627
   33.150    6.0909
   33.165    5.8978
   33.180    5.6345
   33.195    5.9329
   33.210    5.8452
   33.225    5.6697
   33.240    5.7399
   33.255    5.7925
   33.270    5.8276
   33.285    5.9505
   33.300    5.6697
   33.315    5.8101
   33.330    5.8978
   33.345    5.6170
   33.360    5.9681
   33.375    5.8101
   33.390    5.9856
   33.405    5.8276
   33.420    5.8452
   33.435    6.0383
   33.450    5.6170
   33.465    5.8978
   33.480    5.6170
   33.495    6.0558
   33.510    5.7399
   33.525    5.7223
   33.540    5.7399
   33.555    5.4941
   33.570    5.4415
   33.585    5.7574
   33.600    5.9329
   33.615    6.0383
   33.630    5.8803
   33.645    5.8627
   33.660    5.9329
   33.675    6.1962
   33.690    6.0032
   33.705    5.8101
   33.720    6.0207
   33.735    5.5643
   33.750    6.1085
   33.765    5.8101
   33.780    5.8101
   33.795    5.9154
   33.810    5.6697
   33.825    5.1957
   33.840    5.9505
   33.855    5.5292
   33.870    5.8276
   33.885    5.8276
   33.900    5.9329
   33.915    5.7223
   33.930    5.6345
   33.945    5.5819
   33.960    5.7223
   33.975    5.4415
   33.990    5.5468
   34.005    5.6697
   34.020    5.6521
   34.035    5.2308
   34.050    5.5643
   34.065    5.4415
   34.080    5.4239
   34.095    5.7223
   34.110    5.7750
   34.125    5.6170
   34.140    5.7223
   34.155    5.5819
   34.170    5.7925
   34.185    6.0909
   34.200    5.5292
   34.215    5.5117
   34.230    5.7925
   34.245    5.4064
   34.260    5.3888
   34.275    5.4590
   34.290    5.6345
   34.305    5.5468
   34.320    5.3361
   34.335    5.0904
   34.350    5.0377
   34.365    5.6170
   34.380    5.8803
   34.395    5.7925
   34.410    5.4239
   34.425    5.1431
   34.440    5.1606
   34.455    5.4064
   34.470    5.6697
   34.485    5.3537
   34.500    5.2484
   34.515    5.6872
   34.530    5.8276
   34.545    5.6872
   34.560    5.4415
   34.575    5.5468
   34.590    5.6521
   34.605    5.6521
   34.620    5.8803
   34.635    5.4590
   34.650    5.1957
   34.665    5.8627
   34.680    5.2484
   34.695    5.7399
   34.710    5.6521
   34.725    5.7223
   34.740    5.3712
   34.755    5.9505
   34.770    5.9154
   34.785    6.0909
   34.800    5.2835
   34.815    5.0904
   34.830    5.3712
   34.845    5.8101
   34.860    5.6170
   34.875    5.3888
   34.890    5.6521
   34.905    5.8452
   34.920    5.6697
   34.935    6.0207
   34.950    5.1606
   34.965    5.4415
   34.980    5.7048
   34.995    5.1431
   35.010    5.2484
   35.025    5.7925
   35.040    5.4766
   35.055    5.1957
   35.070    4.8973
   35.085    5.0553
   35.100    5.3186
   35.115    5.8276
   35.130    5.5994
   35.145    5.5468
   35.160    5.4415
   35.175    5.9681
   35.190    5.3712
   35.205    5.3712
   35.220    5.4239
   35.235    5.1957
   35.250    5.4415
   35.265    5.5468
   35.280    5.2484
   35.295    5.1431
   35.310    5.6697
   35.325    5.3186
   35.340    5.3537
   35.355    5.3537
   35.370    5.2484
   35.385    5.2835
   35.400    5.6697
   35.415    5.3888
   35.430    5.3010
   35.445    5.0904
   35.460    5.7048
   35.475    5.3361
   35.490    5.0026
   35.505    5.4941
   35.520    5.5994
   35.535    5.1080
   35.550    4.9851
   35.565    5.2484
   35.580    5.3712
   35.595    5.2133
   35.610    5.4590
   35.625    5.7750
   35.640    5.3361
   35.655    5.2659
   35.670    5.2308
   35.685    5.5292
   35.700    5.4941
   35.715    5.5643
   35.730    5.5819
   35.745    5.1080
   35.760    5.1080
   35.775    4.8095
   35.790    4.8095
   35.805    5.0553
   35.820    5.3888
   35.835    5.0553
   35.850    5.0026
   35.865    5.4064
   35.880    5.3010
   35.895    5.3712
   35.910    5.5643
   35.925    5.3712
   35.940    5.1957
   35.955    5.4941
   35.970    5.4590
   35.985    5.1431
   36.000    5.1606
   36.015    5.3361
   36.030    5.1431
   36.045    5.0202
   36.060    5.0904
   36.075    5.3888
   36.090    4.9149
   36.105    5.0202
   36.120    5.1431
   36.135    5.0904
   36.150    5.2133
   36.165    5.2133
   36.180    5.0904
   36.195    5.1255
   36.210    5.1957
   36.225    5.1606
   36.240    5.2308
   36.255    4.7042
   36.270    4.8271
   36.285    5.2133
   36.300    5.5819
   36.315    5.3186
   36.330    4.9500
   36.345    5.0377
   36.360    5.3010
   36.375    5.0728
   36.390    5.2659
   36.405    5.5292
   36.420    5.2484
   36.435    5.1255
   36.450    5.2484
   36.465    5.4064
   36.480    5.5117
   36.495    5.2835
   36.510    4.9324
   36.525    4.8095
   36.540    5.5643
   36.555    5.2133
   36.570    4.9149
   36.585    4.9851
   36.600    5.1957
   36.615    5.4064
   36.630    4.8447
   36.645    4.7744
   36.660    5.1431
   36.675    4.9851
   36.690    5.3010
   36.705    5.2835
   36.720    4.8447
   36.735    5.0026
   36.750    5.5117
   36.765    5.3537
   36.780    5.0202
   36.795    4.9675
   36.810    5.1431
   36.825    5.0728
   36.840    4.7218
   36.855    4.6691
   36.870    4.5814
   36.885    4.4936
   36.900    5.0377
   36.915    4.8622
   36.930    4.9500
   36.945    5.1080
   36.960    4.6867
   36.975    4.5287
   36.990    5.1606
   37.005    5.0728
   37.020    5.1782
   37.035    4.9675
   37.050    4.9851
   37.065    5.1431
   37.080    5.0904
   37.095    4.9675
   37.110    5.0377
   37.125    4.8973
   37.140    4.8798
   37.155    4.7920
   37.170    5.2308
   37.185    5.5819
   37.200    5.2133
   37.215    5.2484
   37.230    5.1606
   37.245    5.4766
   37.260    4.9851
   37.275    4.5111
   37.290    5.0553
   37.305    4.9500
   37.320    4.9675
   37.335    4.8447
   37.350    4.3883
   37.365    5.0377
   37.380    4.9851
   37.395    4.7744
   37.410    5.0377
   37.425    4.9851
   37.440    5.2659
   37.455    4.8095
   37.470    5.1080
   37.485    4.6340
   37.500    4.6516
   37.515    5.2308
   37.530    5.1080
   37.545    4.7920
   37.560    4.5638
   37.575    5.1957
   37.590    5.2835
   37.605    5.0202
   37.620    5.2835
   37.635    4.9851
   37.650    5.0553
   37.665    4.7042
   37.680    5.0728
   37.695    5.1782
   37.710    4.8798
   37.725    5.3888
   37.740    5.3537
   37.755    5.1957
   37.770    4.8447
   37.785    4.5814
   37.800    4.9324
   37.815    4.8973
   37.830    4.9500
   37.845    4.5287
   37.860    4.6340
   37.875    4.4936
   37.890    4.8095
   37.905    5.0728
   37.920    4.5989
   37.935    4.7920
   37.950    5.1255
   37.965    4.8622
   37.980    5.0377
   37.995    5.1255
   38.010    5.3712
   38.025    4.7744
   38.040    4.6340
   38.055    5.0904
   38.070    4.6340
   38.085    4.4409
   38.100    4.8447
   38.115    4.8095
   38.130    4.5638
   38.145    5.1782
   38.160    5.4415
   38.175    5.0553
   38.190    5.1957
   38.205    5.0728
   38.220    4.8447
   38.235    5.1255
   38.250    4.8095
   38.265    5.4766
   38.280    5.3537
   38.295    5.3712
   38.310    4.8271
   38.325    4.7920
   38.340    4.6340
   38.355    4.7569
   38.370    4.5111
   38.385    4.6340
   38.400    4.7920
   38.415    4.6340
   38.430    4.5287
   38.445    4.7920
   38.460    4.3181
   38.475    4.7569
   38.490    4.7744
   38.505    5.0904
   38.520    4.4936
   38.535    4.8973
   38.550    4.9500
   38.565    4.6165
   38.580    4.8447
   38.595    4.8447
   38.610    4.6165
   38.625    4.9324
   38.640    4.7042
   38.655    4.6340
   38.670    4.9324
   38.685    5.1080
   38.700    5.0202
   38.715    4.7744
   38.730    4.7218
   38.745    4.5814
   38.760    4.3883
   38.775    4.3707
   38.790    4.7920
   38.805    5.2835
   38.820    5.1606
   38.835    5.1606
   38.850    4.8095
   38.865    4.2303
   38.880    4.8973
   38.895    4.9324
   38.910    5.1957
   38.925    5.6697
   38.940    5.0026
   38.955    4.6691
   38.970    5.1431
   38.985    4.8271
   39.000    4.7569
   39.015    4.9500
   39.030    4.8798
   39.045    4.7218
   39.060    5.0026
   39.075    4.7744
   39.090    4.4585
   39.105    5.0202
   39.120    4.7393
   39.135    5.1606
   39.150    5.3361
   39.165    4.8798
   39.180    4.9675
   39.195    4.5638
   39.210    4.8271
   39.225    4.6867
   39.240    4.3532
   39.255    4.8095
   39.270    4.5287
   39.285    4.4760
   39.300    4.5814
   39.315    4.8798
   39.330    5.2659
   39.345    4.9149
   39.360    4.7218
   39.375    4.7218
   39.390    4.8271
   39.405    5.3537
   39.420    4.8798
   39.435    4.6867
   39.450    4.7569
   39.465    4.9851
   39.480    5.0377
   39.495    5.0202
   39.510    4.5111
   39.525    4.2478
   39.540    4.3883
   39.555    4.6165
   39.570    4.9324
   39.585    4.6691
   39.600    4.8622
   39.615    4.9500
   39.630    4.4585
   39.645    5.1606
   39.660    5.0728
   39.675    4.6691
   39.690    4.5814
   39.705    4.9675
   39.720    5.0553
   39.735    4.7393
   39.750    4.8447
   39.765    4.4409
   39.780    4.5638
   39.795    4.7393
   39.810    4.8973
   39.825    4.7920
   39.840    4.5287
   39.855    4.7393
   39.870    4.6340
   39.885    4.3356
   39.900    4.5287
   39.915    4.4585
   39.930    4.5287
   39.945    4.4234
   39.960    4.4234
   39.975    5.0904
   39.990    5.0728
