    1.500   24.0126
    1.515   24.1074
    1.530   23.9179
    1.545   22.6540
    1.560   22.7488
    1.575   22.0748
    1.590   21.4850
    1.605   21.5166
    1.620   22.0221
    1.635   21.5482
    1.650   22.0116
    1.665   20.9479
    1.680   21.0848
    1.695   20.3686
    1.710   20.3791
    1.725   20.8531
    1.740   20.3791
    1.755   20.0211
    1.770   19.8526
    1.785   19.4734
    1.800   19.0627
    1.815   19.2522
    1.830   19.7894
    1.845   19.0311
    1.860   18.9468
    1.875   18.7994
    1.890   18.3149
    1.905   17.6725
    1.920   17.8094
    1.935   17.9252
    1.950   16.9668
    1.965   17.2512
    1.980   17.7041
    1.995   17.2617
    2.010   16.6719
    2.025   16.4718
    2.040   16.9774
    2.055   16.5034
    2.070   15.7978
    2.085   16.2085
    2.100   16.1980
    2.115   15.5450
    2.130   15.5977
    2.145   15.7241
    2.160   15.4186
    2.175   14.9658
    2.190   15.4818
    2.205   14.9131
    2.220   14.7762
    2.235   14.9658
    2.250   14.5024
    2.265   14.4813
    2.280   14.3444
    2.295   14.3549
    2.310   14.5550
    2.325   13.6282
    2.340   13.9652
    2.355   13.7125
    2.370   14.3339
    2.385   14.0706
    2.400   13.8283
    2.415   13.9337
    2.430   14.1022
    2.445   13.8494
    2.460   13.4808
    2.475   14.4918
    2.490   13.7967
    2.505   13.4387
    2.520   13.3860
    2.535   12.9226
    2.550   12.8489
    2.565   13.0700
    2.580   12.8067
    2.595   13.0911
    2.610   13.3860
    2.625   12.7751
    2.640   13.0595
    2.655   12.8383
    2.670   13.0700
    2.685   13.3228
    2.700   12.9858
    2.715   12.7962
    2.730   12.7857
    2.745   12.9015
    2.760   12.8594
    2.775   13.0279
    2.790   12.3539
    2.805   12.7857
    2.820   12.1116
    2.835   12.2696
    2.850   12.2064
    2.865   12.6804
    2.880   12.0379
    2.895   12.0695
    2.910   12.4908
    2.925   12.4803
    2.940   12.3012
    2.955   12.2591
    2.970   12.4276
    2.985   12.3749
    3.000   12.1222
    3.015   12.3644
    3.030   12.9331
    3.045   12.8910
    3.060   12.6488
    3.075   12.7436
    3.090   12.9542
    3.105   12.6698
    3.120   12.6593
    3.135   12.5750
    3.150   12.4592
    3.165   13.0174
    3.180   13.1754
    3.195   12.7120
    3.210   13.2385
    3.225   13.5334
    3.240   12.8278
    3.255   13.1438
    3.270   13.1122
    3.285   13.4492
    3.300   13.5861
    3.315   13.9547
    3.330   13.9442
    3.345   13.6704
    3.360   14.0811
    3.375   14.5550
    3.390   14.1864
    3.405   13.8389
    3.420   13.9758
    3.435   15.0922
    3.450   15.0184
    3.465   14.8710
    3.480   15.2817
    3.495   14.7867
    3.510   15.1132
    3.525   15.4608
    3.540   14.9763
    3.555   14.9236
    3.570   14.9236
    3.585   15.4608
    3.600   15.1553
    3.615   14.7762
    3.630   15.4397
    3.645   15.6925
    3.660   15.7662
    3.675   16.0716
    3.690   15.6398
    3.705   16.5034
    3.720   16.1664
    3.735   15.9558
    3.750   16.1453
    3.765   16.1664
    3.780   16.9774
    3.795   17.2512
    3.810   18.1780
    3.825   19.0732
    3.840   20.3791
    3.855   21.4323
    3.870   22.6856
    3.885   24.9605
    3.900   27.1195
    3.915   27.6461
    3.930   26.2559
    3.945   22.5803
    3.960   17.7672
    3.975   12.2170
    3.990   10.2370
    4.005    9.6156
    4.020    9.9421
    4.035    9.9526
    4.050    8.9521
    4.065    8.6045
    4.080    8.9415
    4.095    8.9100
    4.110    8.7309
    4.125    8.6151
    4.140    8.1938
    4.155    8.3412
    4.170    8.2991
    4.185    7.8146
    4.200    8.3728
    4.215    8.1201
    4.230    8.0042
    4.245    8.1727
    4.260    8.0569
    4.275    8.1411
    4.290    7.9410
    4.305    7.7093
    4.320    7.9200
    4.335    7.5092
    4.350    7.2354
    4.365    7.6567
    4.380    7.2249
    4.395    7.1827
    4.410    7.4355
    4.425    7.2775
    4.440    7.2459
    4.455    7.3512
    4.470    6.9616
    4.485    7.3091
    4.500    7.1090
    4.515    7.0879
    4.530    7.4460
    4.545    7.2986
    4.560    7.4460
    4.575    7.1617
    4.590    7.3828
    4.605    7.0458
    4.620    6.8984
    4.635    6.9194
    4.650    7.3407
    4.665    7.3723
    4.680    7.0563
    4.695    7.0142
    4.710    7.3302
    4.725    6.8984
    4.740    6.6772
    4.755    7.2143
    4.770    7.0669
    4.785    7.2565
    4.800    6.9721
    4.815    6.6035
    4.830    6.7825
    4.845    7.1406
    4.860    7.0458
    4.875    6.8984
    4.890    6.7930
    4.905    6.8036
    4.920    6.9721
    4.935    6.8036
    4.950    6.8562
    4.965    6.7615
    4.980    6.9194
    4.995    6.4876
    5.010    6.6561
    5.025    6.5298
    5.040    6.8562
    5.055    6.6140
    5.070    6.5719
    5.085    6.5719
    5.100    7.1511
    5.115    7.1301
    5.130    7.0458
    5.145    7.0353
    5.160    7.0037
    5.175    7.0774
    5.190    6.9194
    5.205    6.7299
    5.220    6.9194
    5.235    7.0774
    5.250    6.8246
    5.265    7.1195
    5.280    7.1406
    5.295    7.3723
    5.310    7.6040
    5.325    7.6883
    5.340    7.7199
    5.355    7.9516
    5.370    8.2254
    5.385    8.4466
    5.400    7.7725
    5.415    8.3518
    5.430    8.2675
    5.445    9.0995
    5.460    9.5419
    5.475    9.6156
    5.490   10.4581
    5.505   10.8478
    5.520   11.4060
    5.535   12.2591
    5.550   11.1216
    5.565   10.2580
    5.580    8.7836
    5.595    7.2459
    5.610    6.7299
    5.625    6.0979
    5.640    6.1295
    5.655    6.1927
    5.670    5.9505
    5.685    5.8452
    5.700    5.6451
    5.715    5.9189
    5.730    5.7715
    5.745    5.7820
    5.760    5.6977
    5.775    6.0769
    5.790    5.7609
    5.805    5.7715
    5.820    5.9716
    5.835    6.0032
    5.850    5.7715
    5.865    5.9926
    5.880    6.0769
    5.895    6.1401
    5.910    5.8662
    5.925    5.7188
    5.940    5.7504
    5.955    5.7715
    5.970    5.7293
    5.985    5.4766
    6.000    6.0032
    6.015    5.9400
    6.030    5.6240
    6.045    5.7399
    6.060    5.7504
    6.075    5.9505
    6.090    5.9400
    6.105    5.8768
    6.120    6.1295
    6.135    5.7820
    6.150    5.7715
    6.165    5.6240
    6.180    5.4660
    6.195    6.1085
    6.210    5.9294
    6.225    6.0137
    6.240    6.0664
    6.255    5.8241
    6.270    5.8557
    6.285    5.9821
    6.300    5.7925
    6.315    5.6451
    6.330    5.9716
    6.345    5.6872
    6.360    5.7399
    6.375    5.5398
    6.390    5.9189
    6.405    5.7820
    6.420    5.8662
    6.435    6.1717
    6.450    6.1927
    6.465    5.8452
    6.480    5.6029
    6.495    5.6451
    6.510    5.9926
    6.525    5.9610
    6.540    5.6240
    6.555    6.1927
    6.570    6.1717
    6.585    6.0453
    6.600    6.3296
    6.615    6.1927
    6.630    6.5508
    6.645    6.6351
    6.660    6.2665
    6.675    6.3086
    6.690    6.3507
    6.705    6.3296
    6.720    6.8984
    6.735    6.6351
    6.750    7.1827
    6.765    7.3091
    6.780    7.0774
    6.795    7.1090
    6.810    7.0563
    6.825    6.7299
    6.840    6.3191
    6.855    6.1717
    6.870    6.2875
    6.885    6.0979
    6.900    6.1506
    6.915    5.9189
    6.930    5.9189
    6.945    5.9821
    6.960    6.1401
    6.975    6.1611
    6.990    6.0348
    7.005    6.3507
    7.020    6.3718
    7.035    6.5719
    7.050    5.9505
    7.065    5.7504
    7.080    6.2138
    7.095    6.2665
    7.110    5.9189
    7.125    5.9294
    7.140    5.6029
    7.155    5.7609
    7.170    6.1717
    7.185    6.0032
    7.200    6.2033
    7.215    6.4350
    7.230    6.4139
    7.245    5.9926
    7.260    6.2981
    7.275    6.5613
    7.290    6.6035
    7.305    6.2033
    7.320    6.2349
    7.335    6.2559
    7.350    6.2243
    7.365    5.8241
    7.380    6.5508
    7.395    6.3823
    7.410    6.4982
    7.425    6.5929
    7.440    6.4034
    7.455    6.3612
    7.470    5.9821
    7.485    5.7609
    7.500    6.5192
    7.515    6.5929
    7.530    6.5298
    7.545    6.5298
    7.560    6.4455
    7.575    6.2033
    7.590    6.1717
    7.605    6.6035
    7.620    6.7825
    7.635    6.3612
    7.650    6.4876
    7.665    6.3507
    7.680    6.7404
    7.695    6.5824
    7.710    6.6351
    7.725    6.5192
    7.740    6.8984
    7.755    6.6140
    7.770    7.1617
    7.785    7.4776
    7.800    7.2775
    7.815    7.7936
    7.830    7.4566
    7.845    7.6251
    7.860    7.3934
    7.875    6.8773
    7.890    6.5613
    7.905    6.0348
    7.920    5.9189
    7.935    5.9084
    7.950    6.1927
    7.965    5.8768
    7.980    6.1611
    7.995    5.8347
    8.010    6.0874
    8.025    6.1927
    8.040    5.9294
    8.055    5.8978
    8.070    5.6661
    8.085    6.0979
    8.100    5.9610
    8.115    5.7293
    8.130    5.7504
    8.145    5.7399
    8.160    5.8873
    8.175    5.9821
    8.190    6.0664
    8.205    5.6556
    8.220    6.1506
    8.235    5.7293
    8.250    5.8241
    8.265    5.6661
    8.280    5.8978
    8.295    6.0664
    8.310    5.9610
    8.325    5.9610
    8.340    6.1190
    8.355    5.6872
    8.370    5.8873
    8.385    6.0558
    8.400    5.6240
    8.415    5.2659
    8.430    5.5924
    8.445    6.0453
    8.460    5.5608
    8.475    5.5503
    8.490    5.7715
    8.505    5.8978
    8.520    5.8662
    8.535    5.7609
    8.550    5.4976
    8.565    5.6872
    8.580    5.4766
    8.595    5.9926
    8.610    5.7293
    8.625    5.5187
    8.640    5.3291
    8.655    5.5082
    8.670    5.9189
    8.685    5.8873
    8.700    5.6872
    8.715    5.6872
    8.730    5.8768
    8.745    5.7820
    8.760    5.8768
    8.775    5.6240
    8.790    5.4766
    8.805    5.4555
    8.820    5.5292
    8.835    5.4871
    8.850    5.4239
    8.865    5.5503
    8.880    5.2659
    8.895    5.5398
    8.910    5.7609
    8.925    5.5082
    8.940    5.8241
    8.955    5.4134
    8.970    4.7815
    8.985    5.2659
    9.000    5.9294
    9.015    5.8031
    9.030    5.6451
    9.045    5.7188
    9.060    5.5503
    9.075    5.6977
    9.090    5.4871
    9.105    5.4344
    9.120    5.4450
    9.135    5.6135
    9.150    5.7609
    9.165    5.4239
    9.180    5.5608
    9.195    5.5608
    9.210    5.2659
    9.225    5.6029
    9.240    5.8873
    9.255    5.8241
    9.270    5.6872
    9.285    5.6135
    9.300    5.9189
    9.315    5.9926
    9.330    5.6345
    9.345    6.0769
    9.360    6.1717
    9.375    6.3507
    9.390    6.0032
    9.405    6.4139
    9.420    6.4244
    9.435    6.2665
    9.450    6.7404
    9.465    6.7509
    9.480    6.6140
    9.495    6.7509
    9.510    7.4250
    9.525    8.0358
    9.540    8.0674
    9.555    8.2675
    9.570    9.1101
    9.585    9.0890
    9.600    9.0047
    9.615    8.7520
    9.630    8.6045
    9.645    7.5513
    9.660    6.6351
    9.675    6.1190
    9.690    5.7609
    9.705    5.7504
    9.720    5.9084
    9.735    5.4766
    9.750    5.6135
    9.765    5.5503
    9.780    5.2975
    9.795    5.2449
    9.810    5.2133
    9.825    5.4239
    9.840    5.4976
    9.855    5.6451
    9.870    5.5608
    9.885    5.3186
    9.900    5.4660
    9.915    5.2449
    9.930    5.2659
    9.945    5.3818
    9.960    5.1290
    9.975    5.3397
    9.990    5.7293
   10.005    5.5082
   10.020    5.6451
   10.035    5.7609
   10.050    5.3923
   10.065    5.5503
   10.080    5.5503
   10.095    5.3186
   10.110    5.3397
   10.125    5.5082
   10.140    5.4450
   10.155    5.5924
   10.170    5.8978
   10.185    5.6029
   10.200    5.8031
   10.215    5.9400
   10.230    5.8347
   10.245    6.0453
   10.260    6.0242
   10.275    6.0979
   10.290    5.7504
   10.305    6.1085
   10.320    6.0242
   10.335    6.0032
   10.350    6.2138
   10.365    6.3191
   10.380    6.4139
   10.395    6.2138
   10.410    5.8452
   10.425    5.7715
   10.440    5.6029
   10.455    5.4134
   10.470    5.2870
   10.485    5.6872
   10.500    5.6661
   10.515    5.4239
   10.530    5.3923
   10.545    5.4766
   10.560    5.6661
   10.575    5.4134
   10.590    5.6872
   10.605    5.5714
   10.620    5.4976
   10.635    5.5187
   10.650    5.3186
   10.665    5.3923
   10.680    5.2343
   10.695    5.2659
   10.710    5.8978
   10.725    6.0032
   10.740    5.4134
   10.755    5.7715
   10.770    5.6977
   10.785    5.5082
   10.800    5.9610
   10.815    6.0348
   10.830    6.1190
   10.845    5.8031
   10.860    5.9610
   10.875    6.3086
   10.890    5.9505
   10.905    5.5187
   10.920    5.8557
   10.935    5.9926
   10.950    6.4666
   10.965    5.9189
   10.980    5.5292
   10.995    5.7504
   11.010    5.7188
   11.025    5.6029
   11.040    6.1190
   11.055    5.6556
   11.070    6.0242
   11.085    5.9400
   11.100    6.1085
   11.115    6.5087
   11.130    5.7399
   11.145    5.8031
   11.160    5.5292
   11.175    5.5398
   11.190    5.2870
   11.205    5.2343
   11.220    5.3818
   11.235    5.4555
   11.250    5.1185
   11.265    5.3081
   11.280    5.2765
   11.295    5.5503
   11.310    5.0869
   11.325    5.3502
   11.340    5.5819
   11.355    5.2238
   11.370    5.1606
   11.385    5.5608
   11.400    5.4555
   11.415    5.0869
   11.430    5.3081
   11.445    5.4555
   11.460    5.1606
   11.475    5.1922
   11.490    4.9184
   11.505    5.1501
   11.520    4.9394
   11.535    5.2238
   11.550    5.5398
   11.565    5.3186
   11.580    5.2238
   11.595    5.3397
   11.610    5.5082
   11.625    5.3818
   11.640    5.3186
   11.655    5.3186
   11.670    5.3818
   11.685    5.5082
   11.700    5.6767
   11.715    5.7188
   11.730    6.0558
   11.745    6.2349
   11.760    5.6872
   11.775    5.8347
   11.790    5.5082
   11.805    5.6345
   11.820    5.3923
   11.835    5.2765
   11.850    4.9394
   11.865    4.9394
   11.880    5.2238
   11.895    5.2870
   11.910    5.2554
   11.925    4.9710
   11.940    5.0553
   11.955    5.1606
   11.970    5.1606
   11.985    4.9605
   12.000    5.0448
   12.015    5.0132
   12.030    5.0132
   12.045    5.1922
   12.060    4.7604
   12.075    4.7709
   12.090    5.0026
   12.105    5.0764
   12.120    4.7393
   12.135    4.7604
   12.150    4.9605
   12.165    5.2975
   12.180    5.3081
   12.195    5.1080
   12.210    5.0869
   12.225    4.9605
   12.240    5.2343
   12.255    5.1290
   12.270    4.7288
   12.285    5.1711
   12.300    4.8973
   12.315    5.0869
   12.330    5.0974
   12.345    4.8131
   12.360    5.2870
   12.375    5.2870
   12.390    5.4660
   12.405    5.5608
   12.420    5.0553
   12.435    4.8341
   12.450    4.7183
   12.465    4.5287
   12.480    4.8763
   12.495    4.8341
   12.510    5.0448
   12.525    4.9605
   12.540    5.0132
   12.555    5.0658
   12.570    5.1395
   12.585    5.3818
   12.600    5.0764
   12.615    4.8657
   12.630    5.2238
   12.645    5.0764
   12.660    4.7920
   12.675    5.3397
   12.690    5.2027
   12.705    5.4766
   12.720    4.8763
   12.735    4.9605
   12.750    5.0658
   12.765    4.9184
   12.780    4.7393
   12.795    4.8341
   12.810    5.1185
   12.825    4.9394
   12.840    4.7709
   12.855    5.0237
   12.870    4.7815
   12.885    4.6130
   12.900    4.9816
   12.915    5.1606
   12.930    5.3081
   12.945    5.4028
   12.960    5.2870
   12.975    5.0658
   12.990    4.9605
   13.005    5.0026
   13.020    5.2133
   13.035    5.2870
   13.050    5.0764
   13.065    4.9921
   13.080    4.6972
   13.095    4.9500
   13.110    5.1395
   13.125    4.9289
   13.140    5.0237
   13.155    5.0342
   13.170    4.9289
   13.185    4.8868
   13.200    4.8868
   13.215    5.3818
   13.230    5.0342
   13.245    5.1817
   13.260    5.0448
   13.275    4.8657
   13.290    4.5603
   13.305    5.1290
   13.320    4.9816
   13.335    4.9921
   13.350    4.7393
   13.365    4.8763
   13.380    4.7604
   13.395    4.8236
   13.410    5.1290
   13.425    5.1922
   13.440    4.9816
   13.455    4.9816
   13.470    4.8447
   13.485    5.1606
   13.500    5.3186
   13.515    4.9289
   13.530    5.5082
   13.545    5.2659
   13.560    4.8657
   13.575    5.1501
   13.590    4.9816
   13.605    4.9710
   13.620    5.0448
   13.635    4.8868
   13.650    5.2027
   13.665    4.8447
   13.680    5.0237
   13.695    4.9394
   13.710    4.8763
   13.725    4.8552
   13.740    4.9078
   13.755    4.6130
   13.770    4.7077
   13.785    4.7815
   13.800    4.3707
   13.815    5.0132
   13.830    4.9184
   13.845    5.0553
   13.860    5.0448
   13.875    4.8657
   13.890    4.8868
   13.905    4.9816
   13.920    4.9394
   13.935    4.9289
   13.950    5.0448
   13.965    4.8868
   13.980    4.9816
   13.995    4.8552
   14.010    4.9710
   14.025    4.8447
   14.040    4.8868
   14.055    5.2554
   14.070    5.1711
   14.085    5.2343
   14.100    4.9500
   14.115    5.2765
   14.130    5.3818
   14.145    5.5292
   14.160    5.4555
   14.175    5.0869
   14.190    5.1185
   14.205    4.9289
   14.220    4.6024
   14.235    4.7604
   14.250    4.8131
   14.265    4.7604
   14.280    5.0026
   14.295    4.7183
   14.310    4.8447
   14.325    4.9078
   14.340    4.7393
   14.355    5.1080
   14.370    4.7077
   14.385    4.8552
   14.400    4.6235
   14.415    4.7709
   14.430    4.7183
   14.445    4.8552
   14.460    5.0448
   14.475    5.1185
   14.490    5.1606
   14.505    4.8973
   14.520    4.8025
   14.535    5.0237
   14.550    4.8763
   14.565    4.8131
   14.580    4.9184
   14.595    4.8131
   14.610    4.4023
   14.625    4.6551
   14.640    4.7499
   14.655    4.9078
   14.670    4.6972
   14.685    4.8973
   14.700    4.8973
   14.715    5.0026
   14.730    4.7604
   14.745    5.0448
   14.760    4.9394
   14.775    5.0132
   14.790    5.1606
   14.805    5.0342
   14.820    4.9605
   14.835    4.5814
   14.850    4.7288
   14.865    4.7183
   14.880    4.7499
   14.895    5.1501
   14.910    4.4339
   14.925    4.5814
   14.940    4.9816
   14.955    4.9605
   14.970    4.8025
   14.985    4.7393
   15.000    4.7920
   15.015    4.8657
   15.030    4.7077
   15.045    4.6340
   15.060    4.3813
   15.075    4.8341
   15.090    5.0869
   15.105    5.0869
   15.120    5.0974
   15.135    4.8973
   15.150    4.8868
   15.165    4.9078
   15.180    5.0026
   15.195    5.0869
   15.210    4.9500
   15.225    4.9078
   15.240    4.9394
   15.255    4.8868
   15.270    5.0026
   15.285    4.9605
   15.300    4.9184
   15.315    4.7815
   15.330    5.0974
   15.345    5.0448
   15.360    4.8447
   15.375    4.8657
   15.390    4.5287
   15.405    4.9921
   15.420    4.9289
   15.435    4.8657
   15.450    4.7393
   15.465    4.9078
   15.480    4.7393
   15.495    4.8131
   15.510    4.9500
   15.525    4.5182
   15.540    4.3918
   15.555    4.5919
   15.570    4.7288
   15.585    4.8657
   15.600    4.7077
   15.615    5.0132
   15.630    5.0026
   15.645    4.9500
   15.660    5.1606
   15.675    4.7077
   15.690    4.8025
   15.705    5.0974
   15.720    4.9500
   15.735    4.8763
   15.750    4.7077
   15.765    4.5603
   15.780    4.4971
   15.795    5.1290
   15.810    4.5182
   15.825    4.9921
   15.840    5.1290
   15.855    5.0237
   15.870    4.6761
   15.885    4.6130
   15.900    4.6340
   15.915    4.9078
   15.930    4.9078
   15.945    4.8341
   15.960    4.7709
   15.975    5.0553
   15.990    4.5814
   16.005    5.0026
   16.020    4.7393
   16.035    4.6340
   16.050    4.9710
   16.065    5.1290
   16.080    5.0026
   16.095    4.9289
   16.110    4.8131
   16.125    4.6867
   16.140    5.0342
   16.155    4.8763
   16.170    4.9816
   16.185    4.9500
   16.200    4.7604
   16.215    4.9078
   16.230    5.3186
   16.245    5.2449
   16.260    4.9078
   16.275    4.8973
   16.290    5.0342
   16.305    5.0869
   16.320    4.9394
   16.335    4.8025
   16.350    4.7709
   16.365    4.9078
   16.380    4.9500
   16.395    5.0026
   16.410    4.8973
   16.425    4.7288
   16.440    4.8025
   16.455    4.8868
   16.470    4.9816
   16.485    4.8025
   16.500    4.7499
   16.515    5.0132
   16.530    5.1817
   16.545    4.9500
   16.560    4.8131
   16.575    4.7183
   16.590    4.5182
   16.605    4.9816
   16.620    5.1290
   16.635    4.8341
   16.650    4.7920
   16.665    4.9500
   16.680    4.7604
   16.695    4.9500
   16.710    5.2554
   16.725    4.8868
   16.740    4.8447
   16.755    4.9078
   16.770    4.8657
   16.785    4.7499
   16.800    4.7920
   16.815    5.1290
   16.830    4.6972
   16.845    4.7183
   16.860    5.0553
   16.875    5.1501
   16.890    4.7709
   16.905    5.0553
   16.920    5.2027
   16.935    4.9184
   16.950    4.9816
   16.965    4.8657
   16.980    4.9184
   16.995    5.3712
   17.010    5.1395
   17.025    5.2027
   17.040    5.0237
   17.055    5.2975
   17.070    5.4766
   17.085    5.2554
   17.100    5.4766
   17.115    5.7399
   17.130    5.5608
   17.145    5.5503
   17.160    5.5187
   17.175    5.3291
   17.190    5.0869
   17.205    4.9710
   17.220    4.8341
   17.235    4.8657
   17.250    5.0448
   17.265    4.7604
   17.280    4.8236
   17.295    4.6130
   17.310    5.0869
   17.325    4.9184
   17.340    5.1185
   17.355    5.0342
   17.370    5.1606
   17.385    4.8868
   17.400    4.8447
   17.415    4.8341
   17.430    4.9710
   17.445    4.6761
   17.460    4.7604
   17.475    4.7077
   17.490    5.1711
   17.505    4.8763
   17.520    5.1501
   17.535    5.0974
   17.550    4.8447
   17.565    5.2765
   17.580    5.2238
   17.595    5.1080
   17.610    5.0132
   17.625    4.8552
   17.640    4.7499
   17.655    4.7288
   17.670    5.4450
   17.685    5.0658
   17.700    4.8973
   17.715    4.5182
   17.730    4.8025
   17.745    4.7815
   17.760    4.9816
   17.775    4.6235
   17.790    4.7183
   17.805    5.2554
   17.820    5.0869
   17.835    4.8868
   17.850    4.7077
   17.865    5.0974
   17.880    5.0026
   17.895    4.9184
   17.910    4.9078
   17.925    4.6867
   17.940    4.6972
   17.955    4.8973
   17.970    5.0237
   17.985    5.3607
   18.000    5.2449
   18.015    5.2027
   18.030    5.1922
   18.045    4.9394
   18.060    5.1395
   18.075    4.9816
   18.090    4.8447
   18.105    4.9394
   18.120    4.7393
   18.135    4.8973
   18.150    4.9078
   18.165    5.1080
   18.180    5.0237
   18.195    5.1501
   18.210    5.0132
   18.225    5.2449
   18.240    4.9816
   18.255    5.0132
   18.270    5.1290
   18.285    4.9184
   18.300    5.0764
   18.315    4.8552
   18.330    4.8025
   18.345    4.7393
   18.360    4.8763
   18.375    5.3186
   18.390    5.1290
   18.405    5.4028
   18.420    5.1395
   18.435    5.0026
   18.450    5.2027
   18.465    5.2659
   18.480    5.0869
   18.495    4.6551
   18.510    4.8657
   18.525    5.1501
   18.540    4.8447
   18.555    5.1606
   18.570    4.8025
   18.585    4.9605
   18.600    4.9078
   18.615    4.8341
   18.630    4.8236
   18.645    4.8447
   18.660    4.8447
   18.675    4.8236
   18.690    4.8025
   18.705    4.8236
   18.720    5.2659
   18.735    4.9605
   18.750    4.8973
   18.765    4.8763
   18.780    4.9710
   18.795    4.9394
   18.810    4.9184
   18.825    4.8236
   18.840    4.8868
   18.855    5.1606
   18.870    5.0448
   18.885    5.0026
   18.900    4.8868
   18.915    5.1290
   18.930    5.1817
   18.945    4.9394
   18.960    4.9184
   18.975    5.3712
   18.990    5.2343
   19.005    5.2870
   19.020    5.2343
   19.035    5.0658
   19.050    5.2975
   19.065    4.8868
   19.080    5.0974
   19.095    5.0869
   19.110    5.0448
   19.125    5.2554
   19.140    5.0764
   19.155    4.7499
   19.170    4.7499
   19.185    5.1290
   19.200    5.0658
   19.215    5.0132
   19.230    4.9605
   19.245    5.0553
   19.260    5.1290
   19.275    5.2027
   19.290    4.8868
   19.305    4.8447
   19.320    4.9394
   19.335    5.0237
   19.350    5.0974
   19.365    5.1080
   19.380    4.7499
   19.395    4.6340
   19.410    5.0553
   19.425    5.1817
   19.440    5.3291
   19.455    5.1080
   19.470    5.2343
   19.485    5.2765
   19.500    4.8868
   19.515    4.9078
   19.530    4.7815
   19.545    5.1922
   19.560    5.0658
   19.575    5.1922
   19.590    4.9500
   19.605    5.2238
   19.620    5.1711
   19.635    5.3502
   19.650    5.2870
   19.665    5.1606
   19.680    5.4134
   19.695    5.5503
   19.710    5.1606
   19.725    4.9605
   19.740    5.0553
   19.755    5.3291
   19.770    4.9500
   19.785    4.9710
   19.800    5.0764
   19.815    5.0342
   19.830    4.8447
   19.845    5.2133
   19.860    5.0869
   19.875    5.0237
   19.890    5.2133
   19.905    5.0974
   19.920    4.9605
   19.935    4.5814
   19.950    4.8763
   19.965    4.9500
   19.980    5.0026
   19.995    4.9078
   20.010    5.4239
   20.025    4.9078
   20.040    5.0342
   20.055    4.9078
   20.070    5.1922
   20.085    5.4134
   20.100    5.1501
   20.115    5.3923
   20.130    5.3818
   20.145    4.9605
   20.160    4.8552
   20.175    5.0764
   20.190    5.2133
   20.205    5.0237
   20.220    5.2765
   20.235    5.2975
   20.250    5.3923
   20.265    5.4766
   20.280    5.3397
   20.295    5.2027
   20.310    5.3081
   20.325    5.1080
   20.340    5.1501
   20.355    5.2554
   20.370    5.4660
   20.385    5.2870
   20.400    5.4766
   20.415    5.4239
   20.430    5.4766
   20.445    5.7504
   20.460    5.4976
   20.475    5.0342
   20.490    5.2765
   20.505    5.4976
   20.520    5.2449
   20.535    5.5503
   20.550    5.2659
   20.565    5.3291
   20.580    5.2975
   20.595    5.1185
   20.610    5.1817
   20.625    5.0342
   20.640    5.4976
   20.655    5.3818
   20.670    5.3081
   20.685    5.1080
   20.700    5.2449
   20.715    5.0974
   20.730    5.3502
   20.745    5.3502
   20.760    5.0974
   20.775    4.7709
   20.790    5.3502
   20.805    5.3923
   20.820    5.3607
   20.835    5.1922
   20.850    5.0132
   20.865    5.3607
   20.880    5.4450
   20.895    4.9500
   20.910    5.2870
   20.925    5.1395
   20.940    5.1922
   20.955    5.2554
   20.970    5.4766
   20.985    5.3712
   21.000    5.6872
   21.015    5.7293
   21.030    5.2343
   21.045    5.2133
   21.060    5.0237
   21.075    5.2027
   21.090    5.5292
   21.105    5.1290
   21.120    5.1606
   21.135    5.6767
   21.150    5.5924
   21.165    5.2975
   21.180    5.4871
   21.195    5.3291
   21.210    5.2659
   21.225    5.1922
   21.240    5.1395
   21.255    5.2765
   21.270    5.3186
   21.285    4.8973
   21.300    5.2554
   21.315    5.5608
   21.330    5.5924
   21.345    5.5398
   21.360    5.2133
   21.375    5.2343
   21.390    5.1080
   21.405    5.3291
   21.420    5.5714
   21.435    5.2343
   21.450    5.1922
   21.465    5.0237
   21.480    4.8025
   21.495    5.0237
   21.510    4.8447
   21.525    5.0342
   21.540    5.4028
   21.555    5.3923
   21.570    5.2659
   21.585    4.7183
   21.600    4.9710
   21.615    5.2659
   21.630    5.4028
   21.645    5.2659
   21.660    5.3186
   21.675    5.0974
   21.690    5.1501
   21.705    5.7504
   21.720    5.5924
   21.735    5.4450
   21.750    5.3397
   21.765    5.3291
   21.780    5.4766
   21.795    5.2343
   21.810    5.2870
   21.825    5.2449
   21.840    5.3712
   21.855    5.5082
   21.870    5.2554
   21.885    5.2975
   21.900    5.6240
   21.915    5.3607
   21.930    5.4871
   21.945    5.3502
   21.960    5.3607
   21.975    5.3081
   21.990    5.4660
   22.005    5.3818
   22.020    4.8341
   22.035    5.1290
   22.050    5.3818
   22.065    5.5608
   22.080    5.2027
   22.095    5.4555
   22.110    5.3818
   22.125    5.4871
   22.140    5.4871
   22.155    4.9816
   22.170    5.0658
   22.185    5.6345
   22.200    4.8763
   22.215    5.3397
   22.230    5.5292
   22.245    5.4766
   22.260    5.6029
   22.275    5.3818
   22.290    5.0658
   22.305    5.2449
   22.320    5.2870
   22.335    5.2554
   22.350    5.4766
   22.365    5.3923
   22.380    5.4239
   22.395    5.4450
   22.410    5.4344
   22.425    5.5292
   22.440    5.2133
   22.455    5.1185
   22.470    5.1922
   22.485    5.3397
   22.500    5.2343
   22.515    5.3502
   22.530    5.4660
   22.545    5.7820
   22.560    5.5924
   22.575    5.5292
   22.590    5.5398
   22.605    5.7399
   22.620    5.7715
   22.635    5.9505
   22.650    5.6977
   22.665    5.7504
   22.680    5.7609
   22.695    5.6556
   22.710    5.6451
   22.725    5.6345
   22.740    5.4555
   22.755    5.1185
   22.770    5.1711
   22.785    5.4239
   22.800    5.6556
   22.815    5.5503
   22.830    5.3502
   22.845    5.1080
   22.860    5.3081
   22.875    5.5503
   22.890    5.2975
   22.905    5.3607
   22.920    5.5398
   22.935    5.5398
   22.950    5.6240
   22.965    5.9716
   22.980    5.4766
   22.995    5.5503
   23.010    5.3397
   23.025    5.7083
   23.040    5.5924
   23.055    5.4028
   23.070    5.3502
   23.085    5.1711
   23.100    5.1501
   23.115    4.8973
   23.130    5.0869
   23.145    5.3818
   23.160    5.6029
   23.175    5.6767
   23.190    5.2659
   23.205    5.2659
   23.220    4.7920
   23.235    5.2554
   23.250    5.4555
   23.265    5.0132
   23.280    5.0342
   23.295    5.1711
   23.310    5.4871
   23.325    5.2554
   23.340    5.2870
   23.355    5.0026
   23.370    5.1922
   23.385    5.4450
   23.400    5.1606
   23.415    5.2238
   23.430    5.1080
   23.445    5.1817
   23.460    5.2554
   23.475    5.1711
   23.490    4.9605
   23.505    5.2133
   23.520    5.1080
   23.535    4.8973
   23.550    4.9394
   23.565    5.0553
   23.580    5.4028
   23.595    5.5292
   23.610    5.2133
   23.625    5.0553
   23.640    5.1711
   23.655    4.9289
   23.670    4.8236
   23.685    5.0237
   23.700    5.2554
   23.715    4.9921
   23.730    4.8552
   23.745    5.4660
   23.760    5.3818
   23.775    5.3502
   23.790    5.2449
   23.805    4.9078
   23.820    4.9710
   23.835    5.1185
   23.850    5.3818
   23.865    5.3923
   23.880    5.1711
   23.895    5.2027
   23.910    5.2133
   23.925    5.4660
   23.940    5.4344
   23.955    5.3712
   23.970    5.2133
   23.985    5.4239
   24.000    5.2870
   24.015    4.9394
   24.030    5.3607
   24.045    5.1711
   24.060    5.2975
   24.075    5.2554
   24.090    5.0764
   24.105    5.0132
   24.120    5.4976
   24.135    5.2238
   24.150    5.3502
   24.165    5.1080
   24.180    5.1290
   24.195    5.4450
   24.210    5.2554
   24.225    5.1185
   24.240    5.3397
   24.255    5.2449
   24.270    5.1290
   24.285    5.2449
   24.300    5.2133
   24.315    5.1395
   24.330    4.9605
   24.345    5.1501
   24.360    5.3818
   24.375    5.0764
   24.390    5.0237
   24.405    5.4028
   24.420    5.3291
   24.435    5.1501
   24.450    5.0132
   24.465    5.0974
   24.480    5.2449
   24.495    5.3081
   24.510    4.9921
   24.525    5.1817
   24.540    5.1185
   24.555    5.1185
   24.570    5.4028
   24.585    5.2133
   24.600    4.9921
   24.615    5.0869
   24.630    5.3712
   24.645    5.2238
   24.660    5.1817
   24.675    4.8025
   24.690    5.1606
   24.705    5.2554
   24.720    5.2027
   24.735    5.2449
   24.750    5.1606
   24.765    5.3712
   24.780    5.1711
   24.795    4.8552
   24.810    5.0869
   24.825    5.2238
   24.840    5.2027
   24.855    5.1606
   24.870    5.2238
   24.885    4.9078
   24.900    4.9816
   24.915    4.9710
   24.930    4.8763
   24.945    5.3712
   24.960    4.8868
   24.975    4.8447
   24.990    5.0237
   25.005    5.1290
   25.020    4.9710
   25.035    4.8763
   25.050    4.9921
   25.065    5.4239
   25.080    5.2554
   25.095    5.0658
   25.110    5.1922
   25.125    4.9394
   25.140    4.9500
   25.155    4.8657
   25.170    5.3081
   25.185    5.1290
   25.200    5.3502
   25.215    5.0237
   25.230    5.0237
   25.245    5.4660
   25.260    5.0026
   25.275    4.8236
   25.290    5.2870
   25.305    5.0869
   25.320    4.9816
   25.335    5.1501
   25.350    5.0448
   25.365    5.1185
   25.380    4.9816
   25.395    4.7920
   25.410    4.6340
   25.425    4.8025
   25.440    5.0553
   25.455    5.3923
   25.470    4.7920
   25.485    4.8236
   25.500    4.8973
   25.515    4.9184
   25.530    4.6761
   25.545    4.7183
   25.560    4.6656
   25.575    4.6867
   25.590    5.2343
   25.605    4.8236
   25.620    4.6761
   25.635    4.8657
   25.650    4.6867
   25.665    4.8447
   25.680    4.6551
   25.695    4.8657
   25.710    5.4134
   25.725    5.0553
   25.740    4.9289
   25.755    4.9184
   25.770    4.9289
   25.785    4.8025
   25.800    4.7393
   25.815    5.0448
   25.830    5.3818
   25.845    5.2343
   25.860    5.2133
   25.875    5.2133
   25.890    5.2659
   25.905    5.0132
   25.920    5.0026
   25.935    5.2975
   25.950    5.1395
   25.965    5.1185
   25.980    4.9289
   25.995    4.7499
   26.010    4.8447
   26.025    4.9816
   26.040    4.5392
   26.055    4.8868
   26.070    5.0448
   26.085    4.8131
   26.100    4.8973
   26.115    4.8341
   26.130    4.7499
   26.145    4.8236
   26.160    4.8763
   26.175    5.0869
   26.190    5.0026
   26.205    4.7709
   26.220    4.6656
   26.235    5.0658
   26.250    4.8552
   26.265    4.8973
   26.280    5.0553
   26.295    4.9500
   26.310    4.9078
   26.325    4.7288
   26.340    4.5498
   26.355    5.0553
   26.370    5.2238
   26.385    5.0448
   26.400    4.8341
   26.415    4.8341
   26.430    4.9500
   26.445    4.8236
   26.460    4.6972
   26.475    5.0026
   26.490    5.2554
   26.505    5.3607
   26.520    5.3923
   26.535    4.7709
   26.550    5.0553
   26.565    5.2659
   26.580    4.8868
   26.595    4.8657
   26.610    4.7393
   26.625    4.7815
   26.640    4.6235
   26.655    4.7815
   26.670    4.8341
   26.685    4.8341
   26.700    4.8552
   26.715    4.6761
   26.730    4.6235
   26.745    4.5392
   26.760    4.4760
   26.775    4.9605
   26.790    4.7499
   26.805    4.6972
   26.820    4.6235
   26.835    4.7183
   26.850    4.6445
   26.865    4.3813
   26.880    4.5182
   26.895    4.6761
   26.910    4.5498
   26.925    4.6024
   26.940    4.7499
   26.955    4.8025
   26.970    4.6235
   26.985    4.5498
   27.000    4.8341
   27.015    4.7393
   27.030    4.6656
   27.045    4.8131
   27.060    4.4655
   27.075    4.7604
   27.090    4.7604
   27.105    4.7499
   27.120    4.6761
   27.135    5.0448
   27.150    4.8341
   27.165    4.8868
   27.180    4.9710
   27.195    4.7709
   27.210    4.6551
   27.225    4.6551
   27.240    4.6445
   27.255    4.5919
   27.270    4.4866
   27.285    4.7183
   27.300    4.4655
   27.315    4.4866
   27.330    4.5287
   27.345    4.7604
   27.360    4.6024
   27.375    4.7288
   27.390    4.4971
   27.405    4.5076
   27.420    4.8341
   27.435    4.5498
   27.450    4.6761
   27.465    4.7920
   27.480    4.6551
   27.495    4.8763
   27.510    4.5182
   27.525    4.3813
   27.540    4.6761
   27.555    4.6551
   27.570    4.8763
   27.585    4.5182
   27.600    4.3602
   27.615    4.2443
   27.630    4.9394
   27.645    4.9605
   27.660    4.9921
   27.675    4.8131
   27.690    4.5498
   27.705    4.5076
   27.720    4.6340
   27.735    4.6761
   27.750    4.5603
   27.765    4.4866
   27.780    4.5392
   27.795    4.6340
   27.810    4.6340
   27.825    4.3391
   27.840    4.5814
   27.855    4.6130
   27.870    4.3391
   27.885    4.7288
   27.900    4.5603
   27.915    4.8236
   27.930    5.0342
   27.945    4.7288
   27.960    4.2865
   27.975    4.5182
   27.990    4.6867
   28.005    4.9184
   28.020    4.9394
   28.035    4.9289
   28.050    4.8868
   28.065    4.4444
   28.080    4.3391
   28.095    4.1917
   28.110    4.5708
   28.125    4.4234
   28.140    4.3181
   28.155    4.4655
   28.170    4.8447
   28.185    4.3707
   28.200    4.4971
   28.215    4.1390
   28.230    4.6867
   28.245    4.4550
   28.260    4.6235
   28.275    4.6445
   28.290    4.7709
   28.305    4.5287
   28.320    4.4023
   28.335    4.3707
   28.350    4.2233
   28.365    4.6024
   28.380    4.6972
   28.395    4.4339
   28.410    4.5392
   28.425    4.8868
   28.440    5.0342
   28.455    4.4866
   28.470    4.7183
   28.485    4.4866
   28.500    4.8657
   28.515    4.5076
   28.530    4.5287
   28.545    4.3707
   28.560    4.5392
   28.575    4.8131
   28.590    4.7077
   28.605    4.4339
   28.620    4.1390
   28.635    4.0548
   28.650    4.1285
   28.665    4.5708
   28.680    4.4550
   28.695    4.5392
   28.710    4.4655
   28.725    4.3813
   28.740    4.2970
   28.755    4.3707
   28.770    4.6340
   28.785    4.5287
   28.800    4.3286
   28.815    4.4550
   28.830    4.3286
   28.845    4.2654
   28.860    4.2970
   28.875    4.3181
   28.890    4.4760
   28.905    4.3286
   28.920    4.6445
   28.935    4.3391
   28.950    4.8868
   28.965    4.3391
   28.980    4.2022
   28.995    4.4023
   29.010    4.2443
   29.025    4.3813
   29.040    4.6235
   29.055    4.4339
   29.070    4.4128
   29.085    4.7183
   29.100    4.5182
   29.115    4.5603
   29.130    4.1180
   29.145    4.2549
   29.160    4.3813
   29.175    4.2654
   29.190    4.2549
   29.205    4.2443
   29.220    3.9916
   29.235    4.3497
   29.250    4.3181
   29.265    4.4971
   29.280    4.3497
   29.295    4.7183
   29.310    4.4234
   29.325    4.6656
   29.340    4.8236
   29.355    4.5814
   29.370    4.7815
   29.385    4.4339
   29.400    4.5287
   29.415    4.2022
   29.430    4.4971
   29.445    4.2759
   29.460    4.3181
   29.475    4.2127
   29.490    4.2970
   29.505    4.3602
   29.520    3.9916
   29.535    4.1074
   29.550    4.2022
   29.565    4.2443
   29.580    4.3286
   29.595    4.3813
   29.610    4.4550
   29.625    4.4339
   29.640    4.5076
   29.655    4.3391
   29.670    4.3497
   29.685    4.2865
   29.700    4.3497
   29.715    4.3918
   29.730    4.1180
   29.745    4.1601
   29.760    4.0758
   29.775    4.3391
   29.790    4.0758
   29.805    4.1180
   29.820    4.1496
   29.835    4.4760
   29.850    4.5076
   29.865    4.4339
   29.880    4.3075
   29.895    3.9810
   29.910    4.1706
   29.925    4.3707
   29.940    4.6235
   29.955    4.4339
   29.970    4.5182
   29.985    4.4550
   30.000    4.1917
   30.015    4.2127
   30.030    4.4128
   30.045    4.3075
   30.060    4.2443
   30.075    4.2127
   30.090    4.2549
   30.105    4.3286
   30.120    4.2759
   30.135    4.1180
   30.150    4.0442
   30.165    4.5498
   30.180    4.5287
   30.195    4.2443
   30.210    4.0337
   30.225    4.2127
   30.240    4.0864
   30.255    4.4971
   30.270    4.3181
   30.285    4.2127
   30.300    4.2127
   30.315    4.1074
   30.330    4.2865
   30.345    4.3918
   30.360    4.4023
   30.375    4.2865
   30.390    4.2127
   30.405    4.0442
   30.420    4.1285
   30.435    4.3391
   30.450    4.1917
   30.465    4.1496
   30.480    4.2549
   30.495    4.0864
   30.510    4.1496
   30.525    4.0864
   30.540    4.1811
   30.555    4.3286
   30.570    4.1496
   30.585    4.2970
   30.600    4.2654
   30.615    4.4550
   30.630    4.4971
   30.645    4.1390
   30.660    4.3918
   30.675    3.9389
   30.690    4.2127
   30.705    4.2970
   30.720    4.2338
   30.735    4.2970
   30.750    4.1917
   30.765    4.1706
   30.780    4.0864
   30.795    4.2233
   30.810    4.2338
   30.825    4.0232
   30.840    4.1180
   30.855    4.0126
   30.870    4.1074
   30.885    4.2127
   30.900    4.2127
   30.915    4.0653
   30.930    4.3286
   30.945    4.2759
   30.960    4.1285
   30.975    3.9916
   30.990    4.0864
   31.005    3.9916
   31.020    4.0442
   31.035    3.9284
   31.050    4.0758
   31.065    4.2865
   31.080    3.9916
   31.095    4.0126
   31.110    4.1285
   31.125    4.2022
   31.140    4.1706
   31.155    4.1811
   31.170    4.1390
   31.185    4.1180
   31.200    3.9810
   31.215    4.0969
   31.230    3.8863
   31.245    4.0548
   31.260    4.0126
   31.275    4.2022
   31.290    4.2338
   31.305    3.9705
   31.320    3.8652
   31.335    3.8968
   31.350    4.2127
   31.365    4.1706
   31.380    4.3075
   31.395    4.1180
   31.410    4.3918
   31.425    3.8441
   31.440    3.9284
   31.455    3.8547
   31.470    3.9284
   31.485    3.9810
   31.500    3.8336
   31.515    4.1285
   31.530    4.1601
   31.545    3.7072
   31.560    4.0969
   31.575    4.1180
   31.590    4.1601
   31.605    4.1706
   31.620    4.1496
   31.635    4.1496
   31.650    3.9179
   31.665    4.0969
   31.680    4.1074
   31.695    4.1811
   31.710    4.3918
   31.725    3.8863
   31.740    4.0864
   31.755    4.1811
   31.770    4.2970
   31.785    4.1706
   31.800    3.8336
   31.815    3.7599
   31.830    3.8968
   31.845    3.6440
   31.860    3.7809
   31.875    3.8125
   31.890    4.1917
   31.905    3.6546
   31.920    3.9494
   31.935    4.3391
   31.950    3.7809
   31.965    3.8020
   31.980    3.9494
   31.995    3.7809
   32.010    3.6019
   32.025    3.6335
   32.040    4.1074
   32.055    4.1496
   32.070    4.1496
   32.085    4.0548
   32.100    4.1390
   32.115    3.8652
   32.130    4.0548
   32.145    4.1706
   32.160    4.0864
   32.175    4.0969
   32.190    3.9916
   32.205    4.4444
   32.220    4.0548
   32.235    4.0021
   32.250    3.7915
   32.265    3.9600
   32.280    3.7915
   32.295    3.7704
   32.310    3.8547
   32.325    3.7809
   32.340    3.9073
   32.355    3.6862
   32.370    3.7915
   32.385    3.8336
   32.400    3.8652
   32.415    3.8125
   32.430    3.8020
   32.445    3.9916
   32.460    3.7493
   32.475    3.6546
   32.490    3.9916
   32.505    3.7388
   32.520    3.7493
   32.535    3.8336
   32.550    3.8547
   32.565    3.8757
   32.580    3.9705
   32.595    3.8125
   32.610    3.6651
   32.625    3.7283
   32.640    3.6756
   32.655    3.6440
   32.670    3.9705
   32.685    3.6756
   32.700    3.7704
   32.715    3.5071
   32.730    3.5598
   32.745    3.8757
   32.760    3.9389
   32.775    3.7809
   32.790    3.6862
   32.805    3.9284
   32.820    3.8125
   32.835    3.9494
   32.850    3.6967
   32.865    3.6862
   32.880    3.7493
   32.895    3.6967
   32.910    3.8231
   32.925    3.9494
   32.940    3.9494
   32.955    3.8757
   32.970    3.5176
   32.985    3.6756
   33.000    3.8125
   33.015    3.7177
   33.030    3.7809
   33.045    3.7493
   33.060    3.8336
   33.075    3.7388
   33.090    3.6862
   33.105    3.8020
   33.120    3.9179
   33.135    3.7704
   33.150    4.0969
   33.165    4.2865
   33.180    4.0126
   33.195    3.5808
   33.210    3.6756
   33.225    3.5387
   33.240    3.6335
   33.255    3.4123
   33.270    3.5914
   33.285    3.8547
   33.300    3.8441
   33.315    3.7177
   33.330    3.6124
   33.345    3.9179
   33.360    3.7599
   33.375    3.5071
   33.390    3.7493
   33.405    3.6651
   33.420    3.8441
   33.435    3.4755
   33.450    3.3491
   33.465    3.4439
   33.480    3.4755
   33.495    3.8125
   33.510    3.7809
   33.525    3.6124
   33.540    3.7599
   33.555    3.6967
   33.570    3.9600
   33.585    4.0442
   33.600    3.8757
   33.615    3.5176
   33.630    3.5598
   33.645    3.6756
   33.660    3.4334
   33.675    3.6230
   33.690    3.4439
   33.705    3.4860
   33.720    3.4966
   33.735    3.8652
   33.750    3.6967
   33.765    3.8020
   33.780    3.9389
   33.795    3.5387
   33.810    3.6019
   33.825    3.8231
   33.840    3.8757
   33.855    3.8863
   33.870    3.8757
   33.885    3.5914
   33.900    3.6440
   33.915    3.3597
   33.930    3.8547
   33.945    3.9073
   33.960    3.8125
   33.975    3.7388
   33.990    3.8125
   34.005    3.5598
   34.020    3.7283
   34.035    3.7599
   34.050    3.7599
   34.065    3.5176
   34.080    3.7599
   34.095    3.7388
   34.110    3.4650
   34.125    3.1912
   34.140    3.5492
   34.155    3.5492
   34.170    3.7072
   34.185    3.7704
   34.200    4.1496
   34.215    3.7388
   34.230    3.6230
   34.245    3.6967
   34.260    3.8968
   34.275    3.8547
   34.290    3.5808
   34.305    3.5808
   34.320    3.4966
   34.335    3.4544
   34.350    3.4966
   34.365    3.5914
   34.380    3.5703
   34.395    3.5492
   34.410    3.4544
   34.425    3.4544
   34.440    3.3807
   34.455    3.7072
   34.470    3.5176
   34.485    3.6440
   34.500    3.7599
   34.515    3.6651
   34.530    3.6440
   34.545    3.5282
   34.560    3.3070
   34.575    3.4018
   34.590    3.3175
   34.605    3.3702
   34.620    3.2859
   34.635    3.4966
   34.650    3.5492
   34.665    3.5914
   34.680    3.7704
   34.695    3.8231
   34.710    3.1069
   34.725    3.1912
   34.740    3.3702
   34.755    3.4439
   34.770    3.4755
   34.785    3.5176
   34.800    3.4860
   34.815    3.2543
   34.830    3.5282
   34.845    3.2122
   34.860    3.6335
   34.875    3.5808
   34.890    3.6124
   34.905    3.6967
   34.920    3.4439
   34.935    3.6756
   34.950    3.5176
   34.965    3.4860
   34.980    3.4755
   34.995    3.4860
   35.010    3.5176
   35.025    3.8125
   35.040    3.7809
   35.055    3.3070
   35.070    3.4123
   35.085    3.3070
   35.100    3.3175
   35.115    3.3175
   35.130    3.2333
   35.145    3.4334
   35.160    3.4966
   35.175    3.2438
   35.190    3.2754
   35.205    3.4123
   35.220    3.3386
   35.235    3.4755
   35.250    3.3807
   35.265    3.1912
   35.280    3.1806
   35.295    3.4229
   35.310    3.5071
   35.325    3.5914
   35.340    3.3702
   35.355    3.5914
   35.370    3.4755
   35.385    3.3807
   35.400    3.5598
   35.415    3.5071
   35.430    3.2965
   35.445    3.2859
   35.460    3.4334
   35.475    3.1174
   35.490    3.3386
   35.505    3.3070
   35.520    3.4439
   35.535    3.2438
   35.550    3.2122
   35.565    3.2438
   35.580    3.4229
   35.595    3.4018
   35.610    3.0437
   35.625    3.4334
   35.640    3.6019
   35.655    3.5282
   35.670    3.5914
   35.685    3.3281
   35.700    3.3597
   35.715    3.4966
   35.730    3.5071
   35.745    3.3491
   35.760    3.1596
   35.775    3.3491
   35.790    3.2017
   35.805    3.4334
   35.820    3.2965
   35.835    3.1069
   35.850    3.0753
   35.865    3.3702
   35.880    3.4650
   35.895    3.2859
   35.910    3.2543
   35.925    3.2543
   35.940    3.4334
   35.955    3.5282
   35.970    3.2543
   35.985    3.3281
   36.000    3.2227
   36.015    3.0858
   36.030    3.5071
   36.045    3.4650
   36.060    3.2543
   36.075    3.3807
   36.090    3.1174
   36.105    3.0753
   36.120    3.2333
   36.135    3.4755
   36.150    3.4544
   36.165    3.4544
   36.180    3.3070
   36.195    3.2122
   36.210    3.2438
   36.225    3.3175
   36.240    3.5492
   36.255    3.1806
   36.270    3.1912
   36.285    3.0121
   36.300    3.2017
   36.315    3.1806
   36.330    3.1280
   36.345    2.8647
   36.360    3.2859
   36.375    3.3702
   36.390    3.2333
   36.405    3.1912
   36.420    3.3281
   36.435    3.1596
   36.450    3.1912
   36.465    3.2227
   36.480    3.4439
   36.495    3.2649
   36.510    3.2438
   36.525    3.1174
   36.540    3.0437
   36.555    3.4544
   36.570    3.2438
   36.585    3.3070
   36.600    3.2649
   36.615    3.0964
   36.630    3.2122
   36.645    3.2965
   36.660    3.3597
   36.675    3.2859
   36.690    2.9910
   36.705    3.3070
   36.720    3.1280
   36.735    3.2227
   36.750    3.2543
   36.765    3.2017
   36.780    3.0858
   36.795    2.8963
   36.810    3.2543
   36.825    3.2859
   36.840    3.4123
   36.855    3.0858
   36.870    3.1490
   36.885    3.0858
   36.900    3.3491
   36.915    3.3913
   36.930    3.4650
   36.945    3.3597
   36.960    3.1912
   36.975    3.0121
   36.990    3.1806
   37.005    3.0964
   37.020    3.2333
   37.035    3.3597
   37.050    3.4018
   37.065    3.2859
   37.080    3.1069
   37.095    3.2122
   37.110    3.2649
   37.125    3.3175
   37.140    3.1174
   37.155    3.0858
   37.170    3.0332
   37.185    3.1806
   37.200    3.2965
   37.215    3.0753
   37.230    3.0542
   37.245    3.2438
   37.260    3.1806
   37.275    3.2543
   37.290    2.9068
   37.305    3.2754
   37.320    3.1596
   37.335    3.1912
   37.350    3.2122
   37.365    3.1490
   37.380    3.0753
   37.395    2.9489
   37.410    3.0226
   37.425    2.9173
   37.440    3.1280
   37.455    3.4755
   37.470    3.3913
   37.485    3.3597
   37.500    3.2227
   37.515    3.1490
   37.530    3.0648
   37.545    3.2333
   37.560    3.1280
   37.575    3.1069
   37.590    3.0226
   37.605    3.1280
   37.620    3.1280
   37.635    2.9805
   37.650    3.0437
   37.665    3.1596
   37.680    3.2543
   37.695    3.0332
   37.710    3.0542
   37.725    3.0226
   37.740    2.9700
   37.755    2.9068
   37.770    3.0226
   37.785    3.1385
   37.800    3.3281
   37.815    3.1701
   37.830    3.1806
   37.845    3.0226
   37.860    3.3597
   37.875    3.2965
   37.890    3.1385
   37.905    3.1912
   37.920    3.1280
   37.935    3.2017
   37.950    3.2227
   37.965    3.0226
   37.980    3.2965
   37.995    3.1385
   38.010    3.2122
   38.025    2.8752
   38.040    2.8857
   38.055    3.1069
   38.070    3.2438
   38.085    2.9805
   38.100    3.0858
   38.115    3.2227
   38.130    3.0858
   38.145    3.0542
   38.160    3.1385
   38.175    3.2333
   38.190    3.1280
   38.205    3.2438
   38.220    3.1806
   38.235    3.1701
   38.250    3.1280
   38.265    3.2122
   38.280    3.1806
   38.295    2.8752
   38.310    2.9489
   38.325    3.1280
   38.340    2.8647
   38.355    3.0964
   38.370    3.0121
   38.385    3.1385
   38.400    3.0858
   38.415    3.2754
   38.430    3.3070
   38.445    3.0964
   38.460    3.0753
   38.475    3.2017
   38.490    3.1069
   38.505    3.2754
   38.520    3.1174
   38.535    2.9384
   38.550    3.1596
   38.565    3.0332
   38.580    3.0542
   38.595    3.2333
   38.610    3.0964
   38.625    3.1069
   38.640    3.0753
   38.655    3.1174
   38.670    3.2122
   38.685    3.1385
   38.700    3.1280
   38.715    2.8857
   38.730    2.9700
   38.745    3.0753
   38.760    2.7804
   38.775    2.9489
   38.790    2.8857
   38.805    2.8436
   38.820    3.1912
   38.835    3.1701
   38.850    3.1490
   38.865    3.1596
   38.880    2.9173
   38.895    3.2754
   38.910    3.0121
   38.925    2.8963
   38.940    2.9068
   38.955    3.3913
   38.970    3.3070
   38.985    3.0648
   39.000    3.2333
   39.015    3.0964
   39.030    2.8647
   39.045    3.1701
   39.060    3.2859
   39.075    2.9910
   39.090    3.2122
   39.105    3.0648
   39.120    3.0332
   39.135    3.1069
   39.150    3.3913
   39.165    3.3597
   39.180    3.0858
   39.195    2.8120
   39.210    3.0753
   39.225    2.8963
   39.240    3.0226
   39.255    3.1490
   39.270    3.1596
   39.285    2.9910
   39.300    3.1912
   39.315    3.1280
   39.330    3.0542
   39.345    3.0437
   39.360    2.7383
   39.375    2.8541
   39.390    2.9489
   39.405    2.7804
   39.420    2.8331
   39.435    3.0332
   39.450    2.8120
   39.465    2.7593
   39.480    3.1385
   39.495    3.0121
   39.510    2.9068
   39.525    2.9384
   39.540    3.1280
   39.555    2.9068
   39.570    2.8752
   39.585    3.0332
   39.600    3.0753
   39.615    3.3281
   39.630    3.0753
   39.645    3.0753
   39.660    2.9489
   39.675    3.3070
   39.690    2.9384
   39.705    3.0542
   39.720    3.0437
   39.735    2.9068
   39.750    3.0121
   39.765    3.0858
   39.780    3.1701
   39.795    2.9173
   39.810    2.8436
   39.825    3.0964
   39.840    2.9173
   39.855    2.8436
   39.870    3.1912
   39.885    2.9805
   39.900    2.9700
   39.915    3.1280
   39.930    2.8647
   39.945    2.9384
   39.960    2.8963
   39.975    2.9384
   39.990    3.1490
