    1.500   27.1546
    1.515   27.3302
    1.530   26.9791
    1.545   27.7163
    1.560   25.6451
    1.575   26.5052
    1.590   26.1541
    1.605   26.0488
    1.620   25.5398
    1.635   24.9254
    1.650   25.0483
    1.665   24.5392
    1.680   24.3813
    1.695   23.7142
    1.710   23.4509
    1.725   22.7664
    1.740   23.7142
    1.755   22.6259
    1.770   23.2403
    1.785   23.3807
    1.800   22.6786
    1.815   21.9765
    1.830   22.3626
    1.845   21.9765
    1.860   21.4674
    1.875   20.7127
    1.890   20.9408
    1.905   20.7653
    1.920   20.2212
    1.935   20.4845
    1.950   20.6775
    1.965   20.6249
    1.980   20.2387
    1.995   19.0627
    2.010   19.3260
    2.025   20.1334
    2.040   20.3616
    2.055   19.8350
    2.070   19.2206
    2.085   19.7823
    2.100   19.2031
    2.115   20.1685
    2.130   20.5371
    2.145   19.5190
    2.160   19.0978
    2.175   19.1680
    2.190   19.0978
    2.205   19.0627
    2.220   19.0978
    2.235   19.3435
    2.250   18.9047
    2.265   19.7648
    2.280   18.3956
    2.295   18.5887
    2.310   18.8520
    2.325   18.7818
    2.340   19.7121
    2.355   18.4483
    2.370   18.6414
    2.385   18.9047
    2.400   17.9744
    2.415   18.4132
    2.430   19.5366
    2.445   18.7994
    2.460   18.4308
    2.475   18.3605
    2.490   18.9573
    2.505   18.9047
    2.520   18.4132
    2.535   19.2206
    2.550   19.0627
    2.565   18.9573
    2.580   18.7467
    2.595   19.1504
    2.610   20.1861
    2.625   19.4313
    2.640   19.3435
    2.655   20.1334
    2.670   19.7648
    2.685   20.5547
    2.700   20.1510
    2.715   20.1510
    2.730   21.0988
    2.745   21.3797
    2.760   21.6254
    2.775   20.7302
    2.790   21.2392
    2.805   21.9765
    2.820   22.6786
    2.835   22.7488
    2.850   23.1350
    2.865   22.5908
    2.880   22.2047
    2.895   23.6089
    2.910   23.1525
    2.925   22.8015
    2.940   24.7674
    2.955   24.6621
    2.970   25.1360
    2.985   25.7504
    3.000   25.1887
    3.015   26.8913
    3.030   27.0142
    3.045   27.3126
    3.060   27.5233
    3.075   27.3126
    3.090   27.7866
    3.105   28.8397
    3.120   29.7876
    3.135   31.2445
    3.150   31.3674
    3.165   31.8940
    3.180   32.9296
    3.195   33.2807
    3.210   33.8775
    3.225   34.2285
    3.240   34.5094
    3.255   36.9317
    3.270   38.3360
    3.285   37.8094
    3.300   39.4594
    3.315   40.2668
    3.330   41.8115
    3.345   43.5317
    3.360   45.4801
    3.375   45.9891
    3.390   47.5689
    3.405   49.8508
    3.420   50.8689
    3.435   52.0449
    3.450   53.9933
    3.465   56.7843
    3.480   58.5571
    3.495   59.4348
    3.510   62.9279
    3.525   66.4209
    3.540   70.0544
    3.555   71.8975
    3.570   74.8815
    3.585   75.8118
    3.600   82.0958
    3.615   86.6421
    3.630   92.6979
    3.645   97.5601
    3.660  101.8080
    3.675  107.7234
    3.690  115.0606
    3.705  122.9243
    3.720  131.2796
    3.735  142.2503
    3.750  154.0460
    3.765  169.1592
    3.780  194.4708
    3.795  222.1520
    3.810  261.6992
    3.825  302.8085
    3.840  318.3079
    3.855  299.0170
    3.870  253.3790
    3.885  187.4320
    3.900  117.1494
    3.915   59.9438
    3.930   29.7525
    3.945   18.6940
    3.960   16.0786
    3.975   13.9021
    3.990   12.4803
    4.005   11.4271
    4.020   11.6026
    4.035   11.3393
    4.050   11.0058
    4.065   10.8478
    4.080   10.7249
    4.095   10.4265
    4.110    9.9526
    4.125    9.8999
    4.140    9.6542
    4.155    9.2680
    4.170    9.9702
    4.185    9.3207
    4.200   10.0579
    4.215    9.4436
    4.230    9.5313
    4.245    9.7244
    4.260    9.4085
    4.275    9.1627
    4.290    9.8297
    4.305    9.9526
    4.320    9.8999
    4.335    9.5840
    4.350    9.6718
    4.365    9.8648
    4.380    9.9877
    4.395    9.5489
    4.410    9.0925
    4.425    9.2154
    4.440    8.9170
    4.455    9.8297
    4.470    9.4260
    4.485    9.3207
    4.500    9.7244
    4.515    9.3382
    4.530    9.5840
    4.545    9.6718
    4.560   10.1808
    4.575    9.9351
    4.590    9.8297
    4.605   10.5319
    4.620    9.8824
    4.635   10.3212
    4.650   10.5670
    4.665   10.0579
    4.680    9.9175
    4.695   10.2335
    4.710   10.4616
    4.725   10.4616
    4.740   11.0058
    4.755   10.9005
    4.770   11.1287
    4.785   10.6723
    4.800   11.0058
    4.815   11.6202
    4.830   11.1111
    4.845   11.3217
    4.860   11.8483
    4.875   11.8308
    4.890   12.3749
    4.905   12.6382
    4.920   12.1467
    4.935   12.4627
    4.950   12.5680
    4.965   12.8489
    4.980   13.2350
    4.995   13.5334
    5.010   13.9372
    5.025   13.8318
    5.040   13.6914
    5.055   14.1829
    5.070   14.7095
    5.085   16.0962
    5.100   15.6749
    5.115   15.9207
    5.130   16.4648
    5.145   17.6935
    5.160   17.9217
    5.175   18.5361
    5.190   18.3430
    5.205   19.3260
    5.220   19.9754
    5.235   20.9584
    5.250   23.1876
    5.265   23.4685
    5.280   24.6972
    5.295   25.1185
    5.310   27.4882
    5.325   29.7876
    5.340   30.6653
    5.355   33.0525
    5.370   36.4753
    5.385   39.9509
    5.400   45.1641
    5.415   51.1673
    5.430   61.7167
    5.445   69.9842
    5.460   72.4767
    5.475   68.1060
    5.490   61.2954
    5.505   49.2189
    5.520   33.6668
    5.535   20.8531
    5.550   12.8664
    5.565   10.4090
    5.580    9.3031
    5.595    8.8117
    5.610    8.4781
    5.625    8.8819
    5.640    8.7765
    5.655    8.2149
    5.670    7.8111
    5.685    7.6707
    5.700    7.7409
    5.715    8.1446
    5.730    8.2851
    5.745    8.2324
    5.760    8.0393
    5.775    7.7936
    5.790    7.3547
    5.805    7.6707
    5.820    8.0218
    5.835    8.3904
    5.850    7.9164
    5.865    8.2324
    5.880    8.0042
    5.895    7.4425
    5.910    7.6532
    5.925    7.8989
    5.940    7.6180
    5.955    7.7760
    5.970    7.9340
    5.985    7.7234
    6.000    7.9340
    6.015    8.2149
    6.030    7.7936
    6.045    8.0042
    6.060    8.0744
    6.075    8.4255
    6.090    8.2149
    6.105    8.0218
    6.120    7.8287
    6.135    7.6532
    6.150    7.8638
    6.165    8.1446
    6.180    7.9164
    6.195    8.0744
    6.210    8.0218
    6.225    7.8989
    6.240    7.8462
    6.255    8.2149
    6.270    8.2324
    6.285    8.1095
    6.300    8.0042
    6.315    9.0223
    6.330    8.6537
    6.345    8.5308
    6.360    8.3553
    6.375    7.9340
    6.390    8.3904
    6.405    8.5484
    6.420    8.0218
    6.435    8.3553
    6.450    9.0398
    6.465    8.1797
    6.480    8.7590
    6.495    8.6361
    6.510    9.0047
    6.525    8.7765
    6.540    9.0750
    6.555    9.8297
    6.570    9.5489
    6.585    9.4436
    6.600    9.9175
    6.615   10.3037
    6.630   11.0936
    6.645   11.1638
    6.660   12.3223
    6.675   12.0590
    6.690   13.1297
    6.705   13.1122
    6.720   13.2526
    6.735   12.3398
    6.750   11.4973
    6.765    9.9702
    6.780    8.7941
    6.795    8.4957
    6.810    7.8287
    6.825    8.1622
    6.840    8.1622
    6.855    7.9691
    6.870    7.7234
    6.885    7.6707
    6.900    8.1973
    6.915    8.0569
    6.930    7.9691
    6.945    7.9164
    6.960    8.1271
    6.975    8.2324
    6.990    7.6707
    7.005    7.5654
    7.020    7.7936
    7.035    7.3899
    7.050    7.6005
    7.065    7.4952
    7.080    7.4250
    7.095    7.8111
    7.110    7.7234
    7.125    8.1271
    7.140    8.0744
    7.155    7.8462
    7.170    8.4606
    7.185    8.4957
    7.200    8.7414
    7.215    7.7760
    7.230    7.8638
    7.245    7.8111
    7.260    8.3904
    7.275    9.2329
    7.290    9.1803
    7.305    8.6010
    7.320    8.9696
    7.335    8.9345
    7.350    8.8819
    7.365    9.0574
    7.380   10.0579
    7.395    9.1627
    7.410    9.6015
    7.425   10.1106
    7.440   10.0579
    7.455   10.4090
    7.470   10.8654
    7.485   10.9707
    7.500   11.6026
    7.515   11.5324
    7.530   12.4100
    7.545   13.0420
    7.560   14.1829
    7.575   13.9723
    7.590   14.1478
    7.605   14.7270
    7.620   15.8153
    7.635   18.0621
    7.650   18.9398
    7.665   19.2206
    7.680   22.0642
    7.695   23.9073
    7.710   26.3472
    7.725   30.3318
    7.740   34.6849
    7.755   36.9493
    7.770   38.1780
    7.785   32.9472
    7.800   26.2594
    7.815   19.8877
    7.830   14.3584
    7.845   10.0755
    7.860    8.4606
    7.875    8.4781
    7.890    7.9340
    7.905    7.3899
    7.920    7.8638
    7.935    7.8462
    7.950    7.3723
    7.965    8.6010
    7.980    7.7585
    7.995    7.2494
    8.010    7.1441
    8.025    7.0739
    8.040    7.4425
    8.055    7.4074
    8.070    7.6532
    8.085    6.9686
    8.100    7.0563
    8.115    7.4601
    8.130    7.1792
    8.145    7.8111
    8.160    7.6532
    8.175    7.7760
    8.190    7.7409
    8.205    7.6883
    8.220    7.3899
    8.235    7.5829
    8.250    7.6005
    8.265    7.3196
    8.280    7.6005
    8.295    7.2670
    8.310    7.8111
    8.325    7.4601
    8.340    7.3547
    8.355    7.3899
    8.370    7.2845
    8.385    7.3899
    8.400    7.3899
    8.415    7.7409
    8.430    8.1446
    8.445    7.9691
    8.460    7.6356
    8.475    8.2851
    8.490    8.1271
    8.505    8.1973
    8.520    8.5308
    8.535    8.6888
    8.550    8.6010
    8.565    9.4787
    8.580    9.7595
    8.595    9.6191
    8.610   10.0755
    8.625   10.7425
    8.640   11.0585
    8.655   11.9186
    8.670   13.1122
    8.685   14.3760
    8.700   13.5685
    8.715   12.2170
    8.730   11.5675
    8.745    9.6191
    8.760    8.1622
    8.775    7.9867
    8.790    7.7409
    8.805    7.4776
    8.820    7.7936
    8.835    7.5303
    8.850    7.3196
    8.865    7.4601
    8.880    7.3723
    8.895    7.6005
    8.910    7.3547
    8.925    7.6532
    8.940    7.1266
    8.955    7.9516
    8.970    7.4601
    8.985    7.0037
    9.000    7.5829
    9.015    7.5654
    9.030    8.3026
    9.045    8.0218
    9.060    7.6883
    9.075    7.9164
    9.090    8.6010
    9.105    8.7941
    9.120    8.8643
    9.135    9.2154
    9.150    9.0574
    9.165    9.5664
    9.180    9.9702
    9.195   10.8127
    9.210   10.8829
    9.225   10.7776
    9.240   11.1813
    9.255   11.2340
    9.270   12.6031
    9.285   13.0244
    9.300   14.2531
    9.315   14.4989
    9.330   15.3941
    9.345   16.1840
    9.360   17.3951
    9.375   19.2031
    9.390   21.0462
    9.405   21.2392
    9.420   23.3983
    9.435   26.7334
    9.450   30.9110
    9.465   35.4748
    9.480   42.8647
    9.495   49.3593
    9.510   55.7486
    9.525   57.6619
    9.540   51.2902
    9.555   43.4439
    9.570   34.0004
    9.585   23.4334
    9.600   14.3935
    9.615   10.4792
    9.630    8.6712
    9.645    7.8111
    9.660    7.7760
    9.675    7.3723
    9.690    6.9861
    9.705    7.0915
    9.720    6.9510
    9.735    6.9861
    9.750    7.4952
    9.765    7.4250
    9.780    7.6532
    9.795    7.6005
    9.810    7.0388
    9.825    6.7579
    9.840    7.4074
    9.855    7.1792
    9.870    6.9159
    9.885    7.0388
    9.900    6.6702
    9.915    7.0388
    9.930    7.0388
    9.945    7.1441
    9.960    7.4601
    9.975    7.7585
    9.990    7.8462
   10.005    7.8111
   10.020    7.8111
   10.035    7.1441
   10.050    7.4074
   10.065    7.6883
   10.080    7.9340
   10.095    7.6883
   10.110    7.6883
   10.125    8.0920
   10.140    8.7590
   10.155    8.3728
   10.170    8.8819
   10.185    9.1627
   10.200    9.7946
   10.215   10.0228
   10.230   11.0760
   10.245   11.3920
   10.260   12.7435
   10.275   13.1999
   10.290   13.3052
   10.305   13.3228
   10.320   12.7084
   10.335   11.0233
   10.350    9.4787
   10.365    8.2149
   10.380    7.3196
   10.395    6.5298
   10.410    6.9159
   10.425    6.9335
   10.440    6.8282
   10.455    6.0734
   10.470    6.5824
   10.485    6.8808
   10.500    7.0563
   10.515    7.3372
   10.530    6.9335
   10.545    7.1617
   10.560    7.1968
   10.575    7.2143
   10.590    6.8633
   10.605    7.1792
   10.620    7.2845
   10.635    7.1617
   10.650    6.7930
   10.665    7.2143
   10.680    7.0037
   10.695    7.7058
   10.710    7.9867
   10.725    8.0920
   10.740    7.5303
   10.755    7.4425
   10.770    7.6707
   10.785    8.1446
   10.800    7.8638
   10.815    9.1803
   10.830    9.2329
   10.845    9.5664
   10.860   10.6021
   10.875   10.8303
   10.890   10.9356
   10.905   11.4797
   10.920   11.0936
   10.935   13.0771
   10.950   14.9903
   10.965   16.1137
   10.980   18.4834
   10.995   20.0983
   11.010   20.7127
   11.025   20.0632
   11.040   17.7462
   11.055   15.3414
   11.070   12.2872
   11.085   10.2861
   11.100    8.1446
   11.115    7.0563
   11.130    6.9510
   11.145    6.5298
   11.160    7.0739
   11.175    6.8984
   11.190    7.2670
   11.205    7.0915
   11.220    6.2138
   11.235    6.3191
   11.250    6.8106
   11.265    6.6877
   11.280    7.2143
   11.295    6.9510
   11.310    7.0563
   11.325    7.1792
   11.340    7.1090
   11.355    7.1617
   11.370    7.4250
   11.385    6.9335
   11.400    7.6180
   11.415    7.0915
   11.430    7.5478
   11.445    7.6356
   11.460    8.0042
   11.475    7.9691
   11.490    8.3202
   11.505    8.1446
   11.520    8.4957
   11.535    8.9170
   11.550    9.5664
   11.565    9.7946
   11.580   10.2335
   11.595   10.6547
   11.610   10.9531
   11.625   12.3925
   11.640   13.3755
   11.655   14.4638
   11.670   16.5526
   11.685   16.7106
   11.700   16.5701
   11.715   14.6919
   11.730   13.2175
   11.745   11.3569
   11.760    8.8292
   11.775    8.1622
   11.790    7.1968
   11.805    6.8808
   11.820    7.1441
   11.835    6.7579
   11.850    6.9510
   11.865    7.0739
   11.880    7.0388
   11.895    7.4425
   11.910    7.1266
   11.925    6.4420
   11.940    6.4595
   11.955    6.6175
   11.970    7.1441
   11.985    6.7755
   12.000    6.7930
   12.015    6.7053
   12.030    6.7755
   12.045    7.2670
   12.060    7.1792
   12.075    7.1441
   12.090    7.0388
   12.105    7.1968
   12.120    6.5649
   12.135    7.2143
   12.150    6.8106
   12.165    6.4595
   12.180    6.7228
   12.195    7.0388
   12.210    6.9686
   12.225    7.3723
   12.240    7.4250
   12.255    7.7585
   12.270    7.7936
   12.285    7.7409
   12.300    8.1973
   12.315    8.1797
   12.330    8.7063
   12.345    8.7414
   12.360    7.6707
   12.375    7.5478
   12.390    7.1266
   12.405    7.1090
   12.420    6.4069
   12.435    6.5298
   12.450    6.4069
   12.465    6.3893
   12.480    6.7579
   12.495    6.4244
   12.510    7.1617
   12.525    6.8633
   12.540    6.8282
   12.555    6.3016
   12.570    6.9159
   12.585    6.7579
   12.600    6.7053
   12.615    6.7053
   12.630    6.8282
   12.645    6.5473
   12.660    7.1441
   12.675    7.3547
   12.690    7.3021
   12.705    6.8808
   12.720    6.8984
   12.735    6.7755
   12.750    7.4601
   12.765    7.5303
   12.780    7.1617
   12.795    7.9164
   12.810    7.9867
   12.825    8.6010
   12.840    8.9170
   12.855    8.9170
   12.870    9.4611
   12.885    9.8824
   12.900   11.2866
   12.915   11.9888
   12.930   12.6031
   12.945   11.4446
   12.960   10.8478
   12.975    9.7069
   12.990    9.3734
   13.005    7.7409
   13.020    7.5829
   13.035    6.9861
   13.050    6.9335
   13.065    6.8457
   13.080    6.8106
   13.095    6.4069
   13.110    6.6351
   13.125    6.3191
   13.140    6.4946
   13.155    6.5298
   13.170    6.7579
   13.185    6.6877
   13.200    6.7755
   13.215    6.4771
   13.230    6.8633
   13.245    7.1441
   13.260    6.9159
   13.275    6.7228
   13.290    6.8808
   13.305    7.1090
   13.320    6.8984
   13.335    6.4946
   13.350    6.8808
   13.365    7.0739
   13.380    7.3196
   13.395    7.1441
   13.410    6.5649
   13.425    7.4074
   13.440    7.3021
   13.455    7.3021
   13.470    7.6707
   13.485    7.8813
   13.500    7.9691
   13.515    7.9516
   13.530    7.6883
   13.545    7.8638
   13.560    7.4601
   13.575    7.2494
   13.590    6.9159
   13.605    7.1090
   13.620    6.7228
   13.635    6.7404
   13.650    6.7053
   13.665    6.8633
   13.680    6.8633
   13.695    6.0558
   13.710    6.4946
   13.725    7.0388
   13.740    7.0037
   13.755    7.1792
   13.770    6.8808
   13.785    6.9510
   13.800    6.9861
   13.815    7.2670
   13.830    7.1792
   13.845    7.3899
   13.860    7.9164
   13.875    7.3547
   13.890    7.5654
   13.905    7.7058
   13.920    6.6702
   13.935    7.3196
   13.950    8.6186
   13.965    8.4079
   13.980    8.6537
   13.995    9.7420
   14.010   10.2159
   14.025   10.5494
   14.040   11.1462
   14.055   11.5148
   14.070   11.9888
   14.085   11.0585
   14.100   11.0233
   14.115    9.7771
   14.130    9.1978
   14.145    8.1622
   14.160    7.8813
   14.175    7.0563
   14.190    6.4595
   14.205    6.6351
   14.220    6.8106
   14.235    6.8633
   14.250    6.5473
   14.265    6.6000
   14.280    6.8984
   14.295    6.9335
   14.310    7.1617
   14.325    6.6175
   14.340    6.8106
   14.355    6.6877
   14.370    6.9861
   14.385    6.3893
   14.400    6.5649
   14.415    6.7579
   14.430    6.3718
   14.445    7.1090
   14.460    7.3021
   14.475    6.8282
   14.490    6.6526
   14.505    6.8633
   14.520    6.7579
   14.535    7.3547
   14.550    6.7404
   14.565    6.8457
   14.580    7.0037
   14.595    6.4244
   14.610    6.3367
   14.625    6.5473
   14.640    6.8106
   14.655    7.3547
   14.670    7.4425
   14.685    6.2840
   14.700    6.1962
   14.715    6.7930
   14.730    7.5654
   14.745    6.9686
   14.760    6.3893
   14.775    6.6175
   14.790    6.7579
   14.805    6.5122
   14.820    6.3893
   14.835    6.5473
   14.850    6.8282
   14.865    6.7228
   14.880    7.0212
   14.895    6.8633
   14.910    6.4946
   14.925    6.7228
   14.940    6.7755
   14.955    6.6000
   14.970    6.8984
   14.985    6.6877
   15.000    6.6000
   15.015    7.3372
   15.030    6.9159
   15.045    7.1266
   15.060    7.6532
   15.075    7.4776
   15.090    7.7760
   15.105    8.2675
   15.120    7.8813
   15.135    8.3377
   15.150    7.4776
   15.165    7.1090
   15.180    7.2670
   15.195    7.3899
   15.210    7.1617
   15.225    6.5473
   15.240    7.0037
   15.255    6.6877
   15.270    6.6000
   15.285    7.0037
   15.300    7.1968
   15.315    7.1090
   15.330    6.6000
   15.345    7.2319
   15.360    6.5649
   15.375    6.8633
   15.390    7.1617
   15.405    6.6702
   15.420    7.1441
   15.435    6.9335
   15.450    6.6877
   15.465    7.2494
   15.480    6.8282
   15.495    6.8984
   15.510    6.8106
   15.525    6.6175
   15.540    6.4771
   15.555    6.8984
   15.570    6.5824
   15.585    6.7228
   15.600    6.8984
   15.615    6.5298
   15.630    6.6351
   15.645    6.5298
   15.660    7.5654
   15.675    7.1968
   15.690    7.0739
   15.705    6.6175
   15.720    7.2143
   15.735    6.7228
   15.750    6.8457
   15.765    6.8633
   15.780    6.8984
   15.795    7.1968
   15.810    7.0915
   15.825    7.0388
   15.840    6.5298
   15.855    6.3542
   15.870    6.8633
   15.885    7.1968
   15.900    7.0037
   15.915    7.0388
   15.930    7.2670
   15.945    7.0037
   15.960    6.8633
   15.975    6.7579
   15.990    6.9686
   16.005    7.6005
   16.020    7.7760
   16.035    8.0920
   16.050    8.6888
   16.065    8.8468
   16.080    9.6367
   16.095    9.8999
   16.110    9.8473
   16.125   10.1983
   16.140    9.7595
   16.155    8.9345
   16.170    8.4430
   16.185    7.9164
   16.200    7.6883
   16.215    7.3372
   16.230    6.8282
   16.245    7.2845
   16.260    7.6005
   16.275    6.9335
   16.290    6.4420
   16.305    6.7228
   16.320    7.0037
   16.335    6.6702
   16.350    6.5649
   16.365    6.7404
   16.380    6.8457
   16.395    6.9686
   16.410    6.8282
   16.425    7.3899
   16.440    6.7228
   16.455    6.3367
   16.470    6.7579
   16.485    6.8282
   16.500    7.0563
   16.515    7.0739
   16.530    7.1968
   16.545    7.2670
   16.560    7.1441
   16.575    7.0739
   16.590    6.8106
   16.605    6.6000
   16.620    6.6702
   16.635    6.8808
   16.650    7.1792
   16.665    6.9335
   16.680    7.1266
   16.695    6.8106
   16.710    6.8808
   16.725    6.5473
   16.740    6.7404
   16.755    7.0037
   16.770    7.0212
   16.785    7.5303
   16.800    7.0563
   16.815    6.6877
   16.830    7.2494
   16.845    7.8462
   16.860    7.5303
   16.875    7.5829
   16.890    7.6883
   16.905    8.1446
   16.920    8.3553
   16.935    8.8468
   16.950   10.2686
   16.965   10.4090
   16.980   11.5324
   16.995   12.7962
   17.010   14.0074
   17.025   15.1308
   17.040   15.1834
   17.055   15.2712
   17.070   13.8669
   17.085   12.6909
   17.100   10.6898
   17.115    9.7420
   17.130    8.2149
   17.145    7.3723
   17.160    7.1266
   17.175    6.9159
   17.190    7.0388
   17.205    6.8984
   17.220    7.2143
   17.235    7.1090
   17.250    6.9335
   17.265    6.8457
   17.280    6.7930
   17.295    7.3547
   17.310    7.4250
   17.325    7.4250
   17.340    6.6702
   17.355    6.8633
   17.370    6.8808
   17.385    7.8462
   17.400    7.2494
   17.415    7.7234
   17.430    8.2324
   17.445    7.6707
   17.460    8.5484
   17.475    8.4781
   17.490    8.1095
   17.505    8.3728
   17.520    7.8111
   17.535    7.3899
   17.550    7.3372
   17.565    7.4250
   17.580    6.7228
   17.595    7.1090
   17.610    6.8106
   17.625    6.7579
   17.640    6.8808
   17.655    6.8106
   17.670    7.1090
   17.685    6.8106
   17.700    7.2845
   17.715    7.1441
   17.730    6.7053
   17.745    6.6351
   17.760    7.0563
   17.775    6.9159
   17.790    7.0563
   17.805    7.0212
   17.820    7.3899
   17.835    7.6180
   17.850    7.6707
   17.865    7.9340
   17.880    8.2149
   17.895    8.2149
   17.910    8.5484
   17.925    8.6010
   17.940    7.9340
   17.955    8.1797
   17.970    7.8813
   17.985    7.1617
   18.000    7.1090
   18.015    7.1090
   18.030    7.2319
   18.045    7.2319
   18.060    6.5298
   18.075    6.8282
   18.090    7.1968
   18.105    7.5478
   18.120    7.2670
   18.135    6.9335
   18.150    6.9510
   18.165    6.7404
   18.180    6.7755
   18.195    6.6702
   18.210    7.2143
   18.225    6.5649
   18.240    6.7755
   18.255    6.9861
   18.270    6.8633
   18.285    7.1266
   18.300    7.3899
   18.315    7.9164
   18.330    7.5829
   18.345    7.2670
   18.360    7.5829
   18.375    7.3723
   18.390    6.8457
   18.405    6.9510
   18.420    7.1792
   18.435    6.8984
   18.450    7.0563
   18.465    6.9335
   18.480    7.0915
   18.495    7.2845
   18.510    7.3196
   18.525    7.7936
   18.540    7.6707
   18.555    7.0563
   18.570    7.4952
   18.585    7.0739
   18.600    7.0915
   18.615    7.3547
   18.630    7.2670
   18.645    7.4425
   18.660    6.9335
   18.675    7.4250
   18.690    7.0915
   18.705    7.0563
   18.720    6.9510
   18.735    6.7930
   18.750    6.7579
   18.765    7.4601
   18.780    7.6707
   18.795    7.7585
   18.810    7.2670
   18.825    7.5127
   18.840    7.0563
   18.855    6.4244
   18.870    6.8984
   18.885    7.0037
   18.900    7.1441
   18.915    7.1968
   18.930    6.8106
   18.945    7.1968
   18.960    6.9861
   18.975    6.7930
   18.990    7.0388
   19.005    7.8287
   19.020    6.9686
   19.035    6.5649
   19.050    6.6702
   19.065    6.9335
   19.080    6.5298
   19.095    7.1090
   19.110    7.3547
   19.125    6.8984
   19.140    6.7579
   19.155    6.8457
   19.170    6.6175
   19.185    6.2138
   19.200    6.7228
   19.215    6.1436
   19.230    6.1962
   19.245    7.0739
   19.260    7.0915
   19.275    7.1441
   19.290    7.1090
   19.305    6.8106
   19.320    6.1787
   19.335    7.0739
   19.350    6.5649
   19.365    7.3723
   19.380    6.9159
   19.395    6.6000
   19.410    6.8633
   19.425    7.0212
   19.440    6.9510
   19.455    6.9159
   19.470    7.2845
   19.485    7.3372
   19.500    8.0218
   19.515    8.7239
   19.530    9.1627
   19.545    8.9170
   19.560    8.8292
   19.575    9.4436
   19.590    9.2154
   19.605    9.2329
   19.620    9.5489
   19.635    8.1446
   19.650    7.9867
   19.665    7.4952
   19.680    6.9510
   19.695    6.6526
   19.710    6.6702
   19.725    7.4601
   19.740    7.3196
   19.755    6.6877
   19.770    6.8984
   19.785    6.5473
   19.800    6.8808
   19.815    6.6526
   19.830    7.3547
   19.845    7.1792
   19.860    6.4946
   19.875    6.7579
   19.890    6.6351
   19.905    7.1090
   19.920    7.1968
   19.935    7.1968
   19.950    6.9686
   19.965    7.2319
   19.980    7.6180
   19.995    7.8813
   20.010    7.5829
   20.025    7.3196
   20.040    6.7404
   20.055    7.6883
   20.070    7.0212
   20.085    6.7930
   20.100    6.6877
   20.115    6.7579
   20.130    7.0037
   20.145    6.6175
   20.160    7.3899
   20.175    7.7234
   20.190    7.3899
   20.205    7.3547
   20.220    7.1266
   20.235    7.3021
   20.250    7.6532
   20.265    8.2500
   20.280    8.4781
   20.295    8.5484
   20.310    9.3031
   20.325    9.7595
   20.340    9.9526
   20.355   10.0930
   20.370   10.1106
   20.385   10.0053
   20.400    9.4962
   20.415    8.6010
   20.430    8.1797
   20.445    7.6883
   20.460    7.2670
   20.475    6.9861
   20.490    7.1792
   20.505    6.9686
   20.520    7.0739
   20.535    6.8984
   20.550    6.5122
   20.565    7.1617
   20.580    6.3542
   20.595    6.8282
   20.610    6.8984
   20.625    6.7930
   20.640    6.3718
   20.655    6.8984
   20.670    6.6702
   20.685    6.8633
   20.700    7.1968
   20.715    6.6526
   20.730    6.7228
   20.745    7.1792
   20.760    7.3547
   20.775    6.7579
   20.790    6.9686
   20.805    7.2494
   20.820    6.3893
   20.835    6.8633
   20.850    6.9861
   20.865    6.5473
   20.880    6.3542
   20.895    7.0037
   20.910    6.8984
   20.925    7.0739
   20.940    7.1266
   20.955    6.9159
   20.970    7.0915
   20.985    6.6526
   21.000    6.9510
   21.015    6.9861
   21.030    6.5649
   21.045    6.5298
   21.060    6.6526
   21.075    6.7930
   21.090    6.2840
   21.105    6.8106
   21.120    6.8457
   21.135    6.6877
   21.150    6.5122
   21.165    6.9159
   21.180    6.8808
   21.195    7.3899
   21.210    7.0915
   21.225    6.6702
   21.240    6.5473
   21.255    6.9510
   21.270    6.7579
   21.285    6.8808
   21.300    6.5298
   21.315    6.7579
   21.330    7.1441
   21.345    6.8808
   21.360    6.7755
   21.375    6.9335
   21.390    7.0388
   21.405    7.3196
   21.420    7.3196
   21.435    6.7053
   21.450    6.7228
   21.465    6.6000
   21.480    6.9861
   21.495    6.9159
   21.510    6.3718
   21.525    6.4244
   21.540    6.8633
   21.555    7.0388
   21.570    6.9510
   21.585    7.2143
   21.600    6.7755
   21.615    6.6877
   21.630    7.3196
   21.645    6.7930
   21.660    6.3016
   21.675    6.7228
   21.690    7.0388
   21.705    7.7409
   21.720    7.4425
   21.735    7.1090
   21.750    7.7936
   21.765    7.1266
   21.780    7.2143
   21.795    7.6180
   21.810    8.1271
   21.825    7.8813
   21.840    8.1622
   21.855    8.2324
   21.870    8.0920
   21.885    8.4430
   21.900    7.5654
   21.915    7.4601
   21.930    7.5303
   21.945    7.4250
   21.960    7.0739
   21.975    7.1266
   21.990    7.2143
   22.005    7.2845
   22.020    7.2319
   22.035    7.2494
   22.050    6.4244
   22.065    6.6526
   22.080    7.4425
   22.095    7.1617
   22.110    7.0037
   22.125    7.5654
   22.140    7.9340
   22.155    7.6883
   22.170    8.1973
   22.185    8.4255
   22.200    7.8111
   22.215    8.3904
   22.230    8.4079
   22.245    7.7936
   22.260    7.7058
   22.275    7.3021
   22.290    7.3372
   22.305    7.3196
   22.320    6.8106
   22.335    7.1617
   22.350    7.3723
   22.365    7.8638
   22.380    7.4074
   22.395    7.7234
   22.410    8.4606
   22.425    8.6712
   22.440    9.0750
   22.455    8.7765
   22.470    9.7069
   22.485   10.8654
   22.500   12.1994
   22.515   12.7787
   22.530   13.6563
   22.545   13.9372
   22.560   13.5159
   22.575   12.8313
   22.590   11.9186
   22.605   11.0409
   22.620   10.0404
   22.635    9.1627
   22.650    8.1622
   22.665    7.7760
   22.680    7.3899
   22.695    7.0212
   22.710    7.4776
   22.725    7.4776
   22.740    8.2500
   22.755    7.8638
   22.770    8.0744
   22.785    8.4430
   22.800    9.5840
   22.815   10.3388
   22.830   10.6723
   22.845   11.4095
   22.860   12.3047
   22.875   11.9537
   22.890   11.4271
   22.905   11.8483
   22.920   11.1813
   22.935   11.1462
   22.950   10.2335
   22.965    9.4436
   22.980    8.3026
   22.995    7.3723
   23.010    7.1617
   23.025    7.6707
   23.040    7.0388
   23.055    6.8633
   23.070    7.1968
   23.085    7.0037
   23.100    6.9159
   23.115    7.3723
   23.130    7.6180
   23.145    7.6532
   23.160    8.1095
   23.175    8.2500
   23.190    8.1271
   23.205    8.0042
   23.220    8.3377
   23.235    8.9345
   23.250    8.7239
   23.265    8.2500
   23.280    7.8638
   23.295    7.2670
   23.310    7.8287
   23.325    7.3723
   23.340    7.2494
   23.355    7.4074
   23.370    7.2319
   23.385    7.1968
   23.400    7.1968
   23.415    6.9159
   23.430    7.1266
   23.445    7.2845
   23.460    7.2494
   23.475    7.2143
   23.490    7.4601
   23.505    7.4601
   23.520    7.7760
   23.535    7.8287
   23.550    7.8111
   23.565    8.5308
   23.580    8.3904
   23.595    8.0393
   23.610    7.6883
   23.625    7.6005
   23.640    7.9516
   23.655    7.6532
   23.670    7.2670
   23.685    6.9861
   23.700    7.5829
   23.715    7.1792
   23.730    7.1266
   23.745    6.8808
   23.760    6.7053
   23.775    7.3372
   23.790    7.5478
   23.805    7.5654
   23.820    7.4952
   23.835    7.9867
   23.850    8.3026
   23.865    8.4079
   23.880    8.5484
   23.895    8.6712
   23.910    9.0925
   23.925    9.1803
   23.940    8.8117
   23.955    8.2324
   23.970    8.0393
   23.985    8.0218
   24.000    7.4074
   24.015    6.8984
   24.030    6.6351
   24.045    6.7228
   24.060    6.8106
   24.075    7.0388
   24.090    6.8633
   24.105    7.1617
   24.120    7.0739
   24.135    6.6702
   24.150    6.8633
   24.165    7.0563
   24.180    7.0739
   24.195    6.9510
   24.210    7.6005
   24.225    7.2670
   24.240    7.3723
   24.255    7.5829
   24.270    7.5303
   24.285    7.6707
   24.300    7.0915
   24.315    7.3021
   24.330    6.6351
   24.345    6.6000
   24.360    7.4074
   24.375    7.0212
   24.390    7.0563
   24.405    7.1617
   24.420    7.0037
   24.435    6.4771
   24.450    6.4946
   24.465    7.2845
   24.480    7.5127
   24.495    7.7585
   24.510    7.6883
   24.525    7.0563
   24.540    6.9861
   24.555    7.5478
   24.570    7.8111
   24.585    7.3547
   24.600    7.4250
   24.615    7.6883
   24.630    7.3723
   24.645    6.8984
   24.660    6.8457
   24.675    6.3893
   24.690    6.5122
   24.705    6.4420
   24.720    7.2143
   24.735    6.4771
   24.750    7.0212
   24.765    7.1792
   24.780    6.7755
   24.795    6.8633
   24.810    7.0037
   24.825    6.7930
   24.840    6.7053
   24.855    6.9335
   24.870    6.8984
   24.885    7.0037
   24.900    7.2670
   24.915    6.8808
   24.930    6.8808
   24.945    6.8282
   24.960    6.8633
   24.975    7.1968
   24.990    6.8633
   25.005    7.1266
   25.020    6.8633
   25.035    6.8282
   25.050    6.8282
   25.065    7.4250
   25.080    7.3899
   25.095    7.0212
   25.110    6.9510
   25.125    7.5654
   25.140    7.9340
   25.155    7.5303
   25.170    7.4601
   25.185    7.8813
   25.200    7.3196
   25.215    6.9335
   25.230    7.1441
   25.245    7.1090
   25.260    6.8282
   25.275    6.6175
   25.290    7.2670
   25.305    7.1266
   25.320    6.7930
   25.335    6.8106
   25.350    7.0037
   25.365    7.4250
   25.380    6.9510
   25.395    6.5298
   25.410    7.1266
   25.425    7.6707
   25.440    7.4074
   25.455    7.4425
   25.470    7.8287
   25.485    8.0393
   25.500    7.5478
   25.515    7.3196
   25.530    7.1090
   25.545    7.4776
   25.560    7.2845
   25.575    6.8106
   25.590    6.5298
   25.605    6.8984
   25.620    7.0563
   25.635    7.0563
   25.650    7.0212
   25.665    7.1968
   25.680    7.9867
   25.695    8.0920
   25.710    8.1271
   25.725    9.4436
   25.740   10.8303
   25.755   10.6196
   25.770   11.2164
   25.785   11.0585
   25.800   11.1813
   25.815   11.1111
   25.830   10.9180
   25.845   10.1983
   25.860    9.8648
   25.875    8.6537
   25.890    7.9691
   25.905    7.9516
   25.920    7.1090
   25.935    6.9686
   25.950    7.4250
   25.965    7.0915
   25.980    6.8457
   25.995    6.8282
   26.010    6.9686
   26.025    6.8457
   26.040    6.9159
   26.055    6.5824
   26.070    6.8457
   26.085    6.9686
   26.100    7.8111
   26.115    7.5303
   26.130    7.0037
   26.145    7.1617
   26.160    7.1792
   26.175    7.1090
   26.190    6.9510
   26.205    6.7930
   26.220    6.1436
   26.235    6.7053
   26.250    6.8984
   26.265    6.8282
   26.280    6.1436
   26.295    6.5298
   26.310    7.4952
   26.325    7.2494
   26.340    7.6180
   26.355    7.6532
   26.370    7.5829
   26.385    7.7058
   26.400    7.4425
   26.415    7.1792
   26.430    7.3723
   26.445    7.1441
   26.460    7.7760
   26.475    7.3899
   26.490    6.6702
   26.505    6.8808
   26.520    6.5824
   26.535    6.8984
   26.550    6.8984
   26.565    6.3893
   26.580    6.7930
   26.595    6.7579
   26.610    6.8457
   26.625    7.3899
   26.640    6.3893
   26.655    6.2138
   26.670    6.3542
   26.685    6.7755
   26.700    6.3718
   26.715    6.4069
   26.730    6.4946
   26.745    6.3893
   26.760    7.0037
   26.775    6.6526
   26.790    6.8808
   26.805    6.3016
   26.820    6.3016
   26.835    6.7579
   26.850    6.7579
   26.865    6.4069
   26.880    6.6702
   26.895    7.0915
   26.910    7.3547
   26.925    7.8462
   26.940    8.0920
   26.955    7.8462
   26.970    8.3377
   26.985    8.3553
   27.000    8.1622
   27.015    9.1452
   27.030    8.8468
   27.045    8.7063
   27.060    8.1622
   27.075    7.9516
   27.090    7.3899
   27.105    7.2143
   27.120    6.8633
   27.135    6.8457
   27.150    6.7930
   27.165    6.7404
   27.180    6.5122
   27.195    6.7930
   27.210    6.9335
   27.225    6.6526
   27.240    6.9686
   27.255    6.6526
   27.270    6.1787
   27.285    6.2489
   27.300    6.9335
   27.315    6.4771
   27.330    6.4244
   27.345    6.6526
   27.360    6.7228
   27.375    6.5824
   27.390    6.9159
   27.405    6.2138
   27.420    6.3893
   27.435    6.8808
   27.450    6.5122
   27.465    7.5127
   27.480    7.4776
   27.495    6.7404
   27.510    7.4601
   27.525    7.1968
   27.540    7.3723
   27.555    7.7234
   27.570    7.8638
   27.585    7.7058
   27.600    7.6356
   27.615    7.5829
   27.630    7.1090
   27.645    6.8282
   27.660    6.5298
   27.675    6.1085
   27.690    6.4420
   27.705    6.3542
   27.720    6.1962
   27.735    6.4946
   27.750    6.1436
   27.765    6.9686
   27.780    7.2670
   27.795    6.7930
   27.810    6.5473
   27.825    6.5824
   27.840    6.9159
   27.855    6.9861
   27.870    6.5298
   27.885    6.6877
   27.900    6.6702
   27.915    6.8984
   27.930    7.0388
   27.945    6.6000
   27.960    6.7930
   27.975    6.5824
   27.990    7.0037
   28.005    6.9335
   28.020    6.9159
   28.035    7.1090
   28.050    6.9159
   28.065    7.1968
   28.080    7.1968
   28.095    7.4074
   28.110    7.4776
   28.125    7.6180
   28.140    7.6005
   28.155    7.8462
   28.170    7.6707
   28.185    7.2143
   28.200    7.7234
   28.215    6.8457
   28.230    6.8984
   28.245    6.7579
   28.260    6.7930
   28.275    6.8457
   28.290    5.9154
   28.305    6.6175
   28.320    6.6000
   28.335    7.1441
   28.350    7.0037
   28.365    7.3723
   28.380    7.7585
   28.395    7.8989
   28.410    8.0218
   28.425    8.3553
   28.440    8.0393
   28.455    7.7058
   28.470    7.7058
   28.485    7.6532
   28.500    7.8287
   28.515    7.2670
   28.530    6.5649
   28.545    6.2313
   28.560    6.8457
   28.575    6.4946
   28.590    6.3016
   28.605    6.6175
   28.620    7.0915
   28.635    6.4946
   28.650    6.3367
   28.665    6.6877
   28.680    6.4771
   28.695    6.7404
   28.710    6.5298
   28.725    6.6000
   28.740    6.7930
   28.755    6.3542
   28.770    6.3191
   28.785    6.1611
   28.800    6.5473
   28.815    6.3718
   28.830    6.3893
   28.845    6.1611
   28.860    6.4069
   28.875    6.2840
   28.890    6.7404
   28.905    6.7930
   28.920    6.4595
   28.935    6.3718
   28.950    6.4244
   28.965    6.9861
   28.980    7.2143
   28.995    6.6000
   29.010    6.9686
   29.025    6.9686
   29.040    6.8633
   29.055    6.2138
   29.070    6.6175
   29.085    6.7930
   29.100    6.7930
   29.115    6.7404
   29.130    6.5824
   29.145    7.0037
   29.160    6.6702
   29.175    7.2494
   29.190    6.8984
   29.205    6.7053
   29.220    7.0739
   29.235    7.5654
   29.250    7.6532
   29.265    7.7936
   29.280    7.1792
   29.295    7.5829
   29.310    7.3899
   29.325    7.0037
   29.340    6.9510
   29.355    6.5122
   29.370    6.6702
   29.385    6.4244
   29.400    6.2840
   29.415    6.1962
   29.430    6.4420
   29.445    6.8984
   29.460    6.2138
   29.475    6.0909
   29.490    6.1085
   29.505    6.3191
   29.520    6.1436
   29.535    6.3367
   29.550    6.3191
   29.565    6.4244
   29.580    6.2840
   29.595    6.1787
   29.610    6.3367
   29.625    6.1260
   29.640    6.0383
   29.655    6.5122
   29.670    6.3191
   29.685    5.8452
   29.700    6.7228
   29.715    7.0739
   29.730    7.1266
   29.745    6.8282
   29.760    7.1090
   29.775    7.3372
   29.790    7.0563
   29.805    6.6526
   29.820    6.8457
   29.835    6.6877
   29.850    7.3372
   29.865    6.6351
   29.880    6.7404
   29.895    6.4244
   29.910    6.0558
   29.925    6.0909
   29.940    6.0734
   29.955    6.0032
   29.970    6.2138
   29.985    6.2138
   30.000    6.5122
   30.015    6.4420
   30.030    6.0207
   30.045    6.5473
   30.060    6.0558
   30.075    6.9510
   30.090    7.2670
   30.105    6.7404
   30.120    6.5473
   30.135    6.4771
   30.150    6.1787
   30.165    6.2138
   30.180    6.1962
   30.195    6.3367
   30.210    6.2489
   30.225    6.1787
   30.240    6.6877
   30.255    5.8803
   30.270    6.2489
   30.285    6.4244
   30.300    6.4244
   30.315    6.6702
   30.330    6.3016
   30.345    6.4946
   30.360    6.3718
   30.375    6.1962
   30.390    6.3893
   30.405    6.5122
   30.420    6.6877
   30.435    6.5824
   30.450    5.8627
   30.465    5.7048
   30.480    5.9505
   30.495    6.5473
   30.510    6.6877
   30.525    7.0915
   30.540    6.4595
   30.555    6.8984
   30.570    6.6351
   30.585    6.4595
   30.600    6.2313
   30.615    6.4069
   30.630    6.4069
   30.645    7.0388
   30.660    6.3542
   30.675    6.9510
   30.690    6.5473
   30.705    6.1085
   30.720    5.8978
   30.735    5.4239
   30.750    5.4941
   30.765    6.0909
   30.780    5.9154
   30.795    5.8978
   30.810    6.0032
   30.825    5.9856
   30.840    6.2665
   30.855    6.1962
   30.870    6.2313
   30.885    5.8803
   30.900    6.1260
   30.915    5.9856
   30.930    5.7399
   30.945    6.4069
   30.960    5.9681
   30.975    6.0207
   30.990    6.3191
   31.005    5.8101
   31.020    5.8803
   31.035    5.6345
   31.050    5.6521
   31.065    6.2313
   31.080    5.7750
   31.095    5.6872
   31.110    5.7750
   31.125    5.4766
   31.140    5.5819
   31.155    6.1260
   31.170    5.9329
   31.185    5.8452
   31.200    5.5819
   31.215    6.3191
   31.230    6.4771
   31.245    5.8452
   31.260    5.9505
   31.275    6.2489
   31.290    6.2489
   31.305    6.7228
   31.320    6.6000
   31.335    6.8808
   31.350    7.0037
   31.365    6.6351
   31.380    6.6526
   31.395    6.7579
   31.410    6.4595
   31.425    6.8633
   31.440    6.9510
   31.455    6.4771
   31.470    6.2313
   31.485    6.2489
   31.500    5.9505
   31.515    6.0909
   31.530    5.7574
   31.545    6.0558
   31.560    6.6877
   31.575    6.1962
   31.590    6.0383
   31.605    6.7228
   31.620    6.8457
   31.635    6.7404
   31.650    6.8457
   31.665    6.5473
   31.680    6.3542
   31.695    6.4595
   31.710    6.4771
   31.725    6.3718
   31.740    6.4595
   31.755    6.6526
   31.770    6.5649
   31.785    6.7579
   31.800    6.6000
   31.815    6.0909
   31.830    6.0383
   31.845    6.1436
   31.860    6.1962
   31.875    6.7053
   31.890    6.1611
   31.905    6.2489
   31.920    6.2489
   31.935    6.0383
   31.950    6.3893
   31.965    6.2665
   31.980    6.3718
   31.995    6.1260
   32.010    5.4415
   32.025    5.7574
   32.040    5.9681
   32.055    6.3191
   32.070    6.2665
   32.085    5.8452
   32.100    5.7925
   32.115    5.9856
   32.130    6.1611
   32.145    6.3542
   32.160    6.5298
   32.175    6.4595
   32.190    6.3542
   32.205    6.0032
   32.220    6.1260
   32.235    6.3016
   32.250    6.0032
   32.265    5.9681
   32.280    5.7925
   32.295    6.1260
   32.310    5.7925
   32.325    5.7574
   32.340    5.7223
   32.355    5.7048
   32.370    5.3361
   32.385    5.7925
   32.400    6.2138
   32.415    6.3367
   32.430    6.1260
   32.445    5.8101
   32.460    6.3016
   32.475    6.1611
   32.490    5.8452
   32.505    5.5994
   32.520    5.4415
   32.535    5.6170
   32.550    5.4941
   32.565    5.9154
   32.580    5.9154
   32.595    5.6170
   32.610    6.0558
   32.625    5.2484
   32.640    5.5117
   32.655    6.0734
   32.670    5.5117
   32.685    5.4766
   32.700    5.8452
   32.715    5.8276
   32.730    5.5292
   32.745    5.4590
   32.760    5.8978
   32.775    6.4069
   32.790    6.5473
   32.805    6.0909
   32.820    6.0909
   32.835    6.2138
   32.850    6.7755
   32.865    6.4244
   32.880    6.7930
   32.895    6.1787
   32.910    6.1085
   32.925    6.1787
   32.940    6.1611
   32.955    5.7399
   32.970    5.5117
   32.985    6.1260
   33.000    5.8803
   33.015    5.4064
   33.030    5.7399
   33.045    5.6345
   33.060    5.6697
   33.075    5.8978
   33.090    5.7925
   33.105    5.5819
   33.120    5.4590
   33.135    4.8271
   33.150    5.3361
   33.165    5.2835
   33.180    5.8452
   33.195    5.4239
   33.210    5.7925
   33.225    5.4590
   33.240    5.4415
   33.255    5.5117
   33.270    5.5819
   33.285    5.7223
   33.300    5.7048
   33.315    5.7750
   33.330    5.5468
   33.345    5.6872
   33.360    5.8101
   33.375    5.4766
   33.390    5.3712
   33.405    5.7223
   33.420    5.7223
   33.435    5.9505
   33.450    5.8276
   33.465    5.4941
   33.480    5.7399
   33.495    5.5819
   33.510    5.5643
   33.525    5.5468
   33.540    5.8978
   33.555    5.5819
   33.570    5.8803
   33.585    5.6872
   33.600    6.2138
   33.615    6.1085
   33.630    5.7399
   33.645    5.9154
   33.660    5.8803
   33.675    6.0558
   33.690    5.7925
   33.705    5.6872
   33.720    5.9505
   33.735    5.8452
   33.750    6.3542
   33.765    6.2665
   33.780    6.0734
   33.795    6.7579
   33.810    6.8282
   33.825    5.9681
   33.840    6.8106
   33.855    6.5824
   33.870    6.3718
   33.885    6.4595
   33.900    6.2665
   33.915    6.1436
   33.930    6.1787
   33.945    6.3718
   33.960    6.0734
   33.975    5.9505
   33.990    6.0734
   34.005    6.5122
   34.020    5.6697
   34.035    5.9856
   34.050    6.5473
   34.065    5.9505
   34.080    5.8978
   34.095    5.7925
   34.110    5.5643
   34.125    5.7399
   34.140    5.6170
   34.155    6.0558
   34.170    6.1436
   34.185    5.6697
   34.200    5.3888
   34.215    5.4415
   34.230    5.2133
   34.245    5.8101
   34.260    5.7574
   34.275    5.8978
   34.290    5.9154
   34.305    5.7223
   34.320    5.7399
   34.335    6.1085
   34.350    5.9681
   34.365    6.1436
   34.380    5.6697
   34.395    5.5994
   34.410    5.4766
   34.425    5.2835
   34.440    5.1782
   34.455    5.5994
   34.470    5.4941
   34.485    4.9500
   34.500    5.2835
   34.515    5.6521
   34.530    5.2133
   34.545    5.3361
   34.560    5.6345
   34.575    5.7048
   34.590    5.3888
   34.605    5.4590
   34.620    5.5994
   34.635    5.3888
   34.650    5.4941
   34.665    5.5819
   34.680    5.5117
   34.695    5.8452
   34.710    6.1085
   34.725    5.9329
   34.740    5.8627
   34.755    5.4064
   34.770    6.0909
   34.785    5.9505
   34.800    5.6697
   34.815    5.7223
   34.830    5.6345
   34.845    5.2484
   34.860    5.5468
   34.875    5.4415
   34.890    5.1782
   34.905    5.2659
   34.920    5.5994
   34.935    5.4064
   34.950    5.2484
   34.965    5.5643
   34.980    5.4239
   34.995    5.1957
   35.010    4.8973
   35.025    5.3361
   35.040    5.1255
   35.055    5.6521
   35.070    5.4590
   35.085    5.7925
   35.100    5.1431
   35.115    4.8447
   35.130    5.3712
   35.145    5.2308
   35.160    5.3361
   35.175    5.4590
   35.190    5.1957
   35.205    5.2659
   35.220    5.0904
   35.235    5.4064
   35.250    5.3010
   35.265    5.4415
   35.280    5.2835
   35.295    4.9324
   35.310    5.6697
   35.325    5.2659
   35.340    5.6697
   35.355    4.5287
   35.370    5.0904
   35.385    5.2308
   35.400    5.3537
   35.415    5.5292
   35.430    5.0026
   35.445    5.3361
   35.460    5.2484
   35.475    4.8271
   35.490    5.0377
   35.505    5.4064
   35.520    5.3186
   35.535    5.4415
   35.550    4.9500
   35.565    5.3186
   35.580    5.2659
   35.595    5.3010
   35.610    5.1431
   35.625    4.9675
   35.640    5.3010
   35.655    5.1782
   35.670    5.4239
   35.685    5.3537
   35.700    5.3888
   35.715    5.7574
   35.730    5.3888
   35.745    5.2659
   35.760    5.3537
   35.775    5.3186
   35.790    5.3361
   35.805    5.1606
   35.820    5.6872
   35.835    5.5994
   35.850    5.4239
   35.865    4.8271
   35.880    5.1431
   35.895    5.3010
   35.910    5.5117
   35.925    5.2133
   35.940    5.5117
   35.955    6.0558
   35.970    5.7925
   35.985    5.4590
   36.000    5.0377
   36.015    5.1255
   36.030    5.8276
   36.045    5.4239
   36.060    5.1080
   36.075    4.9851
   36.090    5.5292
   36.105    5.4064
   36.120    5.5468
   36.135    5.3712
   36.150    5.5819
   36.165    5.4239
   36.180    4.6340
   36.195    5.2308
   36.210    5.3010
   36.225    5.2308
   36.240    5.0553
   36.255    4.8095
   36.270    5.2133
   36.285    5.4590
   36.300    5.2308
   36.315    5.0026
   36.330    4.8798
   36.345    5.1080
   36.360    5.2308
   36.375    5.2133
   36.390    5.3186
   36.405    5.0904
   36.420    4.9851
   36.435    5.5819
   36.450    5.3361
   36.465    5.0377
   36.480    5.4415
   36.495    5.4064
   36.510    5.4239
   36.525    5.4415
   36.540    5.6170
   36.555    5.4590
   36.570    5.5292
   36.585    5.3537
   36.600    5.2133
   36.615    4.7569
   36.630    4.9500
   36.645    5.5643
   36.660    5.2308
   36.675    5.4415
   36.690    5.3712
   36.705    5.2133
   36.720    4.8798
   36.735    5.6697
   36.750    5.3888
   36.765    5.2484
   36.780    5.0377
   36.795    5.0904
   36.810    5.0377
   36.825    5.1431
   36.840    4.9851
   36.855    4.9324
   36.870    4.9500
   36.885    4.7569
   36.900    5.2308
   36.915    5.3888
   36.930    5.3537
   36.945    5.0728
   36.960    4.9500
   36.975    5.3010
   36.990    5.5468
   37.005    5.7925
   37.020    5.9329
   37.035    5.3186
   37.050    6.0383
   37.065    6.0909
   37.080    5.4064
   37.095    5.6521
   37.110    6.0032
   37.125    5.6872
   37.140    5.1080
   37.155    5.1782
   37.170    5.4590
   37.185    5.2659
   37.200    6.0207
   37.215    5.2659
   37.230    4.6691
   37.245    4.6516
   37.260    4.4760
   37.275    4.7920
   37.290    4.5989
   37.305    4.4936
   37.320    4.7744
   37.335    4.8095
   37.350    5.0553
   37.365    4.8447
   37.380    5.3010
   37.395    4.9851
   37.410    5.3186
   37.425    4.9500
   37.440    5.0904
   37.455    5.1080
   37.470    5.2659
   37.485    5.0728
   37.500    5.3537
   37.515    5.4941
   37.530    5.6170
   37.545    5.5117
   37.560    5.0904
   37.575    4.8622
   37.590    5.2308
   37.605    5.0904
   37.620    5.2308
   37.635    5.4415
   37.650    5.3712
   37.665    5.3361
   37.680    5.2133
   37.695    5.2484
   37.710    5.6345
   37.725    5.3537
   37.740    5.1782
   37.755    4.9851
   37.770    5.2484
   37.785    4.8622
   37.800    5.0377
   37.815    4.8798
   37.830    5.0202
   37.845    5.0026
   37.860    5.1957
   37.875    5.7399
   37.890    5.2835
   37.905    4.8798
   37.920    5.6872
   37.935    5.7574
   37.950    5.1782
   37.965    5.2308
   37.980    5.5117
   37.995    5.5994
   38.010    5.2308
   38.025    5.1255
   38.040    4.8095
   38.055    4.9500
   38.070    5.0904
   38.085    4.9675
   38.100    5.1080
   38.115    5.1255
   38.130    5.0728
   38.145    5.2308
   38.160    5.1782
   38.175    5.3361
   38.190    4.8095
   38.205    5.2835
   38.220    4.6691
   38.235    4.6516
   38.250    4.8095
   38.265    5.2308
   38.280    5.1431
   38.295    4.9500
   38.310    5.0202
   38.325    4.8973
   38.340    5.0202
   38.355    5.3712
   38.370    5.0202
   38.385    5.6345
   38.400    5.4766
   38.415    5.3186
   38.430    5.1782
   38.445    4.9851
   38.460    4.8622
   38.475    4.5989
   38.490    4.9851
   38.505    4.9324
   38.520    5.3712
   38.535    5.1255
   38.550    4.9851
   38.565    5.3361
   38.580    5.6521
   38.595    4.8973
   38.610    4.6165
   38.625    5.0553
   38.640    4.2830
   38.655    4.8798
   38.670    5.3537
   38.685    5.1080
   38.700    5.4064
   38.715    5.1255
   38.730    5.2308
   38.745    5.1080
   38.760    4.9500
   38.775    4.8973
   38.790    4.7393
   38.805    4.7920
   38.820    4.7744
   38.835    5.2484
   38.850    5.0553
   38.865    5.0553
   38.880    5.0026
   38.895    5.5819
   38.910    4.8447
   38.925    4.9851
   38.940    4.6340
   38.955    4.8271
   38.970    4.9675
   38.985    5.0553
   39.000    5.1606
   39.015    5.2659
   39.030    4.8447
   39.045    5.1606
   39.060    5.2133
   39.075    5.0026
   39.090    5.1606
   39.105    4.9675
   39.120    5.0728
   39.135    5.2484
   39.150    5.0202
   39.165    5.5819
   39.180    5.0026
   39.195    5.4415
   39.210    5.2308
   39.225    5.3361
   39.240    5.8276
   39.255    5.3010
   39.270    5.2308
   39.285    5.3186
   39.300    5.3361
   39.315    5.0202
   39.330    5.2133
   39.345    5.1431
   39.360    4.9500
   39.375    5.1957
   39.390    5.0904
   39.405    4.7042
   39.420    5.4064
   39.435    4.4936
   39.450    4.6340
   39.465    4.7042
   39.480    4.7569
   39.495    4.7042
   39.510    5.0553
   39.525    5.2308
   39.540    5.3712
   39.555    5.1957
   39.570    4.8095
   39.585    4.7920
   39.600    4.6867
   39.615    5.0728
   39.630    4.8622
   39.645    4.7920
   39.660    5.1606
   39.675    5.2659
   39.690    4.9500
   39.705    4.8798
   39.720    5.0202
   39.735    5.6521
   39.750    5.3888
   39.765    5.3712
   39.780    5.1957
   39.795    5.0377
   39.810    4.9500
   39.825    4.8447
   39.840    4.6691
   39.855    5.0202
   39.870    5.0026
   39.885    5.1782
   39.900    5.1255
   39.915    4.6340
   39.930    4.5814
   39.945    4.6867
   39.960    5.1080
   39.975    5.1431
   39.990    4.8973
