    1.500   13.0999
    1.515   13.2289
    1.530   12.9717
    1.545   12.9963
    1.560   13.0191
    1.575   12.7488
    1.590   12.7602
    1.605   12.7076
    1.620   12.5601
    1.635   12.3600
    1.650   12.1424
    1.665   12.2064
    1.680   12.1792
    1.695   11.9993
    1.710   11.7536
    1.725   11.6052
    1.740   11.8053
    1.755   11.6754
    1.770   11.7193
    1.785   11.4938
    1.800   11.3744
    1.815   11.2252
    1.830   11.1269
    1.845   11.3454
    1.860   11.0391
    1.875   10.9830
    1.890   10.9865
    1.905   10.9461
    1.920   10.8074
    1.935   10.7469
    1.950   10.5714
    1.965   10.5915
    1.980   10.5327
    1.995   10.2405
    2.010   10.2887
    2.025   10.2826
    2.040   10.2694
    2.055   10.3107
    2.070   10.1659
    2.085   10.1729
    2.100   10.1281
    2.115    9.9807
    2.130    9.9394
    2.145    9.9912
    2.160   10.0105
    2.175    9.8447
    2.190    9.8429
    2.205    9.7148
    2.220    9.6726
    2.235    9.7428
    2.250    9.5515
    2.265    9.5928
    2.280    9.4638
    2.295    9.4532
    2.310    9.5226
    2.325    9.4813
    2.340    9.4146
    2.355    9.4076
    2.370    9.2672
    2.385    9.0925
    2.400    9.1250
    2.415    9.2821
    2.430    9.1417
    2.445    9.0688
    2.460    9.2856
    2.475    9.1873
    2.490    9.1285
    2.505    9.0934
    2.520    9.0618
    2.535    9.0837
    2.550    9.1153
    2.565    9.0153
    2.580    8.9459
    2.595    8.9108
    2.610    8.9064
    2.625    8.8011
    2.640    8.7818
    2.655    8.7450
    2.670    8.8196
    2.685    8.8617
    2.700    8.8239
    2.715    8.9064
    2.730    8.7327
    2.745    8.7151
    2.760    8.7590
    2.775    8.6862
    2.790    8.6721
    2.805    8.7959
    2.820    8.6361
    2.835    8.6265
    2.850    8.7318
    2.865    8.5659
    2.880    8.5729
    2.895    8.6414
    2.910    8.5817
    2.925    8.6186
    2.940    8.5993
    2.955    8.6194
    2.970    8.7019
    2.985    8.6932
    3.000    8.6519
    3.015    8.6528
    3.030    8.6098
    3.045    8.5685
    3.060    8.6265
    3.075    8.6484
    3.090    8.6238
    3.105    8.6265
    3.120    8.7467
    3.135    8.6475
    3.150    8.6133
    3.165    8.6783
    3.180    8.6818
    3.195    8.6958
    3.210    8.8204
    3.225    8.8845
    3.240    8.7186
    3.255    8.9038
    3.270    8.9635
    3.285    8.9012
    3.300    8.8511
    3.315    8.9714
    3.330    8.9433
    3.345    9.0565
    3.360    9.1338
    3.375    9.3330
    3.390    9.3795
    3.405    9.4207
    3.420    9.5331
    3.435    9.7543
    3.450    9.7569
    3.465   10.0755
    3.480   10.0395
    3.495   10.2782
    3.510   10.3493
    3.525   10.4011
    3.540   10.5468
    3.555   10.7873
    3.570   10.9988
    3.585   11.2436
    3.600   11.5561
    3.615   11.9212
    3.630   12.3635
    3.645   12.7172
    3.660   13.0814
    3.675   13.7950
    3.690   14.4023
    3.705   15.1861
    3.720   16.1883
    3.735   17.3082
    3.750   18.2824
    3.765   19.4172
    3.780   19.5664
    3.795   18.8740
    3.810   17.3232
    3.825   15.3291
    3.840   13.3105
    3.855   11.4788
    3.870   10.1387
    3.885    9.3988
    3.900    9.1373
    3.915    9.0249
    3.930    8.7783
    3.945    8.6309
    3.960    8.5027
    3.975    8.5378
    3.990    8.4106
    4.005    8.4220
    4.020    8.3254
    4.035    8.3992
    4.050    8.3412
    4.065    8.3114
    4.080    8.2500
    4.095    8.3035
    4.110    8.2579
    4.125    8.2816
    4.140    8.2886
    4.155    8.3263
    4.170    8.3553
    4.185    8.3737
    4.200    8.3184
    4.215    8.3158
    4.230    8.3263
    4.245    8.2675
    4.260    8.2438
    4.275    8.2745
    4.290    8.1683
    4.305    8.2789
    4.320    8.1850
    4.335    8.3825
    4.350    8.2052
    4.365    8.1245
    4.380    8.2421
    4.395    8.1508
    4.410    8.2447
    4.425    8.2359
    4.440    8.2930
    4.455    8.3070
    4.470    8.2833
    4.485    8.2543
    4.500    8.2859
    4.515    8.2315
    4.530    8.1824
    4.545    8.3158
    4.560    8.1885
    4.575    8.2236
    4.590    8.2938
    4.605    8.3105
    4.620    8.3597
    4.635    8.2421
    4.650    8.3851
    4.665    8.2350
    4.680    8.3088
    4.695    8.4983
    4.710    8.5650
    4.725    8.4501
    4.740    8.3869
    4.755    8.4088
    4.770    8.5089
    4.785    8.4220
    4.800    8.5563
    4.815    8.5290
    4.830    8.6238
    4.845    8.6037
    4.860    8.6546
    4.875    8.5879
    4.890    8.7046
    4.905    8.7722
    4.920    8.7441
    4.935    8.8160
    4.950    8.8239
    4.965    8.8617
    4.980    8.9705
    4.995    8.9126
    5.010    8.9521
    5.025    8.9863
    5.040    9.1399
    5.055    9.2259
    5.070    9.3286
    5.085    9.4401
    5.100    9.5164
    5.115    9.5068
    5.130    9.5120
    5.145    9.5743
    5.160    9.7806
    5.175    9.8482
    5.190    9.9254
    5.205    9.9728
    5.220   10.1027
    5.235   10.1650
    5.250   10.3748
    5.265   10.5327
    5.280   10.6082
    5.295   10.6451
    5.310   10.7688
    5.325   10.8346
    5.340   11.1190
    5.355   11.1673
    5.370   11.4095
    5.385   11.3648
    5.400   11.4227
    5.415   11.4288
    5.430   11.3806
    5.445   11.3253
    5.460   11.2199
    5.475   11.0172
    5.490   11.1524
    5.505   11.0892
    5.520   11.0119
    5.535   11.1304
    5.550   10.9163
    5.565   10.9961
    5.580   10.8847
    5.595   10.9294
    5.610   10.9312
    5.625   10.7925
    5.640   10.6714
    5.655   10.8171
    5.670   10.6038
    5.685   10.3748
    5.700   10.2817
    5.715   10.2256
    5.730   10.1869
    5.745   10.1834
    5.760   10.1483
    5.775   10.0158
    5.790    9.8350
    5.805    9.8438
    5.820    9.4989
    5.835    9.4172
    5.850    9.4067
    5.865    9.3795
    5.880    9.2470
    5.895    9.2154
    5.910    9.1092
    5.925    8.9688
    5.940    8.9635
    5.955    8.9600
    5.970    8.8933
    5.985    8.7590
    6.000    8.7994
    6.015    8.7722
    6.030    8.5958
    6.045    8.4141
    6.060    8.4176
    6.075    8.4957
    6.090    8.5396
    6.105    8.4123
    6.120    8.3272
    6.135    8.2728
    6.150    8.3035
    6.165    8.2570
    6.180    8.2605
    6.195    8.2096
    6.210    8.1745
    6.225    8.0718
    6.240    8.0893
    6.255    8.1218
    6.270    8.1438
    6.285    7.9884
    6.300    7.9910
    6.315    7.9647
    6.330    7.8989
    6.345    7.8761
    6.360    7.8770
    6.375    7.7672
    6.390    7.9314
    6.405    7.8260
    6.420    7.8471
    6.435    7.8524
    6.450    7.8296
    6.465    7.8436
    6.480    7.8392
    6.495    7.8032
    6.510    7.7874
    6.525    7.8006
    6.540    7.8076
    6.555    7.8594
    6.570    7.7532
    6.585    7.7980
    6.600    7.9103
    6.615    7.8445
    6.630    7.6303
    6.645    7.4864
    6.660    7.5145
    6.675    7.3714
    6.690    7.3626
    6.705    7.3267
    6.720    7.2643
    6.735    7.2301
    6.750    7.2810
    6.765    7.2012
    6.780    7.1432
    6.795    7.1661
    6.810    7.1108
    6.825    7.2126
    6.840    7.1108
    6.855    7.0581
    6.870    7.0169
    6.885    7.1055
    6.900    7.0730
    6.915    7.0739
    6.930    7.1081
    6.945    6.9300
    6.960    7.0774
    6.975    6.8159
    6.990    6.8352
    7.005    6.8589
    7.020    6.8369
    7.035    6.9080
    7.050    6.7799
    7.065    6.7966
    7.080    6.6649
    7.095    6.6754
    7.110    6.6702
    7.125    6.6105
    7.140    6.6412
    7.155    6.5464
    7.170    6.5517
    7.185    6.5684
    7.200    6.5833
    7.215    6.5104
    7.230    6.5061
    7.245    6.4042
    7.260    6.5148
    7.275    6.4639
    7.290    6.4683
    7.305    6.3411
    7.320    6.3911
    7.335    6.3226
    7.350    6.2954
    7.365    6.3209
    7.380    6.3007
    7.395    6.2015
    7.410    6.2191
    7.425    6.2902
    7.440    6.2673
    7.455    6.2454
    7.470    6.2050
    7.485    6.1831
    7.500    6.2410
    7.515    6.1857
    7.530    6.1778
    7.545    6.1313
    7.560    6.2164
    7.575    6.3200
    7.590    6.2164
    7.605    6.1901
    7.620    6.2577
    7.635    6.2261
    7.650    6.1585
    7.665    6.1269
    7.680    6.1304
    7.695    5.9830
    7.710    5.9022
    7.725    5.9171
    7.740    5.8952
    7.755    5.7943
    7.770    5.7565
    7.785    5.8557
    7.800    5.7644
    7.815    5.7364
    7.830    5.7293
    7.845    5.7653
    7.860    5.7934
    7.875    5.6916
    7.890    5.7083
    7.905    5.7302
    7.920    5.7206
    7.935    5.6539
    7.950    5.5556
    7.965    5.6161
    7.980    5.5994
    7.995    5.6653
    8.010    5.6539
    8.025    5.6100
    8.040    5.6468
    8.055    5.5828
    8.070    5.6591
    8.085    5.6082
    8.100    5.6389
    8.115    5.7285
    8.130    5.5635
    8.145    5.6547
    8.160    5.5336
    8.175    5.4643
    8.190    5.5327
    8.205    5.4836
    8.220    5.4985
    8.235    5.4239
    8.250    5.3704
    8.265    5.4107
    8.280    5.4862
    8.295    5.5705
    8.310    5.5266
    8.325    5.4441
    8.340    5.4186
    8.355    5.3818
    8.370    5.4941
    8.385    5.4344
    8.400    5.3625
    8.415    5.4353
    8.430    5.4616
    8.445    5.4924
    8.460    5.4792
    8.475    5.4739
    8.490    5.4704
    8.505    5.5090
    8.520    5.5477
    8.535    5.4906
    8.550    5.6126
    8.565    5.5678
    8.580    5.4257
    8.595    5.5248
    8.610    5.2519
    8.625    5.2071
    8.640    5.2721
    8.655    5.3072
    8.670    5.2835
    8.685    5.2703
    8.700    5.2414
    8.715    5.3177
    8.730    5.3423
    8.745    5.2115
    8.760    5.2659
    8.775    5.1466
    8.790    5.1176
    8.805    5.2387
    8.820    5.2273
    8.835    5.1457
    8.850    5.2115
    8.865    5.1685
    8.880    5.1957
    8.895    5.1694
    8.910    5.0939
    8.925    5.1185
    8.940    5.1676
    8.955    5.1641
    8.970    5.0851
    8.985    5.1001
    9.000    5.1202
    9.015    5.1571
    9.030    5.1369
    9.045    5.1790
    9.060    5.1115
    9.075    5.0728
    9.090    5.1360
    9.105    5.2054
    9.120    5.1773
    9.135    5.1018
    9.150    5.0623
    9.165    5.0983
    9.180    5.0807
    9.195    5.1018
    9.210    5.1650
    9.225    5.2010
    9.240    5.1790
    9.255    5.2361
    9.270    5.2817
    9.285    5.3563
    9.300    5.3923
    9.315    5.2730
    9.330    5.3695
    9.345    5.4406
    9.360    5.3247
    9.375    5.3010
    9.390    5.3072
    9.405    5.2572
    9.420    5.1940
    9.435    5.2387
    9.450    5.2203
    9.465    5.1176
    9.480    5.1018
    9.495    5.2054
    9.510    5.1624
    9.525    5.0904
    9.540    5.0035
    9.555    5.0904
    9.570    5.1167
    9.585    5.1009
    9.600    5.1018
    9.615    5.0702
    9.630    5.0974
    9.645    5.1044
    9.660    4.9903
    9.675    5.0702
    9.690    5.1036
    9.705    5.0957
    9.720    5.1378
    9.735    5.0772
    9.750    5.1220
    9.765    5.1738
    9.780    5.0649
    9.795    5.1220
    9.810    5.1764
    9.825    5.1527
    9.840    5.1510
    9.855    5.1088
    9.870    5.0702
    9.885    5.0851
    9.900    5.0930
    9.915    5.1922
    9.930    5.1773
    9.945    5.2484
    9.960    5.2194
    9.975    5.1097
    9.990    5.1887
   10.005    5.2308
   10.020    5.2782
   10.035    5.2545
   10.050    5.3133
   10.065    5.3598
   10.080    5.4020
   10.095    5.4371
   10.110    5.4783
   10.125    5.5959
   10.140    5.4344
   10.155    5.4388
   10.170    5.3089
   10.185    5.2949
   10.200    5.3054
   10.215    5.1615
   10.230    5.1413
   10.245    5.2449
   10.260    5.2027
   10.275    5.2212
   10.290    5.1940
   10.305    5.1641
   10.320    5.1641
   10.335    5.1852
   10.350    5.0869
   10.365    5.2668
   10.380    5.1966
   10.395    5.2089
   10.410    5.2510
   10.425    5.2054
   10.440    5.2475
   10.455    5.2291
   10.470    5.2335
   10.485    5.2528
   10.500    5.2940
   10.515    5.2730
   10.530    5.3186
   10.545    5.2835
   10.560    5.3546
   10.575    5.2694
   10.590    5.3423
   10.605    5.2852
   10.620    5.3045
   10.635    5.3633
   10.650    5.3203
   10.665    5.3581
   10.680    5.4467
   10.695    5.5117
   10.710    5.3633
   10.725    5.3730
   10.740    5.3546
   10.755    5.4362
   10.770    5.4748
   10.785    5.4467
   10.800    5.5845
   10.815    5.6495
   10.830    5.4950
   10.845    5.5582
   10.860    5.5714
   10.875    5.4441
   10.890    5.4046
   10.905    5.4301
   10.920    5.4985
   10.935    5.4309
   10.950    5.4695
   10.965    5.5204
   10.980    5.5380
   10.995    5.4239
   11.010    5.4862
   11.025    5.4011
   11.040    5.4160
   11.055    5.5722
   11.070    5.5336
   11.085    5.4028
   11.100    5.3941
   11.115    5.4125
   11.130    5.3993
   11.145    5.4783
   11.160    5.4257
   11.175    5.4002
   11.190    5.3107
   11.205    5.3765
   11.220    5.4669
   11.235    5.4450
   11.250    5.3914
   11.265    5.3177
   11.280    5.3326
   11.295    5.4046
   11.310    5.3221
   11.325    5.3669
   11.340    5.4134
   11.355    5.3739
   11.370    5.2817
   11.385    5.2923
   11.400    5.3519
   11.415    5.4494
   11.430    5.4257
   11.445    5.4643
   11.460    5.4318
   11.475    5.4107
   11.490    5.4283
   11.505    5.5073
   11.520    5.3660
   11.535    5.3274
   11.550    5.3511
   11.565    5.3616
   11.580    5.3081
   11.595    5.3098
   11.610    5.2721
   11.625    5.1896
   11.640    5.2027
   11.655    5.2940
   11.670    5.3002
   11.685    5.2431
   11.700    5.2273
   11.715    5.2993
   11.730    5.1641
   11.745    5.1983
   11.760    5.1931
   11.775    5.2835
   11.790    5.2694
   11.805    5.2940
   11.820    5.2317
   11.835    5.1036
   11.850    5.1457
   11.865    5.3010
   11.880    5.1729
   11.895    5.3045
   11.910    5.1694
   11.925    5.2168
   11.940    5.2177
   11.955    5.1281
   11.970    5.2264
   11.985    5.1281
   12.000    5.1518
   12.015    5.2080
   12.030    5.2352
   12.045    5.2598
   12.060    5.2923
   12.075    5.2765
   12.090    5.2185
   12.105    5.3502
   12.120    5.2923
   12.135    5.2791
   12.150    5.1597
   12.165    5.1922
   12.180    5.1606
   12.195    5.1729
   12.210    5.1053
   12.225    5.1255
   12.240    5.0351
   12.255    5.0263
   12.270    4.9947
   12.285    5.0702
   12.300    4.9807
   12.315    5.0167
   12.330    5.0606
   12.345    5.0764
   12.360    5.0518
   12.375    5.0693
   12.390    5.0790
   12.405    5.0439
   12.420    5.0044
   12.435    4.9561
   12.450    5.0632
   12.465    4.9236
   12.480    4.9403
   12.495    5.0825
   12.510    5.0140
   12.525    5.0070
   12.540    4.9956
   12.555    4.9333
   12.570    5.0614
   12.585    5.1334
   12.600    5.0088
   12.615    5.0632
   12.630    4.9956
   12.645    5.0290
   12.660    5.1141
   12.675    5.0307
   12.690    4.9982
   12.705    5.0342
   12.720    5.0140
   12.735    4.9798
   12.750    4.9956
   12.765    4.9456
   12.780    4.9456
   12.795    4.9351
   12.810    4.9544
   12.825    4.8973
   12.840    4.8569
   12.855    4.7639
   12.870    4.8543
   12.885    4.9877
   12.900    4.9140
   12.915    4.8280
   12.930    4.8113
   12.945    4.8447
   12.960    4.7815
   12.975    4.8613
   12.990    4.9087
   13.005    4.8964
   13.020    4.8833
   13.035    4.8815
   13.050    4.8262
   13.065    4.9263
   13.080    4.8297
   13.095    4.8166
   13.110    4.8359
   13.125    4.8490
   13.140    4.9105
   13.155    4.9245
   13.170    4.8113
   13.185    4.8148
   13.200    4.9710
   13.215    4.9728
   13.230    4.8991
   13.245    4.8341
   13.260    4.8666
   13.275    4.9184
   13.290    4.8534
   13.305    4.9254
   13.320    4.9851
   13.335    4.8306
   13.350    4.8605
   13.365    4.8297
   13.380    4.8411
   13.395    4.8947
   13.410    4.8929
   13.425    4.7859
   13.440    4.8104
   13.455    4.8745
   13.470    4.8912
   13.485    4.9710
   13.500    4.9833
   13.515    4.8771
   13.530    4.9359
   13.545    4.8315
   13.560    4.9175
   13.575    4.9184
   13.590    5.0018
   13.605    4.9351
   13.620    4.9394
   13.635    4.9763
   13.650    4.9535
   13.665    4.9754
   13.680    4.9737
   13.695    4.9351
   13.710    4.9649
   13.725    5.0255
   13.740    5.0237
   13.755    4.9561
   13.770    5.0500
   13.785    5.1159
   13.800    5.0474
   13.815    5.0957
   13.830    5.1869
   13.845    5.1159
   13.860    5.0412
   13.875    5.0491
   13.890    5.0176
   13.905    5.0132
   13.920    5.0895
   13.935    5.0448
   13.950    5.1062
   13.965    5.0843
   13.980    4.9710
   13.995    4.9605
   14.010    5.1668
   14.025    5.2019
   14.040    5.0184
   14.055    5.0790
   14.070    5.1220
   14.085    5.0649
   14.100    5.0641
   14.115    5.2642
   14.130    5.2089
   14.145    5.1861
   14.160    5.3010
   14.175    5.2738
   14.190    5.2545
   14.205    5.1632
   14.220    5.2466
   14.235    5.2747
   14.250    5.2914
   14.265    5.2554
   14.280    5.2826
   14.295    5.3195
   14.310    5.3063
   14.325    5.3765
   14.340    5.3721
   14.355    5.4327
   14.370    5.3300
   14.385    5.3300
   14.400    5.2879
   14.415    5.4713
   14.430    5.3976
   14.445    5.4055
   14.460    5.4230
   14.475    5.4301
   14.490    5.3256
   14.505    5.3361
   14.520    5.3186
   14.535    5.4064
   14.550    5.3326
   14.565    5.3458
   14.580    5.3958
   14.595    5.3098
   14.610    5.3633
   14.625    5.3502
   14.640    5.1878
   14.655    5.1088
   14.670    5.2291
   14.685    5.2615
   14.700    5.2326
   14.715    5.1966
   14.730    5.1843
   14.745    5.2484
   14.760    5.2273
   14.775    5.1738
   14.790    5.1738
   14.805    5.1299
   14.820    5.1668
   14.835    5.2457
   14.850    5.2493
   14.865    5.0737
   14.880    4.9956
   14.895    5.0878
   14.910    5.0149
   14.925    5.0728
   14.940    4.9877
   14.955    5.0009
   14.970    4.9096
   14.985    5.0070
   15.000    4.8859
   15.015    4.9105
   15.030    4.9166
   15.045    4.9324
   15.060    4.9772
   15.075    4.9184
   15.090    4.8315
   15.105    4.8833
   15.120    4.8877
   15.135    4.9289
   15.150    4.8789
   15.165    4.8289
   15.180    4.7973
   15.195    4.8727
   15.210    4.8464
   15.225    4.7946
   15.240    4.8368
   15.255    4.8929
   15.270    4.8104
   15.285    4.8534
   15.300    4.8464
   15.315    4.8499
   15.330    4.8218
   15.345    4.8131
   15.360    4.7876
   15.375    4.7665
   15.390    4.8245
   15.405    4.8157
   15.420    4.9412
   15.435    4.8280
   15.450    4.8201
   15.465    4.7709
   15.480    4.7885
   15.495    4.7736
   15.510    4.8236
   15.525    4.7464
   15.540    4.7867
   15.555    4.7938
   15.570    4.7121
   15.585    4.7613
   15.600    4.8613
   15.615    4.8482
   15.630    4.8411
   15.645    4.7288
   15.660    4.7867
   15.675    4.8403
   15.690    4.7902
   15.705    4.8596
   15.720    4.8736
   15.735    4.8368
   15.750    4.8789
   15.765    4.8473
   15.780    4.9421
   15.795    4.9078
   15.810    4.8192
   15.825    4.8587
   15.840    4.8385
   15.855    4.8885
   15.870    4.9649
   15.885    4.8490
   15.900    4.9061
   15.915    4.7885
   15.930    4.8113
   15.945    4.8631
   15.960    4.9228
   15.975    4.8526
   15.990    4.8034
   16.005    4.8938
   16.020    4.8447
   16.035    4.8648
   16.050    4.9351
   16.065    4.9070
   16.080    4.8587
   16.095    4.8043
   16.110    4.8368
   16.125    4.8841
   16.140    4.7771
   16.155    4.7841
   16.170    4.7973
   16.185    4.7946
   16.200    4.7314
   16.215    4.7665
   16.230    4.8473
   16.245    4.8166
   16.260    4.8508
   16.275    4.8780
   16.290    4.8648
   16.305    4.8104
   16.320    4.7209
   16.335    4.8060
   16.350    4.8253
   16.365    4.8008
   16.380    4.8025
   16.395    4.8052
   16.410    4.8052
   16.425    4.7665
   16.440    4.8148
   16.455    4.6902
   16.470    4.8043
   16.485    4.8587
   16.500    4.8692
   16.515    4.7235
   16.530    4.8201
   16.545    4.8613
   16.560    4.8069
   16.575    4.8025
   16.590    4.8473
   16.605    4.7946
   16.620    4.8262
   16.635    4.9254
   16.650    4.7209
   16.665    4.8131
   16.680    4.7841
   16.695    4.7358
   16.710    4.8122
   16.725    4.7525
   16.740    4.7867
   16.755    4.8289
   16.770    4.7674
   16.785    4.7209
   16.800    4.7183
   16.815    4.7235
   16.830    4.7823
   16.845    4.7358
   16.860    4.7841
   16.875    4.7227
   16.890    4.7543
   16.905    4.6946
   16.920    4.7578
   16.935    4.8666
   16.950    4.7595
   16.965    4.7332
   16.980    4.7894
   16.995    4.7639
   17.010    4.7665
   17.025    4.7499
   17.040    4.7499
   17.055    4.8008
   17.070    4.7218
   17.085    4.8201
   17.100    4.6568
   17.115    4.6709
   17.130    4.7885
   17.145    4.6130
   17.160    4.7376
   17.175    4.7788
   17.190    4.7446
   17.205    4.7218
   17.220    4.7156
   17.235    4.7736
   17.250    4.7639
   17.265    4.6568
   17.280    4.6375
   17.295    4.6761
   17.310    4.6261
   17.325    4.7060
   17.340    4.7867
   17.355    4.7288
   17.370    4.7516
   17.385    4.6709
   17.400    4.6639
   17.415    4.7095
   17.430    4.7209
   17.445    4.7051
   17.460    4.6919
   17.475    4.6200
   17.490    4.7595
   17.505    4.7657
   17.520    4.6665
   17.535    4.7736
   17.550    4.7367
   17.565    4.6937
   17.580    4.6340
   17.595    4.6972
   17.610    4.7525
   17.625    4.6823
   17.640    4.7314
   17.655    4.7016
   17.670    4.6024
   17.685    4.6893
   17.700    4.7393
   17.715    4.6165
   17.730    4.6314
   17.745    4.6437
   17.760    4.6384
   17.775    4.7428
   17.790    4.6867
   17.805    4.5761
   17.820    4.5717
   17.835    4.6735
   17.850    4.6542
   17.865    4.6568
   17.880    4.5735
   17.895    4.7209
   17.910    4.7455
   17.925    4.7323
   17.940    4.7113
   17.955    4.6884
   17.970    4.6384
   17.985    4.6823
   18.000    4.7411
   18.015    4.7297
   18.030    4.6419
   18.045    4.5919
   18.060    4.6235
   18.075    4.6612
   18.090    4.6718
   18.105    4.6270
   18.120    4.6349
   18.135    4.6630
   18.150    4.6928
   18.165    4.6507
   18.180    4.6428
   18.195    4.5778
   18.210    4.6296
   18.225    4.6542
   18.240    4.6323
   18.255    4.6173
   18.270    4.6542
   18.285    4.6147
   18.300    4.6270
   18.315    4.5524
   18.330    4.5682
   18.345    4.6358
   18.360    4.6209
   18.375    4.6261
   18.390    4.6639
   18.405    4.6744
   18.420    4.5840
   18.435    4.6911
   18.450    4.7551
   18.465    4.7341
   18.480    4.7797
   18.495    4.6235
   18.510    4.6586
   18.525    4.6779
   18.540    4.7060
   18.555    4.6288
   18.570    4.6340
   18.585    4.6288
   18.600    4.6647
   18.615    4.6244
   18.630    4.6393
   18.645    4.6621
   18.660    4.6463
   18.675    4.6595
   18.690    4.6410
   18.705    4.5972
   18.720    4.6445
   18.735    4.6770
   18.750    4.6200
   18.765    4.7165
   18.780    4.6867
   18.795    4.6507
   18.810    4.6173
   18.825    4.5752
   18.840    4.5717
   18.855    4.5778
   18.870    4.4769
   18.885    4.5252
   18.900    4.4883
   18.915    4.6156
   18.930    4.6323
   18.945    4.6419
   18.960    4.5542
   18.975    4.5945
   18.990    4.6919
   19.005    4.5524
   19.020    4.5840
   19.035    4.5454
   19.050    4.5384
   19.065    4.5972
   19.080    4.5296
   19.095    4.5629
   19.110    4.4427
   19.125    4.5155
   19.140    4.5893
   19.155    4.5761
   19.170    4.6165
   19.185    4.6130
   19.200    4.5217
   19.215    4.6147
   19.230    4.6402
   19.245    4.7227
   19.260    4.6384
   19.275    4.5182
   19.290    4.4769
   19.305    4.5041
   19.320    4.5155
   19.335    4.5243
   19.350    4.5226
   19.365    4.5331
   19.380    4.4322
   19.395    4.4576
   19.410    4.5208
   19.425    4.5550
   19.440    4.4488
   19.455    4.4787
   19.470    4.4137
   19.485    4.4550
   19.500    4.5331
   19.515    4.4822
   19.530    4.4989
   19.545    4.5050
   19.560    4.5129
   19.575    4.4207
   19.590    4.4559
   19.605    4.4032
   19.620    4.4497
   19.635    4.4831
   19.650    4.4436
   19.665    4.5208
   19.680    4.4629
   19.695    4.4006
   19.710    4.4918
   19.725    4.4813
   19.740    4.4918
   19.755    4.3277
   19.770    4.4927
   19.785    4.4216
   19.800    4.3663
   19.815    4.3540
   19.830    4.3189
   19.845    4.3031
   19.860    4.4032
   19.875    4.4304
   19.890    4.4032
   19.905    4.4269
   19.920    4.3286
   19.935    4.3760
   19.950    4.4409
   19.965    4.3540
   19.980    4.3655
   19.995    4.4848
   20.010    4.3479
   20.025    4.3260
   20.040    4.3453
   20.055    4.4866
   20.070    4.3707
   20.085    4.3102
   20.100    4.3874
   20.115    4.3312
   20.130    4.3303
   20.145    4.2970
   20.160    4.3093
   20.175    4.2689
   20.190    4.2382
   20.205    4.2724
   20.220    4.2707
   20.235    4.2426
   20.250    4.2013
   20.265    4.2680
   20.280    4.3426
   20.295    4.3611
   20.310    4.2435
   20.325    4.2268
   20.340    4.2557
   20.355    4.1969
   20.370    4.2988
   20.385    4.2496
   20.400    4.3453
   20.415    4.2040
   20.430    4.2663
   20.445    4.3023
   20.460    4.2057
   20.475    4.2777
   20.490    4.2768
   20.505    4.2364
   20.520    4.2514
   20.535    4.3576
   20.550    4.2268
   20.565    4.2364
   20.580    4.2312
   20.595    4.2873
   20.610    4.2812
   20.625    4.2487
   20.640    4.2628
   20.655    4.2803
   20.670    4.1811
   20.685    4.1232
   20.700    4.2215
   20.715    4.1575
   20.730    4.3014
   20.745    4.2338
   20.760    4.2584
   20.775    4.2900
   20.790    4.2198
   20.805    4.2163
   20.820    4.0583
   20.835    4.2347
   20.850    4.2847
   20.865    4.1943
   20.880    4.2215
   20.895    4.1917
   20.910    4.2522
   20.925    4.2057
   20.940    4.1969
   20.955    4.2075
   20.970    4.2452
   20.985    4.2988
   21.000    4.1267
   21.015    4.1689
   21.030    4.1162
   21.045    4.1803
   21.060    4.1346
   21.075    4.1364
   21.090    4.1961
   21.105    4.1680
   21.120    4.1267
   21.135    4.1697
   21.150    4.2101
   21.165    4.2101
   21.180    4.1355
   21.195    4.1118
   21.210    4.2522
   21.225    4.2057
   21.240    4.0916
   21.255    4.2242
   21.270    4.1057
   21.285    4.1144
   21.300    4.1776
   21.315    4.2206
   21.330    4.1969
   21.345    4.2136
   21.360    4.1969
   21.375    4.2127
   21.390    4.2487
   21.405    4.1732
   21.420    4.1390
   21.435    4.1610
   21.450    4.2478
   21.465    4.2048
   21.480    4.1847
   21.495    4.2013
   21.510    4.2312
   21.525    4.2382
   21.540    4.2452
   21.555    4.1610
   21.570    4.1522
   21.585    4.2487
   21.600    4.0829
   21.615    4.1469
   21.630    4.1346
   21.645    4.1294
   21.660    4.1153
   21.675    4.0951
   21.690    4.1504
   21.705    4.2075
   21.720    4.1811
   21.735    4.1882
   21.750    4.1750
   21.765    4.1285
   21.780    4.2242
   21.795    4.1724
   21.810    4.1022
   21.825    4.1206
   21.840    4.1627
   21.855    4.1539
   21.870    4.0820
   21.885    4.0618
   21.900    4.0969
   21.915    4.0846
   21.930    4.1715
   21.945    4.1381
   21.960    4.0671
   21.975    4.1469
   21.990    4.1496
   22.005    4.1381
   22.020    4.1065
   22.035    4.0688
   22.050    4.1153
   22.065    4.0135
   22.080    4.0416
   22.095    4.0381
   22.110    4.0758
   22.125    4.1381
   22.140    4.1057
   22.155    4.1136
   22.170    4.0662
   22.185    3.9740
   22.200    3.9889
   22.215    3.9828
   22.230    4.0469
   22.245    3.9819
   22.260    3.9644
   22.275    3.9003
   22.290    4.0091
   22.305    3.8854
   22.320    4.0065
   22.335    3.9389
   22.350    4.0741
   22.365    4.0197
   22.380    4.0328
   22.395    3.9863
   22.410    3.9696
   22.425    4.0486
   22.440    3.9951
   22.455    4.0416
   22.470    4.0126
   22.485    3.9819
   22.500    3.9986
   22.515    3.9354
   22.530    3.9661
   22.545    4.0144
   22.560    3.9275
   22.575    3.9082
   22.590    3.9240
   22.605    3.8661
   22.620    3.9266
   22.635    3.9126
   22.650    3.8889
   22.665    3.9688
   22.680    3.8310
   22.695    3.8371
   22.710    3.8784
   22.725    3.9933
   22.740    3.8634
   22.755    3.9143
   22.770    3.8740
   22.785    3.7669
   22.800    3.8266
   22.815    3.8433
   22.830    3.9451
   22.845    3.9249
   22.860    3.8748
   22.875    3.8669
   22.890    3.9038
   22.905    3.8090
   22.920    3.8038
   22.935    3.8283
   22.950    3.8538
   22.965    3.8722
   22.980    3.8239
   22.995    3.7441
   23.010    3.8064
   23.025    3.8748
   23.040    3.9108
   23.055    3.8564
   23.070    3.7853
   23.085    3.8503
   23.100    3.8538
   23.115    3.8345
   23.130    3.7853
   23.145    3.7836
   23.160    3.7774
   23.175    3.7827
   23.190    3.7511
   23.205    3.7827
   23.220    3.7239
   23.235    3.7897
   23.250    3.8046
   23.265    3.7897
   23.280    3.8459
   23.295    3.8336
   23.310    3.7292
   23.325    3.8081
   23.340    3.7669
   23.355    3.7976
   23.370    3.9187
   23.385    3.8520
   23.400    3.8099
   23.415    3.7493
   23.430    3.7537
   23.445    3.7458
   23.460    3.7388
   23.475    3.7906
   23.490    3.7581
   23.505    3.6704
   23.520    3.7213
   23.535    3.7994
   23.550    3.7722
   23.565    3.7546
   23.580    3.8038
   23.595    3.8415
   23.610    3.6923
   23.625    3.6502
   23.640    3.6581
   23.655    3.7669
   23.670    3.7757
   23.685    3.6756
   23.700    3.7037
   23.715    3.7134
   23.730    3.6440
   23.745    3.7283
   23.760    3.6800
   23.775    3.7511
   23.790    3.7081
   23.805    3.6844
   23.820    3.6923
   23.835    3.6598
   23.850    3.6414
   23.865    3.6897
   23.880    3.7414
   23.895    3.7564
   23.910    3.6510
   23.925    3.6484
   23.940    3.7019
   23.955    3.7353
   23.970    3.6905
   23.985    3.6519
   24.000    3.6475
   24.015    3.6458
   24.030    3.6098
   24.045    3.6080
   24.060    3.5659
   24.075    3.5922
   24.090    3.5843
   24.105    3.5589
   24.120    3.5764
   24.135    3.5369
   24.150    3.6835
   24.165    3.6203
   24.180    3.6115
   24.195    3.6493
   24.210    3.6256
   24.225    3.5729
   24.240    3.5071
   24.255    3.5159
   24.270    3.6230
   24.285    3.5527
   24.300    3.5598
   24.315    3.6098
   24.330    3.5738
   24.345    3.5598
   24.360    3.5448
   24.375    3.5308
   24.390    3.6054
   24.405    3.6510
   24.420    3.6475
   24.435    3.6923
   24.450    3.4904
   24.465    3.4817
   24.480    3.5633
   24.495    3.5650
   24.510    3.5782
   24.525    3.5826
   24.540    3.4694
   24.555    3.5484
   24.570    3.5782
   24.585    3.5615
   24.600    3.5352
   24.615    3.5334
   24.630    3.5317
   24.645    3.6238
   24.660    3.5817
   24.675    3.5729
   24.690    3.5299
   24.705    3.4483
   24.720    3.4869
   24.735    3.4983
   24.750    3.4641
   24.765    3.4720
   24.780    3.5036
   24.795    3.5150
   24.810    3.5633
   24.825    3.5931
   24.840    3.6080
   24.855    3.5764
   24.870    3.5106
   24.885    3.4817
   24.900    3.4966
   24.915    3.5027
   24.930    3.4834
   24.945    3.4869
   24.960    3.5045
   24.975    3.4948
   24.990    3.4790
   25.005    3.4343
   25.020    3.4299
   25.035    3.5212
   25.050    3.4694
   25.065    3.4843
   25.080    3.5089
   25.095    3.5001
   25.110    3.6326
   25.125    3.5334
   25.140    3.4501
   25.155    3.4992
   25.170    3.5510
   25.185    3.5475
   25.200    3.4939
   25.215    3.5010
   25.230    3.5185
   25.245    3.5352
   25.260    3.4825
   25.275    3.4615
   25.290    3.5150
   25.305    3.5106
   25.320    3.5536
   25.335    3.5168
   25.350    3.5001
   25.365    3.4650
   25.380    3.4422
   25.395    3.4711
   25.410    3.4588
   25.425    3.4825
   25.440    3.5624
   25.455    3.5299
   25.470    3.5650
   25.485    3.5018
   25.500    3.5212
   25.515    3.4132
   25.530    3.3509
   25.545    3.3570
   25.560    3.4308
   25.575    3.5027
   25.590    3.4817
   25.605    3.4123
   25.620    3.4027
   25.635    3.4527
   25.650    3.4167
   25.665    3.3781
   25.680    3.3974
   25.695    3.4281
   25.710    3.4615
   25.725    3.4308
   25.740    3.3289
   25.755    3.3763
   25.770    3.3632
   25.785    3.3667
   25.800    3.4158
   25.815    3.3834
   25.830    3.4308
   25.845    3.4817
   25.860    3.3904
   25.875    3.4553
   25.890    3.5080
   25.905    3.4027
   25.920    3.4457
   25.935    3.3605
   25.950    3.3325
   25.965    3.3807
   25.980    3.4509
   25.995    3.4272
   26.010    3.4229
   26.025    3.4580
   26.040    3.3500
   26.055    3.3193
   26.070    3.3237
   26.085    3.3965
   26.100    3.3921
   26.115    3.3562
   26.130    3.3167
   26.145    3.2666
   26.160    3.3746
   26.175    3.3377
   26.190    3.3623
   26.205    3.2895
   26.220    3.3834
   26.235    3.3333
   26.250    3.3210
   26.265    3.2991
   26.280    3.2508
   26.295    3.3535
   26.310    3.3202
   26.325    3.2737
   26.340    3.3325
   26.355    3.3237
   26.370    3.2895
   26.385    3.2552
   26.400    3.2912
   26.415    3.2816
   26.430    3.3281
   26.445    3.2219
   26.460    3.2412
   26.475    3.2895
   26.490    3.2412
   26.505    3.2148
   26.520    3.2798
   26.535    3.2693
   26.550    3.1683
   26.565    3.2078
   26.580    3.2368
   26.595    3.2965
   26.610    3.2385
   26.625    3.2816
   26.640    3.2912
   26.655    3.2026
   26.670    3.2675
   26.685    3.3272
   26.700    3.2096
   26.715    3.2263
   26.730    3.1455
   26.745    3.2236
   26.760    3.2324
   26.775    3.2342
   26.790    3.2210
   26.805    3.1560
   26.820    3.2175
   26.835    3.1789
   26.850    3.1868
   26.865    3.2131
   26.880    3.2148
   26.895    3.1402
   26.910    3.1385
   26.925    3.1657
   26.940    3.1288
   26.955    3.1297
   26.970    3.0700
   26.985    3.1552
   27.000    3.1964
   27.015    3.1955
   27.030    3.1192
   27.045    3.0613
   27.060    3.1587
   27.075    3.2061
   27.090    3.1525
   27.105    3.1209
   27.120    3.1569
   27.135    3.1253
   27.150    3.1402
   27.165    3.1920
   27.180    3.1473
   27.195    3.0946
   27.210    3.0858
   27.225    3.0990
   27.240    3.0964
   27.255    3.1639
   27.270    3.0893
   27.285    3.0621
   27.300    3.0981
   27.315    3.0753
   27.330    3.0481
   27.345    3.1227
   27.360    3.0832
   27.375    3.0262
   27.390    3.0130
   27.405    3.0639
   27.420    3.0033
   27.435    3.0402
   27.450    2.9630
   27.465    2.9682
   27.480    3.0841
   27.495    3.0507
   27.510    3.0595
   27.525    3.0437
   27.540    3.0762
   27.555    3.0850
   27.570    3.0700
   27.585    3.1016
   27.600    3.0235
   27.615    3.0358
   27.630    3.0086
   27.645    3.0358
   27.660    3.0121
   27.675    3.0648
   27.690    2.9472
   27.705    2.9682
   27.720    3.0384
   27.735    3.0613
   27.750    2.9875
   27.765    2.9252
   27.780    2.9735
   27.795    3.0341
   27.810    2.9700
   27.825    2.9788
   27.840    2.9665
   27.855    2.9761
   27.870    3.0060
   27.885    2.9814
   27.900    2.9507
   27.915    2.8831
   27.930    2.8831
   27.945    3.0279
   27.960    2.9998
   27.975    2.9129
   27.990    2.9709
   28.005    2.9612
   28.020    2.9252
   28.035    2.8708
   28.050    2.9595
   28.065    2.8892
   28.080    2.9796
   28.095    2.9858
   28.110    2.9322
   28.125    2.9217
   28.140    2.9314
   28.155    2.8884
   28.170    2.9270
   28.185    2.9647
   28.200    2.9235
   28.215    2.9454
   28.230    2.9919
   28.245    2.9121
   28.260    2.8752
   28.275    2.8936
   28.290    2.8691
   28.305    2.8550
   28.320    2.8770
   28.335    2.9015
   28.350    2.8822
   28.365    2.9129
   28.380    2.8954
   28.395    2.9121
   28.410    2.9463
   28.425    2.8497
   28.440    2.8998
   28.455    2.9121
   28.470    2.8840
   28.485    2.8884
   28.500    2.8620
   28.515    2.9033
   28.530    2.8989
   28.545    2.9314
   28.560    2.9542
   28.575    2.9322
   28.590    2.9173
   28.605    2.8410
   28.620    2.8857
   28.635    2.8708
   28.650    2.9305
   28.665    2.9551
   28.680    2.9410
   28.695    2.9542
   28.710    2.9121
   28.725    2.9059
   28.740    2.9919
   28.755    2.9208
   28.770    2.9129
   28.785    2.8796
   28.800    2.8971
   28.815    2.8980
   28.830    2.9577
   28.845    2.9568
   28.860    2.9937
   28.875    3.0806
   28.890    2.9831
   28.905    2.9410
   28.920    2.9542
   28.935    2.9595
   28.950    2.9595
   28.965    3.0139
   28.980    3.0209
   28.995    2.9788
   29.010    2.9454
   29.025    2.9568
   29.040    2.9112
   29.055    2.9305
   29.070    2.9507
   29.085    2.9577
   29.100    2.8682
   29.115    2.9419
   29.130    2.9129
   29.145    2.9015
   29.160    2.9454
   29.175    2.9077
   29.190    2.7725
   29.205    2.8726
   29.220    2.8945
   29.235    2.8892
   29.250    2.8963
   29.265    2.7980
   29.280    2.7699
   29.295    2.7409
   29.310    2.7936
   29.325    2.7708
   29.340    2.7506
   29.355    2.7488
   29.370    2.7804
   29.385    2.7339
   29.400    2.7313
   29.415    2.7260
   29.430    2.7076
   29.445    2.6733
   29.460    2.6830
   29.475    2.6707
   29.490    2.6891
   29.505    2.6646
   29.520    2.6532
   29.535    2.6479
   29.550    2.6137
   29.565    2.6022
   29.580    2.5996
   29.595    2.6330
   29.610    2.6330
   29.625    2.5952
   29.640    2.5996
   29.655    2.5987
   29.670    2.5821
   29.685    2.5759
   29.700    2.5724
   29.715    2.6066
   29.730    2.6628
   29.745    2.6567
   29.760    2.6207
   29.775    2.6242
   29.790    2.6022
   29.805    2.6259
   29.820    2.5935
   29.835    2.5531
   29.850    2.5557
   29.865    2.5768
   29.880    2.5162
   29.895    2.5136
   29.910    2.5487
   29.925    2.6189
   29.940    2.5364
   29.955    2.5329
   29.970    2.5987
   29.985    2.5715
   30.000    2.5136
   30.015    2.5320
   30.030    2.5118
   30.045    2.4961
   30.060    2.4583
   30.075    2.5355
   30.090    2.5724
   30.105    2.5610
   30.120    2.4882
   30.135    2.4873
   30.150    2.4794
   30.165    2.4618
   30.180    2.5127
   30.195    2.5549
   30.210    2.5724
   30.225    2.4829
   30.240    2.5197
   30.255    2.5101
   30.270    2.5303
   30.285    2.4987
   30.300    2.5022
   30.315    2.5294
   30.330    2.4750
   30.345    2.4873
   30.360    2.5048
   30.375    2.5022
   30.390    2.4136
   30.405    2.4522
   30.420    2.5224
   30.435    2.5057
   30.450    2.4741
   30.465    2.4662
   30.480    2.4724
   30.495    2.4706
   30.510    2.4416
   30.525    2.4846
   30.540    2.4566
   30.555    2.5461
   30.570    2.4776
   30.585    2.5092
   30.600    2.4627
   30.615    2.5338
   30.630    2.4539
   30.645    2.4583
   30.660    2.4697
   30.675    2.4337
   30.690    2.4522
   30.705    2.3934
   30.720    2.3828
   30.735    2.5013
   30.750    2.4785
   30.765    2.5039
   30.780    2.4706
   30.795    2.4364
   30.810    2.3978
   30.825    2.3732
   30.840    2.3732
   30.855    2.3328
   30.870    2.4583
   30.885    2.3697
   30.900    2.4434
   30.915    2.3846
   30.930    2.4021
   30.945    2.4293
   30.960    2.4179
   30.975    2.3776
   30.990    2.3662
   31.005    2.3855
   31.020    2.3556
   31.035    2.3907
   31.050    2.4083
   31.065    2.4074
   31.080    2.3468
   31.095    2.3337
   31.110    2.2907
   31.125    2.3021
   31.140    2.3363
   31.155    2.3504
   31.170    2.2924
   31.185    2.3135
   31.200    2.3214
   31.215    2.3232
   31.230    2.2670
   31.245    2.2749
   31.260    2.2959
   31.275    2.3188
   31.290    2.3311
   31.305    2.2880
   31.320    2.2608
   31.335    2.3030
   31.350    2.3196
   31.365    2.3284
   31.380    2.2749
   31.395    2.2898
   31.410    2.2565
   31.425    2.2810
   31.440    2.2529
   31.455    2.2529
   31.470    2.2740
   31.485    2.2907
   31.500    2.2968
   31.515    2.2845
   31.530    2.2933
   31.545    2.3179
   31.560    2.2442
   31.575    2.2986
   31.590    2.2565
   31.605    2.2810
   31.620    2.3126
   31.635    2.2828
   31.650    2.2565
   31.665    2.2398
   31.680    2.3170
   31.695    2.2608
   31.710    2.2336
   31.725    2.2801
   31.740    2.1968
   31.755    2.2758
   31.770    2.2512
   31.785    2.2635
   31.800    2.2459
   31.815    2.1950
   31.830    2.2529
   31.845    2.1915
   31.860    2.1292
   31.875    2.2055
   31.890    2.1924
   31.905    2.1810
   31.920    2.1959
   31.935    2.2275
   31.950    2.2240
   31.965    2.2292
   31.980    2.2354
   31.995    2.2257
   32.010    2.1617
   32.025    2.1687
   32.040    2.1722
   32.055    2.1661
   32.070    2.1678
   32.085    2.1661
   32.100    2.2038
   32.115    2.2213
   32.130    2.1582
   32.145    2.1713
   32.160    2.1959
   32.175    2.1485
   32.190    2.2082
   32.205    2.1801
   32.220    2.1643
   32.235    2.1336
   32.250    2.1678
   32.265    2.1643
   32.280    2.1476
   32.295    2.1388
   32.310    2.1151
   32.325    2.1116
   32.340    2.1696
   32.355    2.1116
   32.370    2.2020
   32.385    2.1897
   32.400    2.1090
   32.415    2.1134
   32.430    2.0958
   32.445    2.1362
   32.460    2.1371
   32.475    2.1151
   32.490    2.1941
   32.505    2.0985
   32.520    2.0958
   32.535    2.1204
   32.550    2.1669
   32.565    2.1169
   32.580    2.1213
   32.595    2.1213
   32.610    2.2003
   32.625    2.1178
   32.640    2.1283
   32.655    2.1783
   32.670    2.1450
   32.685    2.2047
   32.700    2.1792
   32.715    2.1424
   32.730    2.1301
   32.745    2.1125
   32.760    2.1292
   32.775    2.1029
   32.790    2.1327
   32.805    2.1037
   32.820    2.0844
   32.835    2.0537
   32.850    2.0555
   32.865    2.1274
   32.880    2.1380
   32.895    2.1687
   32.910    2.1792
   32.925    2.0897
   32.940    2.1002
   32.955    2.1643
   32.970    2.1037
   32.985    2.0879
   33.000    2.1345
   33.015    2.0221
   33.030    2.0441
   33.045    2.0906
   33.060    2.0950
   33.075    2.0599
   33.090    2.0748
   33.105    2.1116
   33.120    2.1318
   33.135    2.1432
   33.150    2.1064
   33.165    2.0634
   33.180    2.1055
   33.195    2.1108
   33.210    2.0897
   33.225    2.0247
   33.240    2.0985
   33.255    2.0844
   33.270    2.0651
   33.285    2.0493
   33.300    2.0405
   33.315    2.0730
   33.330    2.0493
   33.345    2.0177
   33.360    2.0265
   33.375    2.0563
   33.390    2.0520
   33.405    2.0423
   33.420    2.0581
   33.435    2.0704
   33.450    2.0090
   33.465    2.0177
   33.480    2.0379
   33.495    1.9967
   33.510    2.0072
   33.525    2.0098
   33.540    2.0484
   33.555    1.9475
   33.570    2.0142
   33.585    2.0090
   33.600    2.0449
   33.615    2.0581
   33.630    2.0660
   33.645    2.0204
   33.660    2.0160
   33.675    2.0265
   33.690    2.0511
   33.705    2.0493
   33.720    1.9747
   33.735    2.0546
   33.750    2.0204
   33.765    2.0484
   33.780    2.0283
   33.795    2.1064
   33.810    2.0142
   33.825    2.0256
   33.840    2.0265
   33.855    1.9537
   33.870    1.9800
   33.885    2.0169
   33.900    2.0335
   33.915    2.0528
   33.930    2.0660
   33.945    2.0844
   33.960    2.0054
   33.975    1.9738
   33.990    2.0704
   34.005    2.0660
   34.020    1.9870
   34.035    2.0151
   34.050    1.9800
   34.065    2.0326
   34.080    1.9335
   34.095    1.9616
   34.110    1.9537
   34.125    1.9791
   34.140    1.9861
   34.155    1.9844
   34.170    2.0555
   34.185    2.0239
   34.200    2.0054
   34.215    1.9756
   34.230    1.9853
   34.245    1.9817
   34.260    1.9826
   34.275    1.9642
   34.290    2.0011
   34.305    1.9510
   34.320    1.9607
   34.335    2.0125
   34.350    1.9659
   34.365    2.0142
   34.380    1.9870
   34.395    1.9501
   34.410    1.9870
   34.425    2.0133
   34.440    2.0414
   34.455    2.0019
   34.470    1.9580
   34.485    1.9545
   34.500    2.0888
   34.515    2.0028
   34.530    1.9071
   34.545    2.0002
   34.560    1.9826
   34.575    2.0063
   34.590    1.9905
   34.605    1.9370
   34.620    1.9730
   34.635    1.9774
   34.650    1.9624
   34.665    2.0046
   34.680    2.0046
   34.695    2.0028
   34.710    1.9317
   34.725    1.9545
   34.740    1.9624
   34.755    1.9932
   34.770    1.9659
   34.785    1.9651
   34.800    2.0098
   34.815    1.9958
   34.830    1.9642
   34.845    1.9721
   34.860    1.9879
   34.875    1.9905
   34.890    1.9466
   34.905    1.9580
   34.920    1.9370
   34.935    1.9203
   34.950    1.9493
   34.965    1.9256
   34.980    1.9563
   34.995    1.9493
   35.010    1.9414
   35.025    1.9791
   35.040    1.9624
   35.055    1.9642
   35.070    1.9458
   35.085    1.8992
   35.100    1.9071
   35.115    1.9782
   35.130    2.0318
   35.145    1.9896
   35.160    1.8975
   35.175    1.9519
   35.190    1.9265
   35.205    1.9510
   35.220    1.9423
   35.235    1.9098
   35.250    1.9212
   35.265    1.9335
   35.280    1.9651
   35.295    1.9124
   35.310    1.8782
   35.325    1.9001
   35.340    1.9265
   35.355    1.9045
   35.370    1.9238
   35.385    1.9730
   35.400    1.9703
   35.415    1.9817
   35.430    1.9440
   35.445    1.9493
   35.460    1.8870
   35.475    1.9361
   35.490    1.9765
   35.505    1.8966
   35.520    1.9019
   35.535    1.9896
   35.550    1.9545
   35.565    1.8922
   35.580    1.9493
   35.595    1.9080
   35.610    1.8878
   35.625    1.8905
   35.640    1.9405
   35.655    1.9308
   35.670    1.8992
   35.685    1.9071
   35.700    1.9554
   35.715    1.9414
   35.730    1.9817
   35.745    1.8834
   35.760    1.8773
   35.775    1.8992
   35.790    1.9071
   35.805    1.9563
   35.820    1.9905
   35.835    1.9054
   35.850    1.9159
   35.865    1.9493
   35.880    1.9001
   35.895    1.9344
   35.910    1.9001
   35.925    1.8966
   35.940    1.9677
   35.955    1.9642
   35.970    1.8913
   35.985    1.9449
   36.000    1.9572
   36.015    1.9466
   36.030    1.8940
   36.045    1.9458
   36.060    1.9431
   36.075    1.9396
   36.090    1.9159
   36.105    1.9501
   36.120    1.9721
   36.135    1.9458
   36.150    1.8878
   36.165    1.9089
   36.180    1.9379
   36.195    1.9098
   36.210    1.8966
   36.225    1.9133
   36.240    1.9273
   36.255    1.9071
   36.270    1.9528
   36.285    1.9010
   36.300    1.9177
   36.315    1.8755
   36.330    1.9554
   36.345    1.9484
   36.360    1.8799
   36.375    1.9229
   36.390    1.9458
   36.405    1.9686
   36.420    1.9159
   36.435    1.9054
   36.450    1.9194
   36.465    1.9703
   36.480    1.9229
   36.495    1.9484
   36.510    1.9352
   36.525    1.9282
   36.540    1.8519
   36.555    1.9089
   36.570    1.8404
   36.585    1.9001
   36.600    1.9607
   36.615    1.9308
   36.630    1.9256
   36.645    1.9080
   36.660    1.9405
   36.675    1.8940
   36.690    1.8878
   36.705    1.9177
   36.720    1.8940
   36.735    1.9308
   36.750    1.8940
   36.765    1.8703
   36.780    1.9221
   36.795    1.9019
   36.810    1.9159
   36.825    1.8791
   36.840    1.9431
   36.855    1.9168
   36.870    1.9115
   36.885    1.8957
   36.900    1.8834
   36.915    1.8712
   36.930    1.8791
   36.945    1.8501
   36.960    1.8255
   36.975    1.8668
   36.990    1.8299
   37.005    1.8466
   37.020    1.8940
   37.035    1.8641
   37.050    1.8185
   37.065    1.9115
   37.080    1.8317
   37.095    1.8843
   37.110    1.8396
   37.125    1.8378
   37.140    1.8712
   37.155    1.8510
   37.170    1.7878
   37.185    1.8422
   37.200    1.8422
   37.215    1.8834
   37.230    1.8817
   37.245    1.8457
   37.260    1.8843
   37.275    1.8536
   37.290    1.8387
   37.305    1.7852
   37.320    1.7957
   37.335    1.8387
   37.350    1.8685
   37.365    1.8475
   37.380    1.8238
   37.395    1.8773
   37.410    1.8404
   37.425    1.8273
   37.440    1.7966
   37.455    1.8220
   37.470    1.7720
   37.485    1.7694
   37.500    1.8124
   37.515    1.8325
   37.530    1.8325
   37.545    1.7878
   37.560    1.8887
   37.575    1.9001
   37.590    1.8325
   37.605    1.8404
   37.620    1.8229
   37.635    1.8685
   37.650    1.8738
   37.665    1.8317
   37.680    1.7755
   37.695    1.7957
   37.710    1.8440
   37.725    1.8554
   37.740    1.9142
   37.755    1.8229
   37.770    1.8396
   37.785    1.8308
   37.800    1.8001
   37.815    1.8501
   37.830    1.8501
   37.845    1.8045
   37.860    1.7746
   37.875    1.8009
   37.890    1.8852
   37.905    1.8203
   37.920    1.8282
   37.935    1.7694
   37.950    1.8036
   37.965    1.8185
   37.980    1.8080
   37.995    1.8545
   38.010    1.8554
   38.025    1.8071
   38.040    1.8176
   38.055    1.7808
   38.070    1.8255
   38.085    1.7974
   38.100    1.8124
   38.115    1.8150
   38.130    1.7623
   38.145    1.8124
   38.160    1.7790
   38.175    1.8457
   38.190    1.8527
   38.205    1.8097
   38.220    1.7764
   38.235    1.8009
   38.250    1.7658
   38.265    1.8053
   38.280    1.8466
   38.295    1.7843
   38.310    1.8492
   38.325    1.7764
   38.340    1.7579
   38.355    1.8422
   38.370    1.7509
   38.385    1.8176
   38.400    1.7860
   38.415    1.7930
   38.430    1.7790
   38.445    1.7378
   38.460    1.7351
   38.475    1.7729
   38.490    1.7623
   38.505    1.7509
   38.520    1.8071
   38.535    1.7974
   38.550    1.7869
   38.565    1.7729
   38.580    1.8009
   38.595    1.8282
   38.610    1.7597
   38.625    1.7930
   38.640    1.8238
   38.655    1.7825
   38.670    1.7483
   38.685    1.7062
   38.700    1.8185
   38.715    1.8001
   38.730    1.7553
   38.745    1.8387
   38.760    1.7948
   38.775    1.7737
   38.790    1.8246
   38.805    1.7843
   38.820    1.7755
   38.835    1.7922
   38.850    1.7562
   38.865    1.7676
   38.880    1.8097
   38.895    1.7413
   38.910    1.8290
   38.925    1.8887
   38.940    1.8106
   38.955    1.8211
   38.970    1.7299
   38.985    1.8027
   39.000    1.8088
   39.015    1.7527
   39.030    1.8001
   39.045    1.8062
   39.060    1.8255
   39.075    1.7509
   39.090    1.8185
   39.105    1.8106
   39.120    1.7448
   39.135    1.7527
   39.150    1.7711
   39.165    1.7492
   39.180    1.7255
   39.195    1.6921
   39.210    1.7281
   39.225    1.7676
   39.240    1.7764
   39.255    1.7755
   39.270    1.8053
   39.285    1.8396
   39.300    1.7571
   39.315    1.7395
   39.330    1.7492
   39.345    1.7729
   39.360    1.7465
   39.375    1.8159
   39.390    1.7615
   39.405    1.7536
   39.420    1.8097
   39.435    1.7202
   39.450    1.7079
   39.465    1.8027
   39.480    1.7062
   39.495    1.7097
   39.510    1.7325
   39.525    1.7369
   39.540    1.6956
   39.555    1.7105
   39.570    1.7474
   39.585    1.7650
   39.600    1.7000
   39.615    1.7386
   39.630    1.7141
   39.645    1.7623
   39.660    1.7211
   39.675    1.6842
   39.690    1.6833
   39.705    1.7457
   39.720    1.7448
   39.735    1.6658
   39.750    1.7421
   39.765    1.7263
   39.780    1.7070
   39.795    1.7421
   39.810    1.7474
   39.825    1.7509
   39.840    1.6816
   39.855    1.7307
   39.870    1.7685
   39.885    1.7299
   39.900    1.7281
   39.915    1.6807
   39.930    1.6702
   39.945    1.7439
   39.960    1.7667
   39.975    1.7272
   39.990    1.7360
