    1.500   14.6919
    1.515   14.9728
    1.530   14.3935
    1.545   14.2180
    1.560   14.1829
    1.575   14.0600
    1.590   13.9196
    1.605   13.3755
    1.620   13.2175
    1.635   13.3052
    1.650   13.1999
    1.665   13.3579
    1.680   13.7265
    1.695   11.7255
    1.710   12.8489
    1.725   13.1473
    1.740   12.2170
    1.755   11.9361
    1.770   12.7611
    1.785   11.4095
    1.800   11.7781
    1.815   12.4451
    1.830   11.8659
    1.845   11.9537
    1.860   11.6728
    1.875   11.2691
    1.890   10.8654
    1.905   11.0585
    1.920   11.0058
    1.935   11.0058
    1.950   10.5670
    1.965   10.7249
    1.980   11.2164
    1.995   10.7074
    2.010   10.8478
    2.025   10.8303
    2.040   10.7425
    2.055   10.8127
    2.070   10.7952
    2.085   11.0233
    2.100   10.3388
    2.115   10.6196
    2.130   10.5319
    2.145    9.9702
    2.160   10.1983
    2.175    9.8999
    2.190    9.8297
    2.205   10.1808
    2.220    9.9877
    2.235    9.8473
    2.250    9.8122
    2.265   10.6021
    2.280   10.0930
    2.295    9.8999
    2.310   10.1281
    2.325    9.4436
    2.340    9.6542
    2.355    9.4611
    2.370    9.7420
    2.385    9.3558
    2.400   10.2861
    2.415   10.3914
    2.430   10.2335
    2.445   10.0755
    2.460    9.9175
    2.475    9.5313
    2.490   10.3037
    2.505   10.3212
    2.520   10.4090
    2.535   10.1808
    2.550   10.3914
    2.565    9.9702
    2.580   10.5670
    2.595   10.2159
    2.610   10.0579
    2.625   10.6547
    2.640   10.0579
    2.655   10.7074
    2.670   10.5670
    2.685   10.8303
    2.700   11.3744
    2.715   11.0058
    2.730   11.0058
    2.745   11.3920
    2.760   11.7255
    2.775   11.4095
    2.790   12.1643
    2.805   12.0414
    2.820   12.2170
    2.835   11.4973
    2.850   12.1819
    2.865   12.9191
    2.880   12.5154
    2.895   12.6558
    2.910   13.0595
    2.925   12.2872
    2.940   13.5861
    2.955   13.2526
    2.970   13.3579
    2.985   13.7967
    3.000   14.8148
    3.015   14.6744
    3.030   15.1308
    3.045   15.7276
    3.060   15.8504
    3.075   16.3068
    3.090   16.2366
    3.105   16.1840
    3.120   16.3946
    3.135   16.1313
    3.150   16.7983
    3.165   17.0792
    3.180   17.3074
    3.195   18.0621
    3.210   19.0627
    3.225   19.2733
    3.240   19.6595
    3.255   20.6775
    3.270   21.0813
    3.285   22.4855
    3.300   22.8541
    3.315   23.1174
    3.330   22.8190
    3.345   24.2057
    3.360   25.0834
    3.375   25.1185
    3.390   26.8562
    3.405   27.0844
    3.420   28.1025
    3.435   30.2089
    3.450   30.2615
    3.465   31.7711
    3.480   32.4381
    3.495   35.5099
    3.510   36.5807
    3.525   37.9147
    3.540   40.1790
    3.555   42.1976
    3.570   43.3386
    3.585   46.8317
    3.600   48.7976
    3.615   50.8162
    3.630   54.9412
    3.645   59.3119
    3.660   63.4720
    3.675   66.7018
    3.690   73.1789
    3.705   80.7091
    3.720   91.3463
    3.735  102.5101
    3.750  115.7978
    3.765  127.9445
    3.780  126.8036
    3.795  109.2680
    3.810   88.4150
    3.825   65.8592
    3.840   45.1115
    3.855   29.4717
    3.870   20.1159
    3.885   14.2531
    3.900   11.4446
    3.915   10.1808
    3.930    9.2154
    3.945    8.3026
    3.960    7.8989
    3.975    6.8106
    3.990    6.5473
    4.005    6.3718
    4.020    6.3191
    4.035    5.9329
    4.050    5.6521
    4.065    5.6521
    4.080    5.7925
    4.095    5.4590
    4.110    5.0728
    4.125    4.8973
    4.140    5.4064
    4.155    5.5819
    4.170    5.4590
    4.185    5.4766
    4.200    5.0553
    4.215    4.9851
    4.230    5.0202
    4.245    5.0202
    4.260    4.8271
    4.275    4.6867
    4.290    4.7920
    4.305    5.1255
    4.320    5.5468
    4.335    4.9500
    4.350    4.8973
    4.365    4.9149
    4.380    5.0377
    4.395    4.6867
    4.410    4.6340
    4.425    4.5463
    4.440    4.4585
    4.455    4.6516
    4.470    5.3186
    4.485    4.8447
    4.500    4.6165
    4.515    4.7744
    4.530    4.7218
    4.545    4.9851
    4.560    5.0553
    4.575    4.7744
    4.590    4.8447
    4.605    5.0904
    4.620    4.8622
    4.635    4.7920
    4.650    5.2133
    4.665    4.8973
    4.680    4.7920
    4.695    4.8798
    4.710    5.3186
    4.725    5.5994
    4.740    5.9154
    4.755    5.4766
    4.770    5.5994
    4.785    5.7048
    4.800    5.5292
    4.815    5.8276
    4.830    5.7048
    4.845    5.4064
    4.860    5.7048
    4.875    5.8452
    4.890    6.0383
    4.905    6.3191
    4.920    6.3367
    4.935    6.3718
    4.950    6.6000
    4.965    6.5298
    4.980    6.8633
    4.995    6.8633
    5.010    7.3723
    5.025    7.4425
    5.040    7.2319
    5.055    7.2143
    5.070    7.1968
    5.085    7.6883
    5.100    7.9164
    5.115    8.3377
    5.130    9.0574
    5.145    9.1101
    5.160    9.4787
    5.175    9.9175
    5.190   10.5845
    5.205   10.5494
    5.220   11.2515
    5.235   12.1643
    5.250   12.5680
    5.265   13.7265
    5.280   14.5691
    5.295   16.0084
    5.310   17.2722
    5.325   19.4664
    5.340   20.7653
    5.355   23.2579
    5.370   23.3632
    5.385   22.0818
    5.400   18.8169
    5.415   14.8850
    5.430   11.4973
    5.445    8.7765
    5.460    7.7234
    5.475    6.0032
    5.490    5.3010
    5.505    5.2133
    5.520    4.7393
    5.535    4.7042
    5.550    4.5287
    5.565    4.0899
    5.580    4.1952
    5.595    4.2127
    5.610    4.2303
    5.625    3.9494
    5.640    4.0021
    5.655    4.1425
    5.670    4.0197
    5.685    4.1425
    5.700    3.9319
    5.715    4.0021
    5.730    4.2830
    5.745    4.1425
    5.760    4.0021
    5.775    4.1425
    5.790    4.1601
    5.805    4.3707
    5.820    4.3356
    5.835    3.7915
    5.850    3.8441
    5.865    4.1074
    5.880    4.1952
    5.895    4.3532
    5.910    4.1250
    5.925    3.6686
    5.940    3.5633
    5.955    3.6510
    5.970    4.0197
    5.985    3.9494
    6.000    4.1250
    6.015    3.6862
    6.030    3.7564
    6.045    3.9319
    6.060    4.2830
    6.075    4.0723
    6.090    4.1952
    6.105    3.9143
    6.120    3.6510
    6.135    4.1074
    6.150    4.3005
    6.165    3.9143
    6.180    4.0021
    6.195    4.0899
    6.210    4.1601
    6.225    4.3181
    6.240    4.1250
    6.255    4.1074
    6.270    4.4409
    6.285    4.3707
    6.300    4.4760
    6.315    4.4058
    6.330    4.5814
    6.345    4.5287
    6.360    4.3883
    6.375    4.7393
    6.390    4.9675
    6.405    5.0026
    6.420    5.2133
    6.435    4.6691
    6.450    5.1431
    6.465    5.6170
    6.480    5.4415
    6.495    5.4766
    6.510    6.0909
    6.525    6.2489
    6.540    6.6175
    6.555    7.3372
    6.570    7.9867
    6.585    8.1622
    6.600    8.4255
    6.615    7.0739
    6.630    6.9686
    6.645    5.5643
    6.660    5.1782
    6.675    4.9324
    6.690    4.4234
    6.705    4.0021
    6.720    4.0548
    6.735    3.7037
    6.750    3.7915
    6.765    3.5282
    6.780    3.7739
    6.795    3.9143
    6.810    3.8266
    6.825    4.0723
    6.840    4.1425
    6.855    3.8792
    6.870    3.4755
    6.885    3.4755
    6.900    3.9143
    6.915    4.0723
    6.930    3.7915
    6.945    3.8441
    6.960    3.6686
    6.975    3.7037
    6.990    3.8441
    7.005    3.4404
    7.020    3.5457
    7.035    3.6159
    7.050    3.7915
    7.065    3.6686
    7.080    3.9143
    7.095    3.4755
    7.110    3.9319
    7.125    3.7739
    7.140    3.8617
    7.155    3.7739
    7.170    3.6159
    7.185    3.9494
    7.200    4.0021
    7.215    4.1601
    7.230    4.0548
    7.245    3.7213
    7.260    3.8792
    7.275    4.1074
    7.290    4.0021
    7.305    4.1250
    7.320    3.9846
    7.335    4.1425
    7.350    4.0372
    7.365    4.4409
    7.380    4.4760
    7.395    4.4760
    7.410    4.8271
    7.425    4.3883
    7.440    4.5638
    7.455    5.3712
    7.470    5.0728
    7.485    5.2484
    7.500    5.7048
    7.515    5.5643
    7.530    5.6345
    7.545    5.7223
    7.560    5.8803
    7.575    6.4069
    7.590    6.8984
    7.605    7.7058
    7.620    8.1797
    7.635    8.1446
    7.650    7.5127
    7.665    7.1968
    7.680    6.0383
    7.695    4.5638
    7.710    4.1074
    7.725    4.2654
    7.740    4.0021
    7.755    4.1425
    7.770    3.8617
    7.785    3.7915
    7.800    3.6686
    7.815    3.7739
    7.830    3.6335
    7.845    3.6159
    7.860    3.6686
    7.875    4.0899
    7.890    3.7213
    7.905    3.8792
    7.920    3.5457
    7.935    3.3351
    7.950    3.3877
    7.965    3.6686
    7.980    3.7213
    7.995    3.9319
    8.010    3.5282
    8.025    3.5633
    8.040    3.4229
    8.055    3.4053
    8.070    3.3877
    8.085    3.3000
    8.100    3.7739
    8.115    3.5633
    8.130    3.5633
    8.145    3.4931
    8.160    3.3702
    8.175    3.5984
    8.190    3.9494
    8.205    3.9319
    8.220    3.6510
    8.235    4.1952
    8.250    3.5984
    8.265    3.7037
    8.280    3.7388
    8.295    4.0021
    8.310    4.0723
    8.325    4.0723
    8.340    4.0372
    8.355    3.9846
    8.370    4.1425
    8.385    4.4585
    8.400    4.3883
    8.415    4.6165
    8.430    4.9324
    8.445    4.9324
    8.460    4.8798
    8.475    5.4239
    8.490    5.2835
    8.505    5.5994
    8.520    6.1436
    8.535    6.4069
    8.550    6.5824
    8.565    6.1962
    8.580    5.9154
    8.595    5.1782
    8.610    4.4058
    8.625    4.2830
    8.640    3.3702
    8.655    3.4931
    8.670    3.5984
    8.685    3.4404
    8.700    3.4580
    8.715    3.2122
    8.730    3.4404
    8.745    3.9143
    8.760    3.5633
    8.775    3.6159
    8.790    3.7915
    8.805    3.5457
    8.820    3.4580
    8.835    3.5633
    8.850    3.5633
    8.865    3.6159
    8.880    3.6159
    8.895    3.8617
    8.910    3.6335
    8.925    3.6335
    8.940    3.7388
    8.955    3.7915
    8.970    4.1250
    8.985    4.1074
    9.000    4.1776
    9.015    3.7388
    9.030    4.5814
    9.045    4.5463
    9.060    4.1074
    9.075    4.2478
    9.090    4.4409
    9.105    3.9670
    9.120    4.5463
    9.135    4.5463
    9.150    4.6165
    9.165    4.8447
    9.180    5.3888
    9.195    5.5468
    9.210    5.3361
    9.225    5.9505
    9.240    6.3542
    9.255    6.7404
    9.270    7.0739
    9.285    7.2670
    9.300    7.8287
    9.315    8.9170
    9.330   10.1808
    9.345   10.0755
    9.360   11.7606
    9.375   10.8127
    9.390    9.6015
    9.405    9.1101
    9.420    7.2670
    9.435    5.9856
    9.450    5.0904
    9.465    4.0197
    9.480    4.1601
    9.495    4.1601
    9.510    3.4404
    9.525    3.4229
    9.540    3.4404
    9.555    3.7388
    9.570    3.4755
    9.585    3.5633
    9.600    3.6159
    9.615    3.6510
    9.630    3.7213
    9.645    3.2824
    9.660    3.2649
    9.675    3.2473
    9.690    3.6862
    9.705    3.6510
    9.720    3.4053
    9.735    3.7213
    9.750    3.8792
    9.765    3.8090
    9.780    3.6862
    9.795    3.8441
    9.810    3.7564
    9.825    3.5808
    9.840    4.0372
    9.855    4.1074
    9.870    3.8792
    9.885    4.2127
    9.900    4.3532
    9.915    4.0548
    9.930    4.0548
    9.945    4.5463
    9.960    4.3005
    9.975    4.9500
    9.990    5.3361
   10.005    5.5117
   10.020    5.8276
   10.035    6.1962
   10.050    6.2840
   10.065    6.4069
   10.080    7.6005
   10.095    7.9516
   10.110    8.2500
   10.125    8.1446
   10.140    7.8462
   10.155    7.5478
   10.170    6.3893
   10.185    5.0728
   10.200    4.3532
   10.215    4.3005
   10.230    3.3702
   10.245    3.8792
   10.260    3.6159
   10.275    3.6862
   10.290    3.4229
   10.305    3.3351
   10.320    3.7739
   10.335    3.6862
   10.350    3.5282
   10.365    3.4755
   10.380    3.4755
   10.395    3.4053
   10.410    3.5106
   10.425    3.1947
   10.440    3.2824
   10.455    3.0367
   10.470    3.2298
   10.485    3.3351
   10.500    3.5457
   10.515    3.5808
   10.530    3.8617
   10.545    3.7213
   10.560    3.6335
   10.575    3.3877
   10.590    3.5282
   10.605    3.8266
   10.620    3.9846
   10.635    3.8617
   10.650    3.8617
   10.665    3.9319
   10.680    4.0021
   10.695    4.3883
   10.710    4.7569
   10.725    4.7042
   10.740    5.5468
   10.755    5.5994
   10.770    5.7574
   10.785    5.7223
   10.800    6.5473
   10.815    6.4595
   10.830    6.2489
   10.845    6.5824
   10.860    5.2484
   10.875    5.0728
   10.890    4.2303
   10.905    4.2478
   10.920    3.4404
   10.935    3.6159
   10.950    3.2298
   10.965    3.3526
   10.980    3.3702
   10.995    3.2473
   11.010    3.5106
   11.025    3.3175
   11.040    3.0016
   11.055    3.5633
   11.070    3.5808
   11.085    3.4755
   11.100    3.3175
   11.115    2.9665
   11.130    3.2298
   11.145    2.8085
   11.160    3.3175
   11.175    3.3175
   11.190    3.3526
   11.205    3.4580
   11.220    3.3351
   11.235    3.3877
   11.250    3.5282
   11.265    3.7388
   11.280    3.7915
   11.295    3.5457
   11.310    3.5457
   11.325    4.0021
   11.340    3.9670
   11.355    3.7213
   11.370    3.8617
   11.385    3.8266
   11.400    4.2478
   11.415    4.6165
   11.430    4.5287
   11.445    4.7569
   11.460    5.4766
   11.475    5.3712
   11.490    5.3888
   11.505    5.7223
   11.520    5.0728
   11.535    4.5463
   11.550    4.0021
   11.565    3.4404
   11.580    3.4404
   11.595    3.2824
   11.610    3.3877
   11.625    3.2649
   11.640    3.1771
   11.655    3.1069
   11.670    2.6681
   11.685    3.1771
   11.700    3.4755
   11.715    3.3000
   11.730    3.3351
   11.745    3.2473
   11.760    3.2824
   11.775    3.6159
   11.790    3.4755
   11.805    3.4755
   11.820    3.4755
   11.835    3.0893
   11.850    3.3877
   11.865    3.1771
   11.880    3.1245
   11.895    3.3877
   11.910    3.2824
   11.925    3.1771
   11.940    3.4053
   11.955    3.4053
   11.970    3.6159
   11.985    3.8266
   12.000    4.0021
   12.015    4.0899
   12.030    3.9143
   12.045    3.8792
   12.060    3.7037
   12.075    3.6159
   12.090    4.3181
   12.105    3.9846
   12.120    4.2127
   12.135    4.4058
   12.150    3.9143
   12.165    3.7739
   12.180    3.8090
   12.195    3.7564
   12.210    3.4580
   12.225    3.6159
   12.240    3.4404
   12.255    3.4755
   12.270    3.3000
   12.285    3.2298
   12.300    3.0718
   12.315    3.1245
   12.330    3.0367
   12.345    3.2473
   12.360    3.2824
   12.375    3.4755
   12.390    3.3702
   12.405    3.2824
   12.420    3.1947
   12.435    3.2649
   12.450    3.3702
   12.465    3.3000
   12.480    3.4755
   12.495    3.3877
   12.510    3.0893
   12.525    3.3526
   12.540    3.2649
   12.555    3.6510
   12.570    3.7213
   12.585    3.8266
   12.600    3.6159
   12.615    4.1425
   12.630    3.9670
   12.645    4.1425
   12.660    4.4936
   12.675    4.7744
   12.690    5.3186
   12.705    5.0202
   12.720    5.2308
   12.735    5.3010
   12.750    4.1952
   12.765    4.5111
   12.780    3.9670
   12.795    3.5984
   12.810    3.6335
   12.825    3.2298
   12.840    3.2824
   12.855    3.3702
   12.870    3.2473
   12.885    3.2122
   12.900    2.8787
   12.915    3.3351
   12.930    3.1771
   12.945    3.1596
   12.960    3.1947
   12.975    3.3351
   12.990    3.0016
   13.005    3.1771
   13.020    3.1245
   13.035    3.4580
   13.050    3.2649
   13.065    3.3000
   13.080    3.1596
   13.095    3.1596
   13.110    3.2824
   13.125    3.5106
   13.140    3.5808
   13.155    3.5984
   13.170    3.2649
   13.185    3.1771
   13.200    3.3351
   13.215    3.3877
   13.230    3.2824
   13.245    3.8617
   13.260    4.3181
   13.275    3.7739
   13.290    3.8617
   13.305    3.8617
   13.320    3.8617
   13.335    3.5633
   13.350    3.4229
   13.365    3.1771
   13.380    3.6510
   13.395    3.5106
   13.410    3.1069
   13.425    3.1596
   13.440    3.3000
   13.455    3.1420
   13.470    3.0718
   13.485    2.9665
   13.500    2.7909
   13.515    3.1069
   13.530    3.5282
   13.545    3.2473
   13.560    3.2649
   13.575    3.3702
   13.590    3.3175
   13.605    3.6159
   13.620    3.4404
   13.635    3.3702
   13.650    3.5282
   13.665    3.7213
   13.680    3.8441
   13.695    4.1250
   13.710    4.1074
   13.725    4.1425
   13.740    4.8973
   13.755    5.1782
   13.770    5.0202
   13.785    5.5468
   13.800    5.8452
   13.815    6.2138
   13.830    5.7223
   13.845    5.7750
   13.860    5.7925
   13.875    5.1080
   13.890    4.5111
   13.905    4.0197
   13.920    3.4053
   13.935    3.4755
   13.950    3.2649
   13.965    2.8085
   13.980    3.0718
   13.995    3.2298
   14.010    3.0718
   14.025    3.2122
   14.040    2.9840
   14.055    2.8787
   14.070    2.9489
   14.085    3.0542
   14.100    2.9314
   14.115    2.8612
   14.130    3.2649
   14.145    3.3000
   14.160    3.1420
   14.175    3.3702
   14.190    3.1069
   14.205    2.6856
   14.220    3.3000
   14.235    3.1596
   14.250    3.1245
   14.265    3.1947
   14.280    2.9489
   14.295    2.8260
   14.310    3.0718
   14.325    2.9314
   14.340    2.7558
   14.355    2.8963
   14.370    2.8963
   14.385    3.0718
   14.400    2.8963
   14.415    2.7909
   14.430    3.0191
   14.445    2.8260
   14.460    3.0718
   14.475    3.0367
   14.490    3.3877
   14.505    3.1069
   14.520    3.3351
   14.535    3.2824
   14.550    3.2824
   14.565    3.0718
   14.580    3.2473
   14.595    3.3702
   14.610    3.0718
   14.625    2.9138
   14.640    2.7734
   14.655    2.9489
   14.670    3.0893
   14.685    2.9489
   14.700    3.1069
   14.715    3.1947
   14.730    2.9665
   14.745    3.1245
   14.760    2.9138
   14.775    2.9138
   14.790    3.4755
   14.805    3.4580
   14.820    3.6159
   14.835    3.6686
   14.850    3.8441
   14.865    3.8266
   14.880    3.7915
   14.895    3.4404
   14.910    3.4580
   14.925    3.3000
   14.940    3.2298
   14.955    3.2824
   14.970    2.9665
   14.985    2.9840
   15.000    2.9665
   15.015    3.1771
   15.030    3.0893
   15.045    3.2122
   15.060    3.3351
   15.075    2.8436
   15.090    3.3351
   15.105    2.9489
   15.120    3.3877
   15.135    2.9138
   15.150    2.8260
   15.165    3.0718
   15.180    3.1245
   15.195    3.1596
   15.210    3.4053
   15.225    3.3702
   15.240    3.0016
   15.255    2.7207
   15.270    2.8963
   15.285    2.8085
   15.300    3.5457
   15.315    3.3526
   15.330    3.0718
   15.345    3.3000
   15.360    3.1245
   15.375    3.1245
   15.390    3.1420
   15.405    3.0016
   15.420    3.0191
   15.435    3.0542
   15.450    2.8612
   15.465    3.0191
   15.480    3.1245
   15.495    3.4931
   15.510    3.1420
   15.525    2.9489
   15.540    2.9138
   15.555    3.1245
   15.570    3.0367
   15.585    3.2298
   15.600    3.1771
   15.615    3.3877
   15.630    3.3351
   15.645    3.1947
   15.660    3.2122
   15.675    2.8260
   15.690    3.0367
   15.705    3.3000
   15.720    2.9665
   15.735    3.2473
   15.750    3.1771
   15.765    3.4404
   15.780    3.4229
   15.795    3.6862
   15.810    3.7915
   15.825    3.8792
   15.840    3.7564
   15.855    3.8617
   15.870    3.9319
   15.885    3.5984
   15.900    3.4404
   15.915    3.4755
   15.930    3.1420
   15.945    3.2473
   15.960    3.4229
   15.975    2.9138
   15.990    2.9489
   16.005    3.5808
   16.020    3.4931
   16.035    3.0191
   16.050    3.0191
   16.065    2.7909
   16.080    2.6856
   16.095    2.4925
   16.110    3.1069
   16.125    2.9489
   16.140    3.1245
   16.155    3.2298
   16.170    3.3351
   16.185    3.1771
   16.200    3.1947
   16.215    3.1596
   16.230    3.4404
   16.245    3.5808
   16.260    3.5457
   16.275    3.3877
   16.290    3.3351
   16.305    3.4755
   16.320    3.8441
   16.335    3.3351
   16.350    3.3000
   16.365    3.1069
   16.380    2.9314
   16.395    2.9138
   16.410    3.2122
   16.425    3.1771
   16.440    3.2122
   16.455    3.2473
   16.470    3.0718
   16.485    2.8963
   16.500    2.6856
   16.515    3.2473
   16.530    2.8085
   16.545    3.1771
   16.560    3.0893
   16.575    3.2473
   16.590    3.2473
   16.605    3.1069
   16.620    3.4053
   16.635    3.2824
   16.650    2.9665
   16.665    3.5282
   16.680    3.7388
   16.695    3.2298
   16.710    3.7739
   16.725    3.9670
   16.740    4.0021
   16.755    4.1776
   16.770    3.8441
   16.785    3.6510
   16.800    3.3702
   16.815    3.5106
   16.830    3.1069
   16.845    3.0542
   16.860    3.2649
   16.875    2.7558
   16.890    3.0542
   16.905    3.6335
   16.920    3.5282
   16.935    3.1069
   16.950    3.1596
   16.965    3.0016
   16.980    3.0542
   16.995    2.8260
   17.010    2.8085
   17.025    2.9665
   17.040    3.1771
   17.055    3.0718
   17.070    3.0893
   17.085    3.1947
   17.100    3.1245
   17.115    3.4229
   17.130    3.7388
   17.145    3.9143
   17.160    3.5984
   17.175    3.5106
   17.190    3.8792
   17.205    3.7564
   17.220    3.4053
   17.235    3.6862
   17.250    3.5457
   17.265    3.6510
   17.280    3.5106
   17.295    2.8787
   17.310    3.1069
   17.325    3.2649
   17.340    3.0893
   17.355    3.0367
   17.370    2.9314
   17.385    2.9489
   17.400    2.8612
   17.415    3.0016
   17.430    2.9665
   17.445    2.8963
   17.460    2.6505
   17.475    2.9840
   17.490    2.9840
   17.505    3.1245
   17.520    2.9840
   17.535    2.8436
   17.550    2.8787
   17.565    3.2649
   17.580    3.5282
   17.595    3.2649
   17.610    3.3877
   17.625    3.0718
   17.640    3.3175
   17.655    3.5633
   17.670    3.3526
   17.685    2.7383
   17.700    2.8436
   17.715    3.2824
   17.730    3.3877
   17.745    2.9840
   17.760    3.0893
   17.775    2.9489
   17.790    2.8787
   17.805    3.0893
   17.820    3.2473
   17.835    3.0367
   17.850    2.8963
   17.865    3.0191
   17.880    2.8612
   17.895    2.8963
   17.910    3.0542
   17.925    2.8436
   17.940    3.2473
   17.955    3.3877
   17.970    2.9665
   17.985    2.8612
   18.000    2.8612
   18.015    3.3175
   18.030    3.3175
   18.045    3.3702
   18.060    3.3351
   18.075    3.2824
   18.090    3.3702
   18.105    3.3000
   18.120    3.1420
   18.135    3.1947
   18.150    3.2298
   18.165    2.9314
   18.180    2.9840
   18.195    2.8085
   18.210    3.1420
   18.225    3.2473
   18.240    3.4404
   18.255    3.4580
   18.270    3.3000
   18.285    3.0542
   18.300    2.7909
   18.315    3.1420
   18.330    2.9665
   18.345    3.1245
   18.360    2.9840
   18.375    3.3877
   18.390    3.4404
   18.405    3.2649
   18.420    3.1947
   18.435    3.5633
   18.450    3.3351
   18.465    3.1069
   18.480    3.0718
   18.495    3.4404
   18.510    3.1069
   18.525    3.5633
   18.540    3.5808
   18.555    3.3000
   18.570    3.1947
   18.585    3.0542
   18.600    3.0893
   18.615    2.9314
   18.630    2.8260
   18.645    3.0718
   18.660    3.3000
   18.675    3.6335
   18.690    3.1069
   18.705    2.9138
   18.720    2.9314
   18.735    3.0016
   18.750    2.9138
   18.765    3.1420
   18.780    3.1947
   18.795    3.0542
   18.810    2.9840
   18.825    3.4053
   18.840    3.1596
   18.855    3.2473
   18.870    3.0718
   18.885    2.9138
   18.900    3.3000
   18.915    3.4755
   18.930    3.0367
   18.945    3.0542
   18.960    3.1947
   18.975    3.1596
   18.990    3.1069
   19.005    2.8963
   19.020    2.9840
   19.035    3.0016
   19.050    3.0191
   19.065    3.2649
   19.080    3.4755
   19.095    3.2649
   19.110    3.0191
   19.125    3.3877
   19.140    3.5808
   19.155    3.3000
   19.170    3.1771
   19.185    3.6862
   19.200    3.4755
   19.215    3.5984
   19.230    3.6159
   19.245    3.2473
   19.260    3.4229
   19.275    3.2473
   19.290    3.6335
   19.305    3.2824
   19.320    3.1596
   19.335    3.1771
   19.350    3.6159
   19.365    3.2824
   19.380    2.9665
   19.395    3.1771
   19.410    3.1069
   19.425    3.0718
   19.440    2.9665
   19.455    3.1947
   19.470    3.1596
   19.485    3.5106
   19.500    3.0016
   19.515    2.9665
   19.530    3.0016
   19.545    3.1596
   19.560    3.2649
   19.575    3.1771
   19.590    3.1245
   19.605    3.0016
   19.620    3.2122
   19.635    3.1069
   19.650    3.4931
   19.665    3.1245
   19.680    3.1069
   19.695    3.1947
   19.710    3.2122
   19.725    3.2122
   19.740    3.2473
   19.755    3.3702
   19.770    3.0016
   19.785    3.1069
   19.800    3.3000
   19.815    3.2473
   19.830    2.9840
   19.845    3.0367
   19.860    3.2122
   19.875    3.4229
   19.890    3.4931
   19.905    3.7037
   19.920    3.6686
   19.935    3.7564
   19.950    3.7739
   19.965    3.7915
   19.980    4.1601
   19.995    4.0197
   20.010    3.9494
   20.025    4.2127
   20.040    4.1601
   20.055    4.0021
   20.070    4.2127
   20.085    3.6510
   20.100    3.5808
   20.115    3.7037
   20.130    3.4931
   20.145    3.2473
   20.160    3.4580
   20.175    3.1771
   20.190    3.5457
   20.205    3.1420
   20.220    3.2122
   20.235    3.3175
   20.250    2.9489
   20.265    3.0191
   20.280    3.1420
   20.295    3.0191
   20.310    3.0718
   20.325    3.4580
   20.340    3.1069
   20.355    3.3000
   20.370    3.0542
   20.385    3.2298
   20.400    3.1245
   20.415    3.0367
   20.430    3.1947
   20.445    3.3877
   20.460    2.7909
   20.475    2.7909
   20.490    3.2298
   20.505    2.9314
   20.520    3.3702
   20.535    3.2473
   20.550    3.6862
   20.565    3.1947
   20.580    3.0016
   20.595    3.5282
   20.610    3.1069
   20.625    3.2473
   20.640    3.2824
   20.655    3.0718
   20.670    3.6335
   20.685    3.4404
   20.700    3.5457
   20.715    3.1245
   20.730    3.4053
   20.745    3.1771
   20.760    3.1245
   20.775    3.5282
   20.790    3.9846
   20.805    3.3877
   20.820    3.0016
   20.835    3.3351
   20.850    3.3175
   20.865    3.5106
   20.880    3.0893
   20.895    3.1069
   20.910    3.1245
   20.925    3.5282
   20.940    3.2473
   20.955    3.2122
   20.970    3.1069
   20.985    2.9138
   21.000    3.1947
   21.015    3.4229
   21.030    3.1596
   21.045    2.9314
   21.060    3.4053
   21.075    3.3526
   21.090    3.1771
   21.105    3.1947
   21.120    3.4755
   21.135    3.3702
   21.150    3.0542
   21.165    3.1420
   21.180    2.8787
   21.195    3.0893
   21.210    3.0542
   21.225    2.8085
   21.240    3.0367
   21.255    3.2649
   21.270    3.1771
   21.285    3.3175
   21.300    3.2473
   21.315    3.1947
   21.330    3.2824
   21.345    3.4931
   21.360    3.4931
   21.375    3.3175
   21.390    3.2473
   21.405    3.4229
   21.420    3.5106
   21.435    3.6686
   21.450    3.7388
   21.465    3.9846
   21.480    3.6159
   21.495    3.2824
   21.510    3.7739
   21.525    3.3175
   21.540    3.3175
   21.555    3.4053
   21.570    3.2122
   21.585    2.8963
   21.600    3.0542
   21.615    3.2649
   21.630    3.3351
   21.645    3.1947
   21.660    3.2649
   21.675    3.0016
   21.690    3.2473
   21.705    3.5984
   21.720    3.5282
   21.735    3.3351
   21.750    3.3000
   21.765    3.1947
   21.780    3.3526
   21.795    3.1771
   21.810    3.2649
   21.825    3.1596
   21.840    3.0718
   21.855    3.1420
   21.870    3.4404
   21.885    3.3175
   21.900    3.0542
   21.915    3.0016
   21.930    3.1596
   21.945    3.1771
   21.960    2.9840
   21.975    3.1771
   21.990    3.0542
   22.005    3.5633
   22.020    3.3526
   22.035    3.5457
   22.050    3.5282
   22.065    3.6510
   22.080    3.1420
   22.095    3.4229
   22.110    3.8792
   22.125    3.6862
   22.140    3.7213
   22.155    3.8266
   22.170    4.0548
   22.185    3.8968
   22.200    3.7388
   22.215    4.1425
   22.230    3.3702
   22.245    3.6862
   22.260    3.8617
   22.275    3.6510
   22.290    3.5106
   22.305    3.4053
   22.320    3.1420
   22.335    3.7037
   22.350    3.6510
   22.365    3.6862
   22.380    3.6335
   22.395    3.6862
   22.410    3.7388
   22.425    4.2478
   22.440    4.7042
   22.455    4.7218
   22.470    4.5463
   22.485    4.7744
   22.500    5.1080
   22.515    4.6867
   22.530    4.7218
   22.545    4.6340
   22.560    4.1952
   22.575    4.1952
   22.590    3.9670
   22.605    3.7037
   22.620    3.5633
   22.635    3.4053
   22.650    3.6510
   22.665    3.2824
   22.680    3.4755
   22.695    3.8968
   22.710    3.6159
   22.725    3.1420
   22.740    3.2298
   22.755    3.3175
   22.770    3.4404
   22.785    3.2649
   22.800    2.8787
   22.815    3.2122
   22.830    2.9840
   22.845    3.0542
   22.860    3.0191
   22.875    3.0191
   22.890    2.9314
   22.905    3.0718
   22.920    3.2298
   22.935    3.1947
   22.950    3.4053
   22.965    3.1245
   22.980    3.1947
   22.995    3.1069
   23.010    2.9840
   23.025    3.3175
   23.040    3.3526
   23.055    3.0367
   23.070    3.2649
   23.085    3.2122
   23.100    3.2473
   23.115    3.3351
   23.130    3.3000
   23.145    3.2649
   23.160    3.3877
   23.175    3.3351
   23.190    3.0893
   23.205    3.4053
   23.220    3.0718
   23.235    3.5633
   23.250    3.3877
   23.265    3.2824
   23.280    3.5106
   23.295    3.3000
   23.310    3.1069
   23.325    3.1596
   23.340    3.4229
   23.355    3.1596
   23.370    3.2649
   23.385    3.4931
   23.400    3.6686
   23.415    4.0548
   23.430    3.4580
   23.445    3.4755
   23.460    3.4931
   23.475    3.6510
   23.490    3.9143
   23.505    3.9494
   23.520    4.2654
   23.535    4.1250
   23.550    3.5808
   23.565    3.2649
   23.580    3.4755
   23.595    3.2824
   23.610    3.0367
   23.625    3.3000
   23.640    3.1771
   23.655    3.4229
   23.670    3.1596
   23.685    3.0016
   23.700    3.0893
   23.715    3.3000
   23.730    3.3000
   23.745    3.5808
   23.760    3.3000
   23.775    3.4229
   23.790    3.2473
   23.805    3.0893
   23.820    3.2824
   23.835    3.7037
   23.850    3.5808
   23.865    3.2824
   23.880    3.2649
   23.895    3.1420
   23.910    3.3175
   23.925    3.1069
   23.940    3.1245
   23.955    3.1245
   23.970    3.3526
   23.985    3.1420
   24.000    3.0893
   24.015    3.1420
   24.030    2.9665
   24.045    3.1245
   24.060    3.1947
   24.075    3.1420
   24.090    3.2473
   24.105    3.3526
   24.120    3.4404
   24.135    3.1420
   24.150    3.3175
   24.165    3.3000
   24.180    3.1947
   24.195    3.1947
   24.210    2.8612
   24.225    3.2122
   24.240    3.2298
   24.255    3.2122
   24.270    2.8436
   24.285    3.0893
   24.300    3.0718
   24.315    2.9138
   24.330    2.8436
   24.345    3.0893
   24.360    3.2298
   24.375    3.2122
   24.390    3.4053
   24.405    2.9489
   24.420    3.3000
   24.435    3.2824
   24.450    3.3526
   24.465    2.9840
   24.480    3.2473
   24.495    2.7909
   24.510    3.2649
   24.525    3.0893
   24.540    3.1947
   24.555    2.9314
   24.570    3.3526
   24.585    3.0893
   24.600    3.3877
   24.615    3.4931
   24.630    3.1771
   24.645    3.5282
   24.660    3.2649
   24.675    3.0367
   24.690    3.2824
   24.705    3.1947
   24.720    2.9314
   24.735    3.2122
   24.750    3.4053
   24.765    3.0542
   24.780    2.9314
   24.795    3.1245
   24.810    3.2824
   24.825    3.0893
   24.840    3.0718
   24.855    2.9665
   24.870    3.2824
   24.885    3.3351
   24.900    2.9665
   24.915    3.0542
   24.930    2.8787
   24.945    3.3000
   24.960    3.3702
   24.975    3.1245
   24.990    3.1069
   25.005    3.4404
   25.020    3.1420
   25.035    2.8436
   25.050    3.3175
   25.065    3.4931
   25.080    3.2473
   25.095    3.2824
   25.110    3.3000
   25.125    3.3175
   25.140    3.3351
   25.155    3.5808
   25.170    3.5808
   25.185    3.3351
   25.200    3.4053
   25.215    3.6335
   25.230    3.2649
   25.245    3.2298
   25.260    3.7037
   25.275    3.7213
   25.290    3.7388
   25.305    3.9670
   25.320    4.3005
   25.335    4.3181
   25.350    4.2127
   25.365    4.1952
   25.380    4.0197
   25.395    3.8968
   25.410    4.0899
   25.425    3.6335
   25.440    3.6686
   25.455    3.8090
   25.470    3.5984
   25.485    3.5106
   25.500    3.3000
   25.515    3.1420
   25.530    2.9840
   25.545    2.8787
   25.560    3.1069
   25.575    2.7032
   25.590    3.3877
   25.605    3.3000
   25.620    2.9489
   25.635    3.1069
   25.650    3.4755
   25.665    2.9314
   25.680    2.8963
   25.695    3.0016
   25.710    3.3351
   25.725    3.3526
   25.740    2.8963
   25.755    2.7734
   25.770    3.0367
   25.785    3.2298
   25.800    3.6335
   25.815    3.0367
   25.830    3.0893
   25.845    3.0016
   25.860    3.0893
   25.875    3.2298
   25.890    3.3000
   25.905    3.3702
   25.920    3.1245
   25.935    2.9665
   25.950    3.3877
   25.965    3.4580
   25.980    3.3702
   25.995    3.3175
   26.010    3.4404
   26.025    3.8617
   26.040    3.4229
   26.055    3.2824
   26.070    3.4931
   26.085    3.4053
   26.100    3.3526
   26.115    3.5808
   26.130    3.3351
   26.145    3.0542
   26.160    2.9489
   26.175    2.8260
   26.190    3.0542
   26.205    3.2298
   26.220    3.1245
   26.235    2.8436
   26.250    2.9489
   26.265    2.8963
   26.280    3.1420
   26.295    2.8963
   26.310    2.8085
   26.325    3.2122
   26.340    3.2122
   26.355    2.8787
   26.370    3.0016
   26.385    3.0367
   26.400    2.8436
   26.415    3.3351
   26.430    2.9665
   26.445    3.0016
   26.460    3.1420
   26.475    3.2824
   26.490    3.4931
   26.505    3.0367
   26.520    3.0542
   26.535    3.0191
   26.550    3.7388
   26.565    3.3526
   26.580    3.4580
   26.595    3.2824
   26.610    2.8085
   26.625    3.2298
   26.640    3.3526
   26.655    3.2473
   26.670    3.4053
   26.685    3.4755
   26.700    3.0016
   26.715    2.7383
   26.730    2.6856
   26.745    3.1245
   26.760    3.2473
   26.775    2.9840
   26.790    3.3351
   26.805    3.2824
   26.820    2.9138
   26.835    3.2824
   26.850    3.0367
   26.865    2.9489
   26.880    3.0016
   26.895    3.0893
   26.910    3.2473
   26.925    3.0367
   26.940    2.9665
   26.955    3.0542
   26.970    3.0016
   26.985    2.6154
   27.000    2.5979
   27.015    2.9314
   27.030    2.9314
   27.045    3.1069
   27.060    3.4053
   27.075    3.4229
   27.090    3.4229
   27.105    3.2649
   27.120    2.8963
   27.135    3.2122
   27.150    3.0893
   27.165    3.2473
   27.180    3.1596
   27.195    3.3702
   27.210    3.3000
   27.225    3.2122
   27.240    3.1947
   27.255    2.9665
   27.270    3.0893
   27.285    3.0367
   27.300    2.9840
   27.315    3.1771
   27.330    3.1420
   27.345    2.9314
   27.360    3.1947
   27.375    2.9314
   27.390    2.8787
   27.405    2.9665
   27.420    2.9665
   27.435    3.0718
   27.450    2.8436
   27.465    2.9665
   27.480    3.0016
   27.495    2.9840
   27.510    2.8963
   27.525    3.0016
   27.540    2.7909
   27.555    2.7558
   27.570    2.9314
   27.585    3.0893
   27.600    3.3175
   27.615    3.0367
   27.630    3.2298
   27.645    3.1596
   27.660    3.3526
   27.675    3.1596
   27.690    3.3702
   27.705    3.2122
   27.720    3.2649
   27.735    3.5808
   27.750    3.4053
   27.765    3.2649
   27.780    3.0367
   27.795    3.0893
   27.810    3.1245
   27.825    3.1947
   27.840    3.0016
   27.855    2.7909
   27.870    3.1069
   27.885    3.1771
   27.900    3.3000
   27.915    3.1596
   27.930    3.0718
   27.945    3.0893
   27.960    3.5457
   27.975    3.0367
   27.990    3.0367
   28.005    3.4580
   28.020    3.2473
   28.035    2.8260
   28.050    2.8963
   28.065    3.0893
   28.080    3.0367
   28.095    2.9489
   28.110    3.1947
   28.125    2.8085
   28.140    2.9314
   28.155    2.8787
   28.170    2.8963
   28.185    2.8963
   28.200    2.9138
   28.215    2.6681
   28.230    2.5452
   28.245    2.6154
   28.260    2.8436
   28.275    3.2298
   28.290    3.1245
   28.305    3.1771
   28.320    3.3526
   28.335    2.8085
   28.350    3.2824
   28.365    2.8787
   28.380    3.0542
   28.395    2.9840
   28.410    3.0016
   28.425    2.8260
   28.440    2.9840
   28.455    3.4229
   28.470    2.7734
   28.485    3.0542
   28.500    3.0542
   28.515    3.0191
   28.530    2.6154
   28.545    2.7383
   28.560    2.9314
   28.575    2.8612
   28.590    2.4574
   28.605    2.9138
   28.620    2.8787
   28.635    3.1245
   28.650    2.7558
   28.665    2.6856
   28.680    3.2649
   28.695    3.4229
   28.710    3.1596
   28.725    3.2649
   28.740    3.4931
   28.755    3.2649
   28.770    3.3351
   28.785    3.1771
   28.800    3.4229
   28.815    3.1069
   28.830    2.9314
   28.845    2.8963
   28.860    3.0016
   28.875    2.6330
   28.890    2.6330
   28.905    2.7032
   28.920    2.9489
   28.935    3.0718
   28.950    3.0542
   28.965    2.6154
   28.980    2.3872
   28.995    2.7909
   29.010    2.8612
   29.025    2.5628
   29.040    3.0367
   29.055    2.8787
   29.070    2.8612
   29.085    3.1596
   29.100    2.7734
   29.115    3.1069
   29.130    2.8085
   29.145    2.8436
   29.160    2.6330
   29.175    2.8085
   29.190    3.1420
   29.205    2.8963
   29.220    2.8436
   29.235    3.1596
   29.250    2.9138
   29.265    2.7734
   29.280    2.5979
   29.295    2.8612
   29.310    2.8963
   29.325    2.7734
   29.340    3.2122
   29.355    3.0718
   29.370    3.0893
   29.385    2.9138
   29.400    2.9314
   29.415    3.0367
   29.430    3.1947
   29.445    3.1947
   29.460    3.0893
   29.475    2.6154
   29.490    2.7558
   29.505    2.9665
   29.520    2.7558
   29.535    3.1771
   29.550    3.0191
   29.565    2.7558
   29.580    3.0718
   29.595    3.3000
   29.610    3.0191
   29.625    3.3351
   29.640    3.0718
   29.655    2.6330
   29.670    2.6505
   29.685    2.8260
   29.700    2.7909
   29.715    2.8436
   29.730    3.1069
   29.745    2.8963
   29.760    2.7383
   29.775    2.8436
   29.790    2.5803
   29.805    3.0191
   29.820    2.6330
   29.835    2.6330
   29.850    2.8787
   29.865    3.0016
   29.880    2.8612
   29.895    3.0016
   29.910    2.8963
   29.925    2.7909
   29.940    2.5803
   29.955    2.8260
   29.970    2.5628
   29.985    2.6330
   30.000    2.8612
   30.015    2.6856
   30.030    2.8963
   30.045    3.1771
   30.060    2.8612
   30.075    2.5452
   30.090    2.6154
   30.105    3.0016
   30.120    2.8085
   30.135    2.6154
   30.150    2.5803
   30.165    2.7207
   30.180    3.0191
   30.195    2.9314
   30.210    3.0367
   30.225    2.6154
   30.240    2.4048
   30.255    2.5276
   30.270    2.9665
   30.285    3.0191
   30.300    3.3877
   30.315    2.8085
   30.330    2.8612
   30.345    2.8436
   30.360    2.7207
   30.375    2.7207
   30.390    2.7032
   30.405    2.5803
   30.420    2.9314
   30.435    2.8085
   30.450    2.5803
   30.465    2.4750
   30.480    2.6154
   30.495    2.7909
   30.510    3.0016
   30.525    3.0016
   30.540    2.8963
   30.555    2.6154
   30.570    2.2819
   30.585    2.4925
   30.600    2.7207
   30.615    2.6330
   30.630    2.8787
   30.645    2.7734
   30.660    2.4574
   30.675    2.7558
   30.690    2.8436
   30.705    2.7734
   30.720    2.4750
   30.735    2.4574
   30.750    2.6154
   30.765    3.0542
   30.780    2.8436
   30.795    2.5276
   30.810    2.5979
   30.825    2.9840
   30.840    2.6856
   30.855    2.8612
   30.870    2.8787
   30.885    2.8436
   30.900    2.5101
   30.915    2.7558
   30.930    2.5979
   30.945    2.6856
   30.960    2.5452
   30.975    2.6154
   30.990    2.7207
   31.005    2.3872
   31.020    2.7207
   31.035    2.7032
   31.050    2.6154
   31.065    2.8787
   31.080    2.5101
   31.095    2.2292
   31.110    2.2995
   31.125    2.5452
   31.140    2.9489
   31.155    2.5628
   31.170    2.5452
   31.185    2.5803
   31.200    3.0016
   31.215    2.5979
   31.230    2.5979
   31.245    2.6505
   31.260    2.5452
   31.275    2.7032
   31.290    2.8260
   31.305    2.5979
   31.320    2.7558
   31.335    2.6505
   31.350    2.6330
   31.365    2.5452
   31.380    2.5452
   31.395    2.3170
   31.410    2.2643
   31.425    2.6505
   31.440    2.7032
   31.455    2.2292
   31.470    2.5979
   31.485    2.8260
   31.500    2.9138
   31.515    2.8260
   31.530    2.7032
   31.545    2.5452
   31.560    2.3872
   31.575    2.5803
   31.590    2.7734
   31.605    2.7909
   31.620    2.4750
   31.635    2.7909
   31.650    2.7558
   31.665    2.7909
   31.680    2.7909
   31.695    2.7909
   31.710    2.7734
   31.725    2.6505
   31.740    2.4574
   31.755    2.6856
   31.770    2.5803
   31.785    2.6330
   31.800    2.6154
   31.815    2.7383
   31.830    3.0893
   31.845    2.8787
   31.860    2.6681
   31.875    2.5803
   31.890    2.8612
   31.905    2.6154
   31.920    2.5979
   31.935    2.5628
   31.950    2.3170
   31.965    2.4048
   31.980    2.5803
   31.995    2.4399
   32.010    2.2819
   32.025    2.5276
   32.040    2.5979
   32.055    2.5979
   32.070    2.6154
   32.085    2.6681
   32.100    2.5803
   32.115    2.5101
   32.130    2.5276
   32.145    2.5276
   32.160    2.4574
   32.175    2.5276
   32.190    2.7558
   32.205    2.7558
   32.220    2.7207
   32.235    2.6505
   32.250    2.6330
   32.265    2.7909
   32.280    2.6681
   32.295    2.6154
   32.310    2.7032
   32.325    2.8963
   32.340    3.0542
   32.355    3.0016
   32.370    2.3697
   32.385    2.5803
   32.400    2.9840
   32.415    2.4574
   32.430    2.3346
   32.445    2.3170
   32.460    2.2995
   32.475    2.3170
   32.490    2.5979
   32.505    2.5452
   32.520    2.5101
   32.535    2.4574
   32.550    2.1941
   32.565    2.3521
   32.580    2.3170
   32.595    2.2643
   32.610    2.5276
   32.625    2.4925
   32.640    2.4925
   32.655    2.2995
   32.670    2.2643
   32.685    2.5276
   32.700    2.5628
   32.715    2.5101
   32.730    2.6154
   32.745    2.4574
   32.760    2.3170
   32.775    2.1064
   32.790    2.3872
   32.805    2.2995
   32.820    2.3697
   32.835    2.7032
   32.850    2.8085
   32.865    2.3521
   32.880    2.5276
   32.895    2.5276
   32.910    2.6681
   32.925    2.7032
   32.940    2.3697
   32.955    2.5452
   32.970    2.7207
   32.985    2.5979
   33.000    2.4574
   33.015    2.7032
   33.030    2.7734
   33.045    2.4399
   33.060    2.5628
   33.075    2.8963
   33.090    2.8260
   33.105    2.5979
   33.120    2.5101
   33.135    2.5803
   33.150    2.5452
   33.165    2.5452
   33.180    2.5452
   33.195    2.3697
   33.210    2.3872
   33.225    2.3170
   33.240    2.6154
   33.255    2.8260
   33.270    2.4574
   33.285    2.8085
   33.300    2.7383
   33.315    2.5452
   33.330    2.4750
   33.345    2.2643
   33.360    2.2819
   33.375    2.7909
   33.390    2.4925
   33.405    2.3170
   33.420    2.3521
   33.435    2.4223
   33.450    2.6856
   33.465    2.4399
   33.480    2.5803
   33.495    2.3346
   33.510    2.3170
   33.525    2.1766
   33.540    2.2643
   33.555    2.2995
   33.570    2.2643
   33.585    2.2117
   33.600    2.7207
   33.615    2.2468
   33.630    2.3697
   33.645    2.3346
   33.660    2.4750
   33.675    2.2819
   33.690    2.2117
   33.705    2.5452
   33.720    2.3697
   33.735    2.3521
   33.750    2.4223
   33.765    2.5276
   33.780    2.5803
   33.795    2.7558
   33.810    2.4925
   33.825    2.7909
   33.840    3.0016
   33.855    2.9138
   33.870    2.5276
   33.885    2.6330
   33.900    2.4574
   33.915    2.6154
   33.930    2.4750
   33.945    2.1766
   33.960    2.3521
   33.975    2.3346
   33.990    2.3872
   34.005    2.2468
   34.020    2.5628
   34.035    2.5628
   34.050    2.2995
   34.065    2.2995
   34.080    2.2468
   34.095    2.5979
   34.110    2.3697
   34.125    2.3170
   34.140    2.2995
   34.155    2.5452
   34.170    2.7032
   34.185    2.5101
   34.200    2.4574
   34.215    2.4048
   34.230    2.5101
   34.245    2.4048
   34.260    2.2292
   34.275    2.2643
   34.290    2.4750
   34.305    2.1941
   34.320    2.2643
   34.335    2.3346
   34.350    2.5803
   34.365    2.3346
   34.380    2.5979
   34.395    2.5628
   34.410    2.5101
   34.425    2.2643
   34.440    2.2995
   34.455    2.4223
   34.470    2.1941
   34.485    2.5276
   34.500    2.1941
   34.515    2.2292
   34.530    2.3697
   34.545    2.2117
   34.560    2.2468
   34.575    1.9835
   34.590    2.3170
   34.605    2.2819
   34.620    2.1064
   34.635    2.4750
   34.650    2.2643
   34.665    2.3521
   34.680    2.3872
   34.695    2.4048
   34.710    2.2117
   34.725    2.1766
   34.740    2.4750
   34.755    2.2819
   34.770    2.2468
   34.785    2.2643
   34.800    2.2468
   34.815    2.4048
   34.830    2.1766
   34.845    2.0537
   34.860    2.0888
   34.875    2.4750
   34.890    2.2995
   34.905    2.4223
   34.920    2.3346
   34.935    2.4048
   34.950    2.3872
   34.965    2.2117
   34.980    2.4223
   34.995    2.1941
   35.010    2.4750
   35.025    2.4223
   35.040    2.2643
   35.055    2.1415
   35.070    2.2643
   35.085    2.6330
   35.100    2.4925
   35.115    2.3170
   35.130    2.0362
   35.145    2.2117
   35.160    2.3697
   35.175    2.4048
   35.190    2.5276
   35.205    2.5803
   35.220    2.4223
   35.235    2.3521
   35.250    2.1941
   35.265    2.0362
   35.280    2.0713
   35.295    2.2995
   35.310    2.2995
   35.325    2.3872
   35.340    2.2468
   35.355    2.3170
   35.370    1.9835
   35.385    2.4048
   35.400    2.2292
   35.415    2.3170
   35.430    2.3872
   35.445    2.2819
   35.460    2.4750
   35.475    2.2468
   35.490    2.1239
   35.505    2.1239
   35.520    2.1766
   35.535    1.9308
   35.550    2.2117
   35.565    2.2117
   35.580    2.5101
   35.595    2.4223
   35.610    2.1766
   35.625    2.3346
   35.640    1.8255
   35.655    2.0713
   35.670    2.1064
   35.685    2.0537
   35.700    2.5101
   35.715    2.2995
   35.730    2.0888
   35.745    2.0362
   35.760    1.9133
   35.775    2.2117
   35.790    2.4048
   35.805    2.1590
   35.820    1.8782
   35.835    2.0537
   35.850    2.0888
   35.865    2.2643
   35.880    1.9835
   35.895    2.0713
   35.910    2.1941
   35.925    2.2292
   35.940    2.4048
   35.955    2.3346
   35.970    2.4925
   35.985    2.2995
   36.000    2.2117
   36.015    2.4048
   36.030    2.5101
   36.045    2.0888
   36.060    2.0713
   36.075    2.4925
   36.090    2.1239
   36.105    2.0888
   36.120    2.2117
   36.135    2.1766
   36.150    2.2292
   36.165    1.8080
   36.180    1.9835
   36.195    2.0713
   36.210    2.0713
   36.225    2.1064
   36.240    2.1941
   36.255    2.2468
   36.270    2.2468
   36.285    2.1064
   36.300    2.1239
   36.315    2.1064
   36.330    2.0011
   36.345    2.5276
   36.360    2.5628
   36.375    2.2117
   36.390    2.1590
   36.405    2.1064
   36.420    2.1239
   36.435    2.1766
   36.450    2.0888
   36.465    1.9659
   36.480    1.8957
   36.495    2.1064
   36.510    2.0713
   36.525    2.0537
   36.540    2.1064
   36.555    2.3697
   36.570    1.9484
   36.585    2.2819
   36.600    2.0713
   36.615    2.0011
   36.630    2.0713
   36.645    2.1064
   36.660    1.9133
   36.675    2.2995
   36.690    2.2292
   36.705    2.0537
   36.720    2.2468
   36.735    2.2819
   36.750    1.8431
   36.765    1.8080
   36.780    2.1064
   36.795    2.0888
   36.810    1.9133
   36.825    2.0011
   36.840    2.0362
   36.855    2.0537
   36.870    2.0888
   36.885    2.0888
   36.900    2.1064
   36.915    1.9133
   36.930    2.0713
   36.945    2.2292
   36.960    2.0537
   36.975    2.1415
   36.990    1.9659
   37.005    1.9659
   37.020    2.2995
   37.035    2.1766
   37.050    1.8431
   37.065    1.9308
   37.080    1.9308
   37.095    2.1415
   37.110    2.2468
   37.125    2.0186
   37.140    2.1941
   37.155    2.0362
   37.170    2.0537
   37.185    2.2468
   37.200    2.2292
   37.215    2.0011
   37.230    2.4399
   37.245    2.4223
   37.260    2.3521
   37.275    2.2117
   37.290    2.0362
   37.305    2.3170
   37.320    2.1415
   37.335    2.4750
   37.350    2.2819
   37.365    2.1766
   37.380    2.1415
   37.395    2.2468
   37.410    2.4399
   37.425    2.1766
   37.440    2.2117
   37.455    2.1941
   37.470    1.8782
   37.485    2.0011
   37.500    2.5979
   37.515    1.9133
   37.530    1.9308
   37.545    2.0362
   37.560    1.9659
   37.575    2.0537
   37.590    2.2117
   37.605    2.0713
   37.620    2.1064
   37.635    2.0713
   37.650    2.2292
   37.665    1.9133
   37.680    2.0186
   37.695    1.9835
   37.710    2.2819
   37.725    2.2643
   37.740    2.2643
   37.755    2.1064
   37.770    2.2819
   37.785    2.0537
   37.800    2.0011
   37.815    1.7553
   37.830    1.8255
   37.845    1.8431
   37.860    2.0537
   37.875    2.0011
   37.890    1.9484
   37.905    2.1415
   37.920    1.8782
   37.935    1.8606
   37.950    2.1590
   37.965    1.7378
   37.980    1.7904
   37.995    1.7027
   38.010    1.9835
   38.025    2.1590
   38.040    2.0186
   38.055    1.9659
   38.070    2.0362
   38.085    1.9659
   38.100    1.8606
   38.115    2.1590
   38.130    2.1239
   38.145    2.1239
   38.160    2.2643
   38.175    2.2819
   38.190    2.0362
   38.205    2.0713
   38.220    1.9659
   38.235    2.0713
   38.250    2.1239
   38.265    2.1590
   38.280    1.9133
   38.295    2.0537
   38.310    1.8957
   38.325    1.9308
   38.340    1.8782
   38.355    1.8957
   38.370    1.8782
   38.385    2.0713
   38.400    1.8782
   38.415    2.1590
   38.430    1.9484
   38.445    1.8957
   38.460    2.0186
   38.475    1.9835
   38.490    1.9659
   38.505    1.9835
   38.520    1.9308
   38.535    2.1941
   38.550    1.8080
   38.565    2.0362
   38.580    1.9133
   38.595    2.0362
   38.610    2.1064
   38.625    2.1941
   38.640    1.8431
   38.655    1.9484
   38.670    2.2819
   38.685    2.3697
   38.700    2.0888
   38.715    2.0362
   38.730    2.0186
   38.745    1.9659
   38.760    2.3346
   38.775    2.1415
   38.790    2.1590
   38.805    2.2819
   38.820    2.0888
   38.835    2.1239
   38.850    1.7904
   38.865    2.1415
   38.880    2.0888
   38.895    1.8606
   38.910    1.8255
   38.925    1.7027
   38.940    1.9133
   38.955    2.1590
   38.970    2.0362
   38.985    1.8782
   39.000    2.1064
   39.015    2.1766
   39.030    2.1415
   39.045    1.9484
   39.060    1.8606
   39.075    1.7202
   39.090    1.9133
   39.105    2.0362
   39.120    2.0888
   39.135    2.3170
   39.150    1.9835
   39.165    2.0888
   39.180    2.1239
   39.195    2.1941
   39.210    2.2117
   39.225    1.9835
   39.240    2.3346
   39.255    1.6324
   39.270    1.6851
   39.285    2.1941
   39.300    2.0888
   39.315    2.1239
   39.330    1.9484
   39.345    2.1941
   39.360    2.1239
   39.375    1.8782
   39.390    1.8957
   39.405    2.0186
   39.420    1.7904
   39.435    2.2643
   39.450    2.1064
   39.465    2.0888
   39.480    1.9308
   39.495    2.1415
   39.510    2.1239
   39.525    1.9659
   39.540    2.1239
   39.555    1.9308
   39.570    1.7904
   39.585    1.7904
   39.600    1.9484
   39.615    2.0186
   39.630    1.9133
   39.645    1.8782
   39.660    2.1239
   39.675    2.1766
   39.690    2.0537
   39.705    2.0011
   39.720    2.0186
   39.735    1.7027
   39.750    2.0186
   39.765    2.0888
   39.780    2.1415
   39.795    2.1766
   39.810    2.0362
   39.825    1.8957
   39.840    2.1941
   39.855    2.2292
   39.870    2.2643
   39.885    2.3872
   39.900    2.0011
   39.915    1.9133
   39.930    2.1239
   39.945    2.0362
   39.960    1.7027
   39.975    1.9659
   39.990    2.0362
