    1.500   20.8531
    1.515   20.9268
    1.530   20.7794
    1.545   19.9263
    1.560   19.6735
    1.575   20.0527
    1.590   19.1048
    1.605   18.7994
    1.620   18.6940
    1.635   19.1890
    1.650   18.7678
    1.665   19.0311
    1.680   18.8731
    1.695   18.2517
    1.710   18.2412
    1.725   18.2306
    1.740   18.2517
    1.755   17.8726
    1.770   16.9879
    1.785   17.9042
    1.800   17.2933
    1.815   17.1353
    1.830   18.4939
    1.845   17.3565
    1.860   17.3249
    1.875   17.4408
    1.890   17.3354
    1.905   17.0616
    1.920   17.1459
    1.935   17.3565
    1.950   17.3038
    1.965   16.9458
    1.980   17.2933
    1.995   16.3665
    2.010   16.6825
    2.025   17.4724
    2.040   17.2407
    2.055   17.1037
    2.070   17.9042
    2.085   17.0721
    2.100   16.4613
    2.115   16.8826
    2.130   17.4302
    2.145   17.2091
    2.160   16.7141
    2.175   17.1353
    2.190   17.6619
    2.205   17.5671
    2.220   17.7567
    2.235   17.7778
    2.250   17.9042
    2.265   18.2412
    2.280   17.8726
    2.295   18.5677
    2.310   18.6625
    2.325   18.8415
    2.340   18.5571
    2.355   19.0205
    2.370   19.0521
    2.385   19.4313
    2.400   18.8415
    2.415   20.3581
    2.430   20.1053
    2.445   19.9368
    2.460   20.0316
    2.475   20.5582
    2.490   20.8215
    2.505   20.4950
    2.520   20.5161
    2.535   21.6114
    2.550   22.4750
    2.565   22.0537
    2.580   22.4329
    2.595   22.5276
    2.610   23.2754
    2.625   23.0121
    2.640   23.6440
    2.655   24.7393
    2.670   25.6345
    2.685   24.9816
    2.700   24.8447
    2.715   25.4239
    2.730   25.3818
    2.745   26.2349
    2.760   27.7620
    2.775   28.9415
    2.790   29.2680
    2.805   29.1943
    2.820   29.2891
    2.835   30.5424
    2.850   31.3955
    2.865   31.9431
    2.880   33.0174
    2.895   34.0811
    2.910   33.7651
    2.925   34.8499
    2.940   36.1453
    2.955   37.2828
    2.970   38.4518
    2.985   39.4102
    3.000   40.2001
    3.015   41.3481
    3.030   42.6962
    3.045   44.3181
    3.060   44.2970
    3.075   46.5508
    3.090   48.7414
    3.105   51.0163
    3.120   51.9642
    3.135   54.3128
    3.150   55.6293
    3.165   57.1669
    3.180   59.9263
    3.195   62.2644
    3.210   65.6346
    3.225   67.3512
    3.240   69.3628
    3.255   74.0179
    3.270   77.1143
    3.285   80.9163
    3.300   85.7293
    3.315   91.3428
    3.330   96.5034
    3.345  102.1801
    3.360  108.4781
    3.375  115.1659
    3.390  125.0553
    3.405  131.8062
    3.420  137.9884
    3.435  140.3897
    3.450  142.7804
    3.465  140.2001
    3.480  128.9731
    3.495  116.7457
    3.510  102.2117
    3.525   88.8573
    3.540   74.6604
    3.555   63.2333
    3.570   53.9968
    3.585   48.9626
    3.600   46.3612
    3.615   43.1490
    3.630   41.9484
    3.645   40.9163
    3.660   39.7683
    3.675   39.0943
    3.690   38.3992
    3.705   39.2733
    3.720   39.3470
    3.735   40.4002
    3.750   40.9268
    3.765   42.1274
    3.780   42.6856
    3.795   44.5919
    3.810   45.6767
    3.825   46.6877
    3.840   48.4992
    3.855   49.6788
    3.870   49.8789
    3.885   52.0590
    3.900   53.5861
    3.915   54.5024
    3.930   54.9552
    3.945   57.5777
    3.960   58.9258
    3.975   58.3781
    3.990   58.9363
    4.005   60.7478
    4.020   61.2322
    4.035   61.8115
    4.050   60.8741
    4.065   61.2217
    4.080   60.4213
    4.095   59.2417
    4.110   58.4939
    4.125   55.8505
    4.140   54.4181
    4.155   51.7536
    4.170   49.2996
    4.185   47.1090
    4.200   44.8657
    4.215   42.0326
    4.230   40.2528
    4.245   36.8194
    4.260   32.7120
    4.275   30.7741
    4.290   28.4781
    4.305   24.9921
    4.320   23.6756
    4.335   21.3481
    4.350   20.1053
    4.365   18.6625
    4.380   16.2823
    4.395   15.7978
    4.410   14.9974
    4.425   13.7441
    4.440   12.9542
    4.455   12.9121
    4.470   12.1432
    4.485   11.5640
    4.500   11.3849
    4.515   11.2164
    4.530   10.5424
    4.545   10.0895
    4.560    9.7209
    4.575    8.9521
    4.590    8.7520
    4.605    8.6045
    4.620    8.7520
    4.635    8.3939
    4.650    8.5308
    4.665    8.3728
    4.680    8.1411
    4.695    7.9516
    4.710    8.2570
    4.725    8.4044
    4.740    8.4360
    4.755    7.6145
    4.770    7.0879
    4.785    7.7093
    4.800    7.5197
    4.815    7.5197
    4.830    7.2775
    4.845    7.4355
    4.860    7.2354
    4.875    6.8246
    4.890    7.1301
    4.905    7.0248
    4.920    7.0353
    4.935    7.4671
    4.950    7.1511
    4.965    7.0774
    4.980    7.2880
    4.995    7.3618
    5.010    7.1933
    5.025    6.9826
    5.040    7.0353
    5.055    6.9510
    5.070    7.1511
    5.085    6.7615
    5.100    6.7615
    5.115    6.6561
    5.130    6.7088
    5.145    6.9405
    5.160    7.1195
    5.175    7.1090
    5.190    6.7088
    5.205    6.4034
    5.220    6.7930
    5.235    6.7825
    5.250    6.8246
    5.265    6.6456
    5.280    6.6456
    5.295    6.5929
    5.310    6.3928
    5.325    6.1401
    5.340    6.4455
    5.355    6.9616
    5.370    6.8457
    5.385    6.4771
    5.400    6.6245
    5.415    6.6983
    5.430    6.3086
    5.445    6.5192
    5.460    6.5192
    5.475    6.1927
    5.490    5.9926
    5.505    6.3928
    5.520    6.0348
    5.535    5.8241
    5.550    6.0874
    5.565    5.8031
    5.580    6.2138
    5.595    5.8978
    5.610    5.7925
    5.625    5.8241
    5.640    5.8873
    5.655    6.2349
    5.670    6.2454
    5.685    6.4034
    5.700    6.0032
    5.715    5.9821
    5.730    5.9505
    5.745    5.7609
    5.760    5.7820
    5.775    5.6135
    5.790    5.9084
    5.805    5.7504
    5.820    5.8136
    5.835    5.7188
    5.850    5.8452
    5.865    5.6872
    5.880    6.2559
    5.895    5.8031
    5.910    5.9505
    5.925    6.0558
    5.940    6.3718
    5.955    5.9821
    5.970    6.1611
    5.985    6.1506
    6.000    5.8662
    6.015    5.7293
    6.030    6.1190
    6.045    6.4034
    6.060    6.2033
    6.075    5.9294
    6.090    6.4350
    6.105    6.2138
    6.120    6.1927
    6.135    6.1717
    6.150    6.2138
    6.165    6.2033
    6.180    6.2033
    6.195    6.2033
    6.210    6.4666
    6.225    6.2981
    6.240    6.2559
    6.255    6.3086
    6.270    6.0032
    6.285    6.3718
    6.300    6.4771
    6.315    6.2981
    6.330    6.2033
    6.345    6.6140
    6.360    6.7404
    6.375    6.6351
    6.390    6.7720
    6.405    7.2670
    6.420    6.9826
    6.435    7.1195
    6.450    7.0353
    6.465    7.2143
    6.480    7.0353
    6.495    7.4566
    6.510    7.3934
    6.525    7.5724
    6.540    8.0463
    6.555    7.5935
    6.570    7.7830
    6.585    8.0779
    6.600    8.0779
    6.615    8.2570
    6.630    8.6045
    6.645    8.9205
    6.660    8.8468
    6.675    8.7625
    6.690    9.4892
    6.705    9.8473
    6.720   10.1001
    6.735   10.4476
    6.750   10.9953
    6.765   11.1216
    6.780   11.9431
    6.795   12.5118
    6.810   12.7857
    6.825   13.1859
    6.840   14.5234
    6.855   15.5134
    6.870   15.3870
    6.885   16.3981
    6.900   18.2517
    6.915   19.4207
    6.930   19.2417
    6.945   19.5471
    6.960   18.1464
    6.975   17.5461
    6.990   16.8931
    7.005   15.5029
    7.020   13.5966
    7.035   12.3960
    7.050   10.6582
    7.065    9.9315
    7.080    8.9521
    7.095    8.5413
    7.110    8.2043
    7.125    8.0463
    7.140    7.7514
    7.155    7.8357
    7.170    6.9932
    7.185    7.1617
    7.200    7.0353
    7.215    7.0142
    7.230    6.6140
    7.245    6.7509
    7.260    7.1195
    7.275    6.7509
    7.290    7.0563
    7.305    6.5403
    7.320    6.6351
    7.335    6.4560
    7.350    6.6456
    7.365    6.8668
    7.380    6.9089
    7.395    6.5719
    7.410    6.5087
    7.425    6.8773
    7.440    6.6561
    7.455    6.9616
    7.470    6.5824
    7.485    6.8457
    7.500    6.5403
    7.515    6.5508
    7.530    6.8562
    7.545    7.0353
    7.560    7.3091
    7.575    7.3934
    7.590    6.7509
    7.605    6.7615
    7.620    7.1722
    7.635    6.9510
    7.650    7.2670
    7.665    7.4882
    7.680    7.4671
    7.695    7.6883
    7.710    7.6777
    7.725    7.5303
    7.740    7.7725
    7.755    7.6777
    7.770    7.3723
    7.785    8.1517
    7.800    8.0147
    7.815    7.7830
    7.830    8.8046
    7.845    8.7625
    7.860    8.4255
    7.875    8.6888
    7.890    8.7204
    7.905    8.5940
    7.920    8.9205
    7.935    9.1311
    7.950    9.3734
    7.965    9.1206
    7.980    9.2470
    7.995    9.3418
    8.010    9.5629
    8.025    9.7630
    8.040   10.1106
    8.055    9.8789
    8.070    9.9421
    8.085   10.1211
    8.100   10.2264
    8.115   10.4792
    8.130   10.1738
    8.145    9.7104
    8.160   10.3949
    8.175   10.4265
    8.190   10.7214
    8.205   10.3844
    8.220    9.8894
    8.235   10.4476
    8.250    9.9947
    8.265   10.4265
    8.280   10.1527
    8.295   10.2580
    8.310   10.1843
    8.325   10.0158
    8.340    9.6577
    8.355   10.3318
    8.370    9.9737
    8.385    9.7104
    8.400   10.1211
    8.415   10.3212
    8.430   10.0790
    8.445    9.4365
    8.460    9.3734
    8.475    9.2891
    8.490    9.4471
    8.505    8.4992
    8.520    8.8046
    8.535    8.9626
    8.550    8.5835
    8.565    8.6783
    8.580    8.1833
    8.595    8.0569
    8.610    8.0569
    8.625    7.8041
    8.640    7.8989
    8.655    7.8989
    8.670    7.5935
    8.685    7.5408
    8.700    7.4039
    8.715    6.8246
    8.730    7.0037
    8.745    6.7615
    8.760    6.8457
    8.775    6.7825
    8.790    6.5824
    8.805    6.7615
    8.820    6.0979
    8.835    6.5087
    8.850    6.7193
    8.865    6.2559
    8.880    6.5824
    8.895    6.7930
    8.910    6.5403
    8.925    6.2033
    8.940    6.6351
    8.955    6.1822
    8.970    6.1717
    8.985    6.0558
    9.000    5.3923
    9.015    5.9400
    9.030    5.9716
    9.045    5.9610
    9.060    5.7820
    9.075    5.6240
    9.090    6.2559
    9.105    6.5824
    9.120    6.3928
    9.135    6.2665
    9.150    5.9400
    9.165    6.0453
    9.180    6.2243
    9.195    5.7820
    9.210    5.8452
    9.225    6.2349
    9.240    5.8873
    9.255    5.9400
    9.270    6.1085
    9.285    5.7188
    9.300    5.7504
    9.315    5.5819
    9.330    5.9294
    9.345    5.9926
    9.360    5.6135
    9.375    5.6977
    9.390    5.8241
    9.405    6.0242
    9.420    5.7399
    9.435    5.7399
    9.450    5.5187
    9.465    5.6345
    9.480    6.0664
    9.495    5.7083
    9.510    5.6135
    9.525    5.6977
    9.540    5.9926
    9.555    5.7715
    9.570    5.5924
    9.585    5.3818
    9.600    5.5819
    9.615    5.7715
    9.630    5.8978
    9.645    5.8031
    9.660    5.6451
    9.675    6.0348
    9.690    5.4450
    9.705    5.6556
    9.720    5.8241
    9.735    5.6556
    9.750    5.9821
    9.765    6.1085
    9.780    5.8241
    9.795    5.9505
    9.810    5.5398
    9.825    5.8978
    9.840    5.8662
    9.855    5.8557
    9.870    5.5819
    9.885    5.7399
    9.900    5.9084
    9.915    5.9084
    9.930    5.7820
    9.945    5.8557
    9.960    5.7925
    9.975    5.6556
    9.990    5.6977
   10.005    5.9084
   10.020    6.0453
   10.035    5.5819
   10.050    5.6767
   10.065    5.8768
   10.080    5.8978
   10.095    5.9189
   10.110    5.9400
   10.125    5.4871
   10.140    5.6977
   10.155    6.2243
   10.170    5.8031
   10.185    5.7925
   10.200    5.8241
   10.215    5.8978
   10.230    6.0874
   10.245    6.3402
   10.260    5.8031
   10.275    6.1927
   10.290    6.0137
   10.305    6.2138
   10.320    6.5508
   10.335    6.2770
   10.350    6.4139
   10.365    6.7720
   10.380    6.2875
   10.395    6.5192
   10.410    6.4350
   10.425    6.6245
   10.440    6.8878
   10.455    6.9194
   10.470    6.5298
   10.485    6.4666
   10.500    6.7825
   10.515    6.6351
   10.530    6.1822
   10.545    6.1295
   10.560    6.0453
   10.575    6.1822
   10.590    6.2138
   10.605    5.8031
   10.620    5.8241
   10.635    5.7504
   10.650    6.1295
   10.665    5.9926
   10.680    5.7293
   10.695    6.0032
   10.710    6.2454
   10.725    5.9610
   10.740    5.7188
   10.755    5.7188
   10.770    6.0348
   10.785    5.8136
   10.800    5.7083
   10.815    5.9821
   10.830    6.3086
   10.845    5.6872
   10.860    5.9294
   10.875    6.0664
   10.890    6.2665
   10.905    5.9610
   10.920    5.7609
   10.935    5.9084
   10.950    5.8136
   10.965    5.7504
   10.980    5.9610
   10.995    5.7293
   11.010    5.7399
   11.025    5.7715
   11.040    5.8241
   11.055    5.8768
   11.070    5.6556
   11.085    5.5819
   11.100    5.6345
   11.115    5.8873
   11.130    5.4344
   11.145    5.8978
   11.160    5.6135
   11.175    5.5819
   11.190    5.7925
   11.205    5.3818
   11.220    5.6451
   11.235    5.9610
   11.250    5.8241
   11.265    5.7820
   11.280    5.8557
   11.295    5.7188
   11.310    5.8031
   11.325    5.8452
   11.340    5.9610
   11.355    5.8136
   11.370    5.5187
   11.385    5.8557
   11.400    6.0348
   11.415    5.9716
   11.430    6.2875
   11.445    5.7715
   11.460    5.4344
   11.475    5.4660
   11.490    5.8662
   11.505    5.9716
   11.520    5.6345
   11.535    5.8662
   11.550    5.7188
   11.565    6.0032
   11.580    5.6767
   11.595    5.4239
   11.610    5.7188
   11.625    5.9610
   11.640    6.0137
   11.655    5.6135
   11.670    5.5187
   11.685    5.7715
   11.700    5.6872
   11.715    5.9610
   11.730    5.9084
   11.745    5.8241
   11.760    5.7399
   11.775    6.0032
   11.790    6.0137
   11.805    5.7715
   11.820    5.9294
   11.835    6.1190
   11.850    6.5192
   11.865    6.1401
   11.880    6.1506
   11.895    5.8768
   11.910    6.3086
   11.925    6.0242
   11.940    5.7609
   11.955    6.1822
   11.970    6.1085
   11.985    6.7825
   12.000    6.0453
   12.015    5.9610
   12.030    6.1295
   12.045    5.9294
   12.060    6.2981
   12.075    6.2243
   12.090    6.2559
   12.105    5.9716
   12.120    5.9926
   12.135    6.3296
   12.150    6.4244
   12.165    6.4455
   12.180    6.2033
   12.195    5.9189
   12.210    6.2349
   12.225    6.7088
   12.240    6.5508
   12.255    6.4876
   12.270    6.4771
   12.285    6.5298
   12.300    6.1822
   12.315    6.5192
   12.330    6.5192
   12.345    6.4666
   12.360    6.1927
   12.375    6.3191
   12.390    6.2875
   12.405    6.5403
   12.420    6.4034
   12.435    6.6772
   12.450    6.4982
   12.465    6.3402
   12.480    6.6772
   12.495    6.4244
   12.510    6.7720
   12.525    6.7193
   12.540    6.3191
   12.555    6.0664
   12.570    6.5087
   12.585    6.2981
   12.600    6.4034
   12.615    6.6351
   12.630    6.3086
   12.645    6.3612
   12.660    6.3718
   12.675    6.2138
   12.690    6.2981
   12.705    6.1611
   12.720    6.4139
   12.735    6.4244
   12.750    6.0979
   12.765    6.1717
   12.780    6.4455
   12.795    6.3296
   12.810    6.2559
   12.825    6.0348
   12.840    6.2665
   12.855    6.3928
   12.870    6.2665
   12.885    6.3612
   12.900    6.1822
   12.915    5.9821
   12.930    6.0348
   12.945    6.2665
   12.960    6.1717
   12.975    6.1401
   12.990    5.7188
   13.005    5.6661
   13.020    6.1401
   13.035    6.1717
   13.050    5.8347
   13.065    5.8347
   13.080    6.1190
   13.095    6.3086
   13.110    6.0558
   13.125    6.1822
   13.140    5.9821
   13.155    6.0664
   13.170    5.8347
   13.185    5.7715
   13.200    5.7188
   13.215    5.5924
   13.230    5.8452
   13.245    5.7399
   13.260    5.9610
   13.275    5.8662
   13.290    5.8031
   13.305    5.6451
   13.320    6.0242
   13.335    5.7820
   13.350    5.9084
   13.365    6.0874
   13.380    6.5087
   13.395    6.0242
   13.410    6.1401
   13.425    5.9505
   13.440    5.7083
   13.455    5.7083
   13.470    6.1611
   13.485    5.9716
   13.500    5.9189
   13.515    6.0979
   13.530    6.0348
   13.545    5.9610
   13.560    5.7715
   13.575    5.8873
   13.590    5.5187
   13.605    5.9505
   13.620    5.8557
   13.635    6.2981
   13.650    6.0453
   13.665    5.8768
   13.680    6.1401
   13.695    6.1506
   13.710    6.0032
   13.725    5.9716
   13.740    5.7820
   13.755    5.7609
   13.770    5.5608
   13.785    5.8768
   13.800    5.9505
   13.815    6.0558
   13.830    5.6556
   13.845    5.6451
   13.860    5.6451
   13.875    5.7820
   13.890    5.8768
   13.905    6.1611
   13.920    5.7083
   13.935    5.8136
   13.950    5.7083
   13.965    5.8557
   13.980    5.8662
   13.995    6.1085
   14.010    5.6872
   14.025    5.6661
   14.040    6.0769
   14.055    5.7504
   14.070    5.7399
   14.085    5.6451
   14.100    5.9294
   14.115    5.6240
   14.130    5.9716
   14.145    5.8557
   14.160    5.9505
   14.175    5.1080
   14.190    5.7715
   14.205    5.4134
   14.220    5.2449
   14.235    5.5082
   14.250    5.0764
   14.265    5.6029
   14.280    5.5503
   14.295    5.5819
   14.310    5.5714
   14.325    5.8031
   14.340    5.3397
   14.355    5.3712
   14.370    5.3607
   14.385    5.3081
   14.400    5.4028
   14.415    5.6556
   14.430    5.5082
   14.445    5.5924
   14.460    5.7399
   14.475    5.7399
   14.490    5.5503
   14.505    5.4871
   14.520    5.3712
   14.535    5.4766
   14.550    5.5608
   14.565    5.3291
   14.580    5.6135
   14.595    5.3607
   14.610    5.2027
   14.625    5.4660
   14.640    5.5714
   14.655    5.4450
   14.670    5.4871
   14.685    5.0869
   14.700    5.3923
   14.715    5.1395
   14.730    5.5187
   14.745    5.1290
   14.760    5.5714
   14.775    5.6451
   14.790    5.3397
   14.805    5.5714
   14.820    5.3081
   14.835    5.1501
   14.850    5.5082
   14.865    5.4450
   14.880    5.4450
   14.895    5.3923
   14.910    5.4028
   14.925    5.4134
   14.940    5.2975
   14.955    5.6240
   14.970    5.3712
   14.985    5.7925
   15.000    5.4555
   15.015    5.2975
   15.030    5.2765
   15.045    5.6029
   15.060    5.4134
   15.075    5.4450
   15.090    5.5924
   15.105    5.4871
   15.120    5.5503
   15.135    5.4450
   15.150    5.4134
   15.165    5.6767
   15.180    5.2027
   15.195    5.6135
   15.210    5.2343
   15.225    5.2765
   15.240    5.5187
   15.255    5.6556
   15.270    5.5187
   15.285    5.5082
   15.300    5.3818
   15.315    5.1606
   15.330    5.4028
   15.345    5.3818
   15.360    5.7504
   15.375    5.4871
   15.390    5.3081
   15.405    5.3712
   15.420    5.3186
   15.435    5.6029
   15.450    5.5608
   15.465    5.4766
   15.480    5.6977
   15.495    5.6767
   15.510    5.5608
   15.525    5.5819
   15.540    5.6240
   15.555    5.6345
   15.570    5.4450
   15.585    5.7820
   15.600    5.6451
   15.615    5.4871
   15.630    5.8768
   15.645    5.6977
   15.660    5.5924
   15.675    5.5924
   15.690    5.6977
   15.705    5.5082
   15.720    5.7188
   15.735    5.9821
   15.750    5.6661
   15.765    5.6345
   15.780    5.7715
   15.795    5.7504
   15.810    5.8241
   15.825    5.6556
   15.840    5.8347
   15.855    5.8136
   15.870    5.3081
   15.885    5.4871
   15.900    5.6345
   15.915    5.3291
   15.930    5.5187
   15.945    5.7188
   15.960    5.6556
   15.975    5.8241
   15.990    5.6661
   16.005    5.7609
   16.020    5.4766
   16.035    5.8241
   16.050    5.7609
   16.065    5.5292
   16.080    5.7293
   16.095    5.3818
   16.110    5.4976
   16.125    5.4871
   16.140    5.8452
   16.155    5.7609
   16.170    5.6556
   16.185    5.7399
   16.200    5.8136
   16.215    5.5398
   16.230    5.6451
   16.245    5.4976
   16.260    5.8136
   16.275    5.7925
   16.290    5.6872
   16.305    5.4028
   16.320    5.8978
   16.335    5.7188
   16.350    5.5082
   16.365    5.4976
   16.380    5.5187
   16.395    5.6240
   16.410    4.8868
   16.425    5.3818
   16.440    5.2870
   16.455    5.4450
   16.470    5.1290
   16.485    4.9605
   16.500    5.6556
   16.515    5.5292
   16.530    5.5714
   16.545    5.5819
   16.560    5.5398
   16.575    5.5187
   16.590    5.3397
   16.605    5.5292
   16.620    5.3818
   16.635    5.4344
   16.650    5.2870
   16.665    4.9184
   16.680    5.2343
   16.695    5.6029
   16.710    5.2975
   16.725    4.9605
   16.740    5.6767
   16.755    5.1606
   16.770    5.3818
   16.785    5.4766
   16.800    5.2554
   16.815    5.3818
   16.830    5.5819
   16.845    5.6451
   16.860    5.4028
   16.875    5.3081
   16.890    5.4766
   16.905    5.2870
   16.920    5.3397
   16.935    5.3818
   16.950    5.4344
   16.965    4.9500
   16.980    5.2554
   16.995    5.4555
   17.010    5.5714
   17.025    5.4450
   17.040    5.0553
   17.055    5.2027
   17.070    5.2027
   17.085    5.6345
   17.100    5.6240
   17.115    5.2449
   17.130    5.1922
   17.145    5.2238
   17.160    5.6345
   17.175    5.2765
   17.190    5.5608
   17.205    5.7188
   17.220    5.2554
   17.235    5.6556
   17.250    5.3291
   17.265    5.4766
   17.280    5.4660
   17.295    5.2554
   17.310    5.5924
   17.325    5.6135
   17.340    5.5608
   17.355    5.3923
   17.370    5.4239
   17.385    5.8136
   17.400    5.8978
   17.415    5.3712
   17.430    5.3291
   17.445    5.2554
   17.460    5.6451
   17.475    5.5082
   17.490    5.2975
   17.505    5.4660
   17.520    5.3291
   17.535    5.1711
   17.550    5.4239
   17.565    5.2870
   17.580    5.5924
   17.595    5.6661
   17.610    5.4028
   17.625    5.2343
   17.640    5.4766
   17.655    5.6977
   17.670    5.8136
   17.685    5.6451
   17.700    5.6661
   17.715    5.5187
   17.730    5.2133
   17.745    5.3818
   17.760    5.6767
   17.775    5.4660
   17.790    5.7504
   17.805    5.6451
   17.820    5.2238
   17.835    5.2870
   17.850    5.4766
   17.865    5.6451
   17.880    5.8347
   17.895    5.3397
   17.910    5.4239
   17.925    5.4976
   17.940    5.7820
   17.955    5.5924
   17.970    5.6451
   17.985    5.6556
   18.000    5.8031
   18.015    5.4871
   18.030    5.6451
   18.045    5.4134
   18.060    5.4660
   18.075    5.6345
   18.090    5.7293
   18.105    5.9189
   18.120    5.9294
   18.135    5.5398
   18.150    5.7188
   18.165    5.5503
   18.180    5.4134
   18.195    5.6661
   18.210    5.7925
   18.225    5.3081
   18.240    5.4766
   18.255    5.8136
   18.270    5.4028
   18.285    5.7293
   18.300    5.8347
   18.315    5.5398
   18.330    5.6451
   18.345    5.6977
   18.360    5.4660
   18.375    5.7188
   18.390    5.6767
   18.405    5.8978
   18.420    5.6451
   18.435    5.4766
   18.450    5.7609
   18.465    5.4028
   18.480    5.2975
   18.495    5.4976
   18.510    5.8557
   18.525    5.8662
   18.540    5.7609
   18.555    5.7609
   18.570    5.4766
   18.585    5.5608
   18.600    5.2659
   18.615    5.6767
   18.630    5.6240
   18.645    5.5924
   18.660    5.3923
   18.675    5.6977
   18.690    5.5398
   18.705    5.3291
   18.720    5.3923
   18.735    5.7293
   18.750    5.5187
   18.765    5.5714
   18.780    5.2343
   18.795    5.4239
   18.810    5.7399
   18.825    5.4344
   18.840    5.6767
   18.855    5.6767
   18.870    5.5398
   18.885    5.5714
   18.900    5.6977
   18.915    5.1711
   18.930    5.2765
   18.945    5.4766
   18.960    5.4976
   18.975    5.2449
   18.990    5.4134
   19.005    5.8452
   19.020    5.6029
   19.035    5.1185
   19.050    5.6135
   19.065    5.6661
   19.080    5.2765
   19.095    5.8978
   19.110    5.7609
   19.125    5.5608
   19.140    5.5924
   19.155    5.8241
   19.170    5.9926
   19.185    5.8136
   19.200    5.4450
   19.215    5.8241
   19.230    5.5608
   19.245    6.0032
   19.260    5.9400
   19.275    5.7293
   19.290    5.7820
   19.305    6.0348
   19.320    5.9400
   19.335    5.3607
   19.350    5.6240
   19.365    5.8768
   19.380    6.0453
   19.395    5.7820
   19.410    5.8662
   19.425    5.8347
   19.440    5.9400
   19.455    6.1190
   19.470    5.9084
   19.485    5.8873
   19.500    6.3191
   19.515    6.2243
   19.530    5.7504
   19.545    5.9716
   19.560    5.8873
   19.575    6.0664
   19.590    5.8557
   19.605    5.8347
   19.620    5.7399
   19.635    6.1190
   19.650    6.0032
   19.665    6.4982
   19.680    6.5508
   19.695    6.5824
   19.710    5.8031
   19.725    5.6977
   19.740    6.1190
   19.755    5.9189
   19.770    6.4982
   19.785    5.9821
   19.800    6.1611
   19.815    6.2454
   19.830    6.2770
   19.845    6.4876
   19.860    6.4560
   19.875    6.1401
   19.890    6.2665
   19.905    5.9400
   19.920    6.1927
   19.935    6.2559
   19.950    6.3296
   19.965    6.2138
   19.980    6.3612
   19.995    6.2875
   20.010    6.4666
   20.025    6.1506
   20.040    5.9084
   20.055    6.1190
   20.070    6.4139
   20.085    6.1717
   20.100    6.3402
   20.115    6.2033
   20.130    6.3823
   20.145    6.2981
   20.160    6.7720
   20.175    6.0979
   20.190    6.2665
   20.205    6.1401
   20.220    6.4139
   20.235    6.0348
   20.250    6.0032
   20.265    6.5929
   20.280    6.5508
   20.295    6.3191
   20.310    6.2243
   20.325    6.2033
   20.340    6.3823
   20.355    6.3823
   20.370    6.2349
   20.385    6.1927
   20.400    6.1822
   20.415    6.1085
   20.430    6.3507
   20.445    6.1822
   20.460    6.3086
   20.475    6.0348
   20.490    5.9821
   20.505    6.0453
   20.520    5.9189
   20.535    6.0769
   20.550    6.4034
   20.565    6.1506
   20.580    6.2770
   20.595    6.1085
   20.610    6.4139
   20.625    6.1085
   20.640    6.1717
   20.655    5.9610
   20.670    6.0032
   20.685    6.0979
   20.700    6.4034
   20.715    6.3823
   20.730    5.9189
   20.745    6.3402
   20.760    6.1611
   20.775    6.1717
   20.790    6.0137
   20.805    6.0664
   20.820    6.0032
   20.835    6.0558
   20.850    6.0032
   20.865    6.2138
   20.880    6.5192
   20.895    6.6245
   20.910    6.3718
   20.925    6.2454
   20.940    6.3191
   20.955    6.4876
   20.970    6.1611
   20.985    6.4771
   21.000    6.2033
   21.015    6.3928
   21.030    6.1401
   21.045    6.1295
   21.060    6.3612
   21.075    6.0558
   21.090    6.4244
   21.105    6.4560
   21.120    6.6667
   21.135    6.7615
   21.150    6.5824
   21.165    6.2243
   21.180    6.4455
   21.195    6.0137
   21.210    5.8978
   21.225    5.7609
   21.240    6.0137
   21.255    6.0137
   21.270    6.3507
   21.285    6.5403
   21.300    6.0874
   21.315    6.2033
   21.330    6.3296
   21.345    6.1295
   21.360    6.1611
   21.375    6.3612
   21.390    6.0979
   21.405    6.1085
   21.420    5.9821
   21.435    6.1295
   21.450    6.3823
   21.465    5.8873
   21.480    6.0558
   21.495    6.1190
   21.510    6.4560
   21.525    6.5087
   21.540    6.2033
   21.555    5.9400
   21.570    6.3191
   21.585    6.1717
   21.600    6.1085
   21.615    6.0874
   21.630    6.2770
   21.645    6.5087
   21.660    6.5508
   21.675    6.0137
   21.690    6.0137
   21.705    6.4139
   21.720    6.3823
   21.735    6.1717
   21.750    6.3612
   21.765    6.1611
   21.780    6.2349
   21.795    6.1506
   21.810    6.3928
   21.825    6.4666
   21.840    6.1611
   21.855    6.3928
   21.870    6.3612
   21.885    6.7825
   21.900    6.1506
   21.915    6.0874
   21.930    5.9821
   21.945    6.4350
   21.960    6.2243
   21.975    6.1822
   21.990    6.1927
   22.005    6.0979
   22.020    5.9926
   22.035    6.1822
   22.050    5.6767
   22.065    6.1085
   22.080    6.2243
   22.095    6.0769
   22.110    5.9189
   22.125    6.2454
   22.140    6.5298
   22.155    6.2665
   22.170    6.3402
   22.185    6.2243
   22.200    6.1085
   22.215    6.1717
   22.230    5.9294
   22.245    6.3718
   22.260    6.0664
   22.275    6.3296
   22.290    6.1927
   22.305    6.2981
   22.320    6.1295
   22.335    6.4455
   22.350    6.1717
   22.365    6.4560
   22.380    5.9610
   22.395    5.9505
   22.410    6.1085
   22.425    5.9084
   22.440    6.1085
   22.455    5.9716
   22.470    5.9926
   22.485    6.0769
   22.500    6.2349
   22.515    6.0558
   22.530    6.2349
   22.545    6.1295
   22.560    5.8873
   22.575    6.3718
   22.590    6.2349
   22.605    5.6767
   22.620    6.6035
   22.635    6.2665
   22.650    5.7188
   22.665    6.2243
   22.680    6.2665
   22.695    6.0453
   22.710    6.1611
   22.725    6.3191
   22.740    6.0137
   22.755    5.8241
   22.770    6.4666
   22.785    6.7615
   22.800    6.2349
   22.815    5.8873
   22.830    5.9716
   22.845    6.2349
   22.860    6.1295
   22.875    6.1506
   22.890    6.2349
   22.905    6.1927
   22.920    6.2875
   22.935    6.1611
   22.950    5.5608
   22.965    6.0453
   22.980    6.4560
   22.995    6.4034
   23.010    6.1717
   23.025    6.0032
   23.040    6.2665
   23.055    5.9821
   23.070    5.8031
   23.085    5.8452
   23.100    6.0137
   23.115    6.0769
   23.130    5.8557
   23.145    5.7820
   23.160    5.9716
   23.175    6.2559
   23.190    6.2033
   23.205    6.0558
   23.220    6.0558
   23.235    6.4455
   23.250    6.2665
   23.265    5.8557
   23.280    5.9926
   23.295    6.0453
   23.310    6.0242
   23.325    6.2875
   23.340    5.8662
   23.355    5.9189
   23.370    5.7715
   23.385    5.8347
   23.400    5.9610
   23.415    6.1190
   23.430    6.0242
   23.445    5.7925
   23.460    6.0242
   23.475    5.8662
   23.490    6.0348
   23.505    5.9716
   23.520    5.8241
   23.535    5.7399
   23.550    6.1401
   23.565    6.0769
   23.580    6.0979
   23.595    6.2138
   23.610    5.7820
   23.625    6.0558
   23.640    6.0453
   23.655    5.8452
   23.670    5.5398
   23.685    5.8241
   23.700    5.7504
   23.715    6.1506
   23.730    5.7715
   23.745    5.6977
   23.760    5.2870
   23.775    5.6135
   23.790    5.8978
   23.805    5.9189
   23.820    6.0242
   23.835    5.9084
   23.850    5.7715
   23.865    5.6872
   23.880    5.4871
   23.895    5.7820
   23.910    5.8452
   23.925    5.9926
   23.940    6.0664
   23.955    5.9821
   23.970    5.7188
   23.985    5.7715
   24.000    5.5398
   24.015    6.0242
   24.030    6.0453
   24.045    5.9400
   24.060    5.9189
   24.075    6.2033
   24.090    6.1506
   24.105    6.2138
   24.120    5.8557
   24.135    5.9189
   24.150    5.8241
   24.165    5.8241
   24.180    6.0874
   24.195    5.9926
   24.210    5.9505
   24.225    5.7715
   24.240    5.8241
   24.255    5.7188
   24.270    5.8873
   24.285    5.9294
   24.300    5.9610
   24.315    5.9189
   24.330    5.8136
   24.345    5.6661
   24.360    6.1085
   24.375    6.2138
   24.390    6.0348
   24.405    5.6872
   24.420    5.4766
   24.435    5.8873
   24.450    6.1295
   24.465    6.0032
   24.480    6.2665
   24.495    6.0874
   24.510    6.0348
   24.525    6.1190
   24.540    5.6661
   24.555    5.7925
   24.570    6.1717
   24.585    5.6977
   24.600    5.8768
   24.615    6.0032
   24.630    5.9610
   24.645    6.2138
   24.660    5.8978
   24.675    6.0242
   24.690    5.7820
   24.705    6.3402
   24.720    5.4976
   24.735    5.5608
   24.750    5.6977
   24.765    5.5819
   24.780    5.6872
   24.795    5.6556
   24.810    5.7293
   24.825    5.7504
   24.840    6.1506
   24.855    5.8241
   24.870    5.8347
   24.885    5.5503
   24.900    5.5503
   24.915    5.6240
   24.930    5.5608
   24.945    5.6872
   24.960    5.8347
   24.975    5.5292
   24.990    5.4871
   25.005    6.1927
   25.020    6.0137
   25.035    5.5398
   25.050    5.4028
   25.065    5.6240
   25.080    5.3607
   25.095    5.5608
   25.110    5.7925
   25.125    5.9926
   25.140    5.6556
   25.155    5.6135
   25.170    5.6977
   25.185    5.8662
   25.200    5.8241
   25.215    6.1927
   25.230    5.8031
   25.245    5.3923
   25.260    5.3502
   25.275    5.3607
   25.290    5.5187
   25.305    5.8557
   25.320    5.6345
   25.335    5.4344
   25.350    5.4450
   25.365    5.4871
   25.380    5.6135
   25.395    5.6029
   25.410    5.4450
   25.425    5.4028
   25.440    5.7188
   25.455    5.6661
   25.470    5.5292
   25.485    5.5292
   25.500    5.4555
   25.515    5.3397
   25.530    5.2343
   25.545    5.1290
   25.560    5.6029
   25.575    5.6240
   25.590    5.3712
   25.605    5.7925
   25.620    5.6345
   25.635    5.9610
   25.650    5.5082
   25.665    4.9500
   25.680    5.7188
   25.695    5.6977
   25.710    5.6767
   25.725    5.4660
   25.740    5.5503
   25.755    5.5503
   25.770    5.3607
   25.785    5.4555
   25.800    5.4028
   25.815    5.3607
   25.830    5.2554
   25.845    5.1922
   25.860    5.3607
   25.875    5.6345
   25.890    5.5924
   25.905    5.3923
   25.920    5.3291
   25.935    5.4660
   25.950    5.5819
   25.965    5.6872
   25.980    5.4766
   25.995    5.9716
   26.010    5.7715
   26.025    5.4976
   26.040    5.6767
   26.055    5.6556
   26.070    5.5292
   26.085    5.6135
   26.100    5.6451
   26.115    5.5398
   26.130    5.6451
   26.145    5.4134
   26.160    5.6029
   26.175    5.5398
   26.190    5.2659
   26.205    5.5187
   26.220    5.6029
   26.235    5.3818
   26.250    5.7820
   26.265    5.2870
   26.280    5.2554
   26.295    5.6240
   26.310    5.4028
   26.325    5.5819
   26.340    5.3186
   26.355    5.5082
   26.370    5.6345
   26.385    5.6345
   26.400    5.1606
   26.415    5.5924
   26.430    5.2765
   26.445    5.3818
   26.460    5.3607
   26.475    5.6556
   26.490    5.4976
   26.505    5.4134
   26.520    5.5503
   26.535    5.3923
   26.550    5.2975
   26.565    5.6767
   26.580    5.7083
   26.595    5.5819
   26.610    5.7399
   26.625    5.6661
   26.640    5.1185
   26.655    5.2133
   26.670    5.1501
   26.685    5.1711
   26.700    5.2975
   26.715    5.4871
   26.730    5.1711
   26.745    5.1395
   26.760    5.3607
   26.775    5.3818
   26.790    5.4871
   26.805    5.4555
   26.820    5.4871
   26.835    5.2554
   26.850    5.3291
   26.865    5.3081
   26.880    5.2343
   26.895    5.2027
   26.910    5.3818
   26.925    5.4976
   26.940    5.5292
   26.955    5.0658
   26.970    5.3291
   26.985    5.1922
   27.000    5.3186
   27.015    5.5292
   27.030    5.1922
   27.045    5.4555
   27.060    5.4028
   27.075    5.2765
   27.090    4.9710
   27.105    5.1395
   27.120    5.2449
   27.135    5.4555
   27.150    5.5292
   27.165    5.2975
   27.180    5.2659
   27.195    5.2975
   27.210    5.1395
   27.225    5.5187
   27.240    5.0658
   27.255    5.1185
   27.270    5.2343
   27.285    5.2027
   27.300    5.5292
   27.315    5.5608
   27.330    5.3291
   27.345    5.4660
   27.360    5.2554
   27.375    5.3607
   27.390    5.2975
   27.405    5.2975
   27.420    5.3397
   27.435    5.2133
   27.450    5.6661
   27.465    5.5924
   27.480    5.3818
   27.495    4.9078
   27.510    5.0237
   27.525    5.3081
   27.540    5.4766
   27.555    5.3818
   27.570    5.1501
   27.585    5.2975
   27.600    5.2659
   27.615    5.2975
   27.630    5.4134
   27.645    5.4766
   27.660    5.4134
   27.675    5.3081
   27.690    5.2449
   27.705    5.3397
   27.720    5.3607
   27.735    5.1395
   27.750    5.2343
   27.765    5.1395
   27.780    5.1817
   27.795    5.0448
   27.810    5.2027
   27.825    5.0869
   27.840    5.3186
   27.855    5.2975
   27.870    4.9289
   27.885    5.2765
   27.900    5.2238
   27.915    5.0658
   27.930    5.1080
   27.945    5.0553
   27.960    5.1711
   27.975    5.3712
   27.990    5.3712
   28.005    5.2554
   28.020    5.4450
   28.035    5.3291
   28.050    5.2027
   28.065    5.0869
   28.080    5.1501
   28.095    5.0764
   28.110    5.0448
   28.125    5.0658
   28.140    5.2449
   28.155    5.3818
   28.170    5.4976
   28.185    5.5292
   28.200    5.6135
   28.215    5.5292
   28.230    5.3712
   28.245    5.2870
   28.260    5.4028
   28.275    5.4766
   28.290    5.0553
   28.305    5.0764
   28.320    4.8552
   28.335    5.1501
   28.350    5.2343
   28.365    5.1606
   28.380    5.5608
   28.395    5.4028
   28.410    5.1817
   28.425    5.2027
   28.440    4.8447
   28.455    5.3818
   28.470    5.4555
   28.485    5.5187
   28.500    5.0237
   28.515    5.2343
   28.530    4.8447
   28.545    5.0974
   28.560    4.8868
   28.575    5.2554
   28.590    5.2343
   28.605    5.0026
   28.620    4.7604
   28.635    4.9816
   28.650    5.0764
   28.665    4.9816
   28.680    4.8025
   28.695    5.3607
   28.710    4.9816
   28.725    5.1711
   28.740    5.3923
   28.755    5.5292
   28.770    5.4028
   28.785    5.1711
   28.800    4.9816
   28.815    5.0553
   28.830    4.9184
   28.845    5.4028
   28.860    5.1185
   28.875    4.9078
   28.890    4.9500
   28.905    5.0553
   28.920    5.3081
   28.935    4.8657
   28.950    5.1606
   28.965    5.2449
   28.980    5.1290
   28.995    5.1290
   29.010    5.1185
   29.025    5.2449
   29.040    5.1185
   29.055    5.1185
   29.070    5.3291
   29.085    4.9394
   29.100    4.5392
   29.115    4.9816
   29.130    5.0448
   29.145    5.0974
   29.160    5.0658
   29.175    5.0448
   29.190    5.0553
   29.205    4.8552
   29.220    4.8657
   29.235    5.0132
   29.250    4.9921
   29.265    4.8025
   29.280    4.6551
   29.295    4.8868
   29.310    4.9078
   29.325    4.8763
   29.340    4.8552
   29.355    4.8657
   29.370    4.8341
   29.385    5.0132
   29.400    4.9078
   29.415    5.0553
   29.430    5.4134
   29.445    4.9710
   29.460    5.1080
   29.475    4.8447
   29.490    5.0553
   29.505    4.6551
   29.520    4.7920
   29.535    5.1606
   29.550    4.9605
   29.565    5.1185
   29.580    5.1395
   29.595    5.2870
   29.610    5.2133
   29.625    5.0237
   29.640    5.1395
   29.655    4.8552
   29.670    4.9289
   29.685    5.0869
   29.700    5.0026
   29.715    4.8657
   29.730    5.2449
   29.745    5.2343
   29.760    4.7604
   29.775    5.0342
   29.790    5.0237
   29.805    5.0237
   29.820    4.9394
   29.835    5.1501
   29.850    4.8763
   29.865    4.8868
   29.880    4.8868
   29.895    5.0764
   29.910    5.0974
   29.925    4.9921
   29.940    5.0448
   29.955    5.1817
   29.970    5.0132
   29.985    5.1290
   30.000    4.9921
   30.015    5.0237
   30.030    4.9184
   30.045    5.0026
   30.060    5.0448
   30.075    4.9710
   30.090    4.9289
   30.105    4.6972
   30.120    4.7288
   30.135    4.9184
   30.150    4.9078
   30.165    4.7499
   30.180    4.7815
   30.195    4.9394
   30.210    4.6445
   30.225    5.0974
   30.240    4.8025
   30.255    5.0026
   30.270    5.1185
   30.285    5.0764
   30.300    5.2870
   30.315    5.0553
   30.330    4.9605
   30.345    4.6445
   30.360    4.6761
   30.375    4.8763
   30.390    4.6235
   30.405    5.0237
   30.420    4.8552
   30.435    4.8341
   30.450    4.6867
   30.465    4.7499
   30.480    4.7183
   30.495    4.5814
   30.510    4.3707
   30.525    4.9184
   30.540    4.8868
   30.555    4.6024
   30.570    4.4655
   30.585    4.5603
   30.600    4.8341
   30.615    4.4655
   30.630    4.6867
   30.645    4.9184
   30.660    4.6867
   30.675    4.5392
   30.690    4.9184
   30.705    4.7499
   30.720    4.8657
   30.735    4.9078
   30.750    4.7499
   30.765    4.7815
   30.780    4.9184
   30.795    4.8236
   30.810    4.9710
   30.825    4.9605
   30.840    4.9078
   30.855    4.8236
   30.870    5.0869
   30.885    4.7709
   30.900    4.4971
   30.915    4.5814
   30.930    4.9078
   30.945    4.7393
   30.960    4.8868
   30.975    5.0132
   30.990    5.0869
   31.005    4.8131
   31.020    4.8341
   31.035    4.9289
   31.050    4.5814
   31.065    4.8236
   31.080    4.8236
   31.095    4.6867
   31.110    4.9078
   31.125    4.6656
   31.140    4.7709
   31.155    4.8868
   31.170    4.8447
   31.185    4.8447
   31.200    4.6761
   31.215    4.8763
   31.230    4.9078
   31.245    4.8447
   31.260    4.6867
   31.275    4.4760
   31.290    4.9816
   31.305    5.1080
   31.320    4.7393
   31.335    4.6130
   31.350    4.6024
   31.365    4.5498
   31.380    4.6340
   31.395    4.8868
   31.410    4.5814
   31.425    5.1185
   31.440    4.6024
   31.455    4.9184
   31.470    5.0869
   31.485    5.0658
   31.500    4.8973
   31.515    4.4760
   31.530    4.5392
   31.545    4.8973
   31.560    4.6867
   31.575    4.6656
   31.590    4.9078
   31.605    4.8341
   31.620    4.9816
   31.635    4.7499
   31.650    4.7920
   31.665    4.8552
   31.680    4.6340
   31.695    5.0237
   31.710    5.1606
   31.725    5.1711
   31.740    4.9184
   31.755    4.9394
   31.770    4.7920
   31.785    5.0553
   31.800    4.7920
   31.815    4.9816
   31.830    5.0342
   31.845    4.9816
   31.860    4.7709
   31.875    4.8868
   31.890    4.7920
   31.905    4.6445
   31.920    4.6551
   31.935    4.6235
   31.950    4.6761
   31.965    4.5498
   31.980    4.8973
   31.995    4.9710
   32.010    4.6867
   32.025    4.8868
   32.040    4.8552
   32.055    4.4550
   32.070    4.9816
   32.085    4.8552
   32.100    4.8341
   32.115    4.6867
   32.130    4.5814
   32.145    4.5498
   32.160    4.6761
   32.175    4.4655
   32.190    4.6130
   32.205    4.4444
   32.220    4.5182
   32.235    4.4550
   32.250    4.5498
   32.265    4.7393
   32.280    4.6972
   32.295    4.4971
   32.310    4.4550
   32.325    4.8236
   32.340    4.8025
   32.355    4.5392
   32.370    4.4866
   32.385    4.4866
   32.400    4.4339
   32.415    4.8763
   32.430    4.8025
   32.445    4.6656
   32.460    4.4866
   32.475    4.7288
   32.490    4.5603
   32.505    4.5708
   32.520    4.7393
   32.535    4.8552
   32.550    4.5603
   32.565    4.7604
   32.580    4.3813
   32.595    4.3286
   32.610    4.6761
   32.625    4.6445
   32.640    4.2654
   32.655    4.6024
   32.670    4.7288
   32.685    4.5814
   32.700    4.3813
   32.715    4.7288
   32.730    4.8763
   32.745    4.4971
   32.760    4.4655
   32.775    4.6130
   32.790    4.6972
   32.805    4.4655
   32.820    4.4339
   32.835    4.2233
   32.850    4.2549
   32.865    4.4023
   32.880    4.4760
   32.895    4.4971
   32.910    4.4760
   32.925    4.5708
   32.940    4.5182
   32.955    4.7077
   32.970    4.7604
   32.985    4.5708
   33.000    4.4971
   33.015    4.1496
   33.030    4.7393
   33.045    4.4655
   33.060    4.5919
   33.075    4.7604
   33.090    4.3918
   33.105    4.5392
   33.120    4.7077
   33.135    4.4128
   33.150    4.3707
   33.165    4.6024
   33.180    4.2338
   33.195    4.6445
   33.210    4.5708
   33.225    4.5603
   33.240    4.6024
   33.255    4.6761
   33.270    4.5182
   33.285    4.8131
   33.300    4.4866
   33.315    4.3813
   33.330    4.4023
   33.345    4.4234
   33.360    4.5182
   33.375    4.4971
   33.390    4.3707
   33.405    4.4655
   33.420    4.4339
   33.435    4.2865
   33.450    4.5392
   33.465    4.5498
   33.480    4.5392
   33.495    4.6235
   33.510    4.3075
   33.525    4.5392
   33.540    4.2233
   33.555    4.4128
   33.570    4.6445
   33.585    4.5919
   33.600    4.4234
   33.615    4.5603
   33.630    4.1180
   33.645    4.2970
   33.660    4.2443
   33.675    4.2865
   33.690    4.6024
   33.705    4.4339
   33.720    4.0548
   33.735    4.4128
   33.750    4.3181
   33.765    4.2759
   33.780    4.4866
   33.795    4.4128
   33.810    4.2233
   33.825    4.7288
   33.840    4.5708
   33.855    4.2549
   33.870    4.2022
   33.885    4.4023
   33.900    4.3497
   33.915    4.4128
   33.930    4.5076
   33.945    4.3391
   33.960    4.2338
   33.975    4.1180
   33.990    4.0864
   34.005    4.4655
   34.020    4.4128
   34.035    4.1601
   34.050    4.7183
   34.065    4.5919
   34.080    4.3813
   34.095    4.6235
   34.110    4.6024
   34.125    4.1811
   34.140    4.4444
   34.155    4.6867
   34.170    4.4971
   34.185    4.1601
   34.200    4.0758
   34.215    4.4234
   34.230    4.5182
   34.245    4.0232
   34.260    4.3497
   34.275    4.2970
   34.290    4.3391
   34.305    4.2338
   34.320    3.9916
   34.335    4.2443
   34.350    4.4234
   34.365    4.0548
   34.380    4.1390
   34.395    4.2127
   34.410    4.5708
   34.425    4.2654
   34.440    4.1917
   34.455    4.4234
   34.470    4.1706
   34.485    4.2022
   34.500    4.1074
   34.515    4.5287
   34.530    4.2338
   34.545    4.1811
   34.560    4.4550
   34.575    4.3813
   34.590    4.2654
   34.605    4.2759
   34.620    4.6130
   34.635    4.4444
   34.650    4.5708
   34.665    4.1496
   34.680    4.2127
   34.695    4.3391
   34.710    4.3391
   34.725    4.1285
   34.740    4.5603
   34.755    4.1285
   34.770    3.9600
   34.785    4.3181
   34.800    4.3918
   34.815    4.2865
   34.830    4.3286
   34.845    3.9705
   34.860    4.3602
   34.875    4.4760
   34.890    4.3497
   34.905    4.2338
   34.920    4.1074
   34.935    4.3813
   34.950    4.3286
   34.965    4.2759
   34.980    4.0442
   34.995    4.4023
   35.010    4.2970
   35.025    4.2443
   35.040    4.3707
   35.055    4.4234
   35.070    4.2443
   35.085    4.2127
   35.100    4.5498
   35.115    4.4339
   35.130    4.6551
   35.145    4.2865
   35.160    3.9916
   35.175    4.1074
   35.190    3.9284
   35.205    4.1180
   35.220    4.4339
   35.235    4.2338
   35.250    4.4971
   35.265    4.2865
   35.280    4.0653
   35.295    4.1601
   35.310    4.4655
   35.325    4.5603
   35.340    4.4655
   35.355    4.4655
   35.370    4.5182
   35.385    4.1074
   35.400    4.2759
   35.415    4.1496
   35.430    4.1917
   35.445    4.1390
   35.460    4.0442
   35.475    4.2233
   35.490    4.2127
   35.505    4.0758
   35.520    4.4023
   35.535    4.2233
   35.550    4.0758
   35.565    4.1917
   35.580    4.1074
   35.595    3.9073
   35.610    4.1917
   35.625    3.9389
   35.640    4.1601
   35.655    4.3181
   35.670    4.0337
   35.685    3.9600
   35.700    4.2654
   35.715    4.2022
   35.730    4.2022
   35.745    4.1706
   35.760    4.0548
   35.775    4.0442
   35.790    4.3391
   35.805    4.2233
   35.820    3.9705
   35.835    3.9600
   35.850    4.2443
   35.865    3.9494
   35.880    4.3286
   35.895    4.2127
   35.910    4.3918
   35.925    4.1811
   35.940    4.6235
   35.955    4.1706
   35.970    4.1180
   35.985    3.9389
   36.000    4.1706
   36.015    4.2549
   36.030    3.7283
   36.045    4.1601
   36.060    4.3497
   36.075    4.2759
   36.090    4.2233
   36.105    4.0969
   36.120    4.0442
   36.135    4.0548
   36.150    4.4444
   36.165    3.9284
   36.180    4.2127
   36.195    3.8757
   36.210    3.7072
   36.225    3.9705
   36.240    3.8125
   36.255    3.8336
   36.270    4.1601
   36.285    4.0548
   36.300    4.2338
   36.315    4.2865
   36.330    4.3075
   36.345    4.2127
   36.360    4.2233
   36.375    4.0337
   36.390    3.8863
   36.405    4.0021
   36.420    3.8020
   36.435    4.0758
   36.450    4.0548
   36.465    3.9916
   36.480    3.6967
   36.495    4.1074
   36.510    4.1496
   36.525    4.0548
   36.540    3.9494
   36.555    3.8125
   36.570    3.8336
   36.585    3.8863
   36.600    3.9284
   36.615    3.7493
   36.630    3.8336
   36.645    3.8336
   36.660    4.0442
   36.675    4.1074
   36.690    4.0126
   36.705    3.8757
   36.720    3.7809
   36.735    4.1390
   36.750    3.7388
   36.765    3.6546
   36.780    4.0126
   36.795    4.1706
   36.810    4.1811
   36.825    4.0126
   36.840    4.0232
   36.855    4.0758
   36.870    4.3286
   36.885    4.1285
   36.900    3.9916
   36.915    4.3181
   36.930    4.0548
   36.945    4.2549
   36.960    4.0548
   36.975    4.2022
   36.990    4.3391
   37.005    4.2443
   37.020    3.9810
   37.035    4.2022
   37.050    4.2443
   37.065    3.7915
   37.080    3.8336
   37.095    3.7388
   37.110    3.8863
   37.125    3.5914
   37.140    3.9810
   37.155    4.1917
   37.170    3.8652
   37.185    3.7177
   37.200    4.1496
   37.215    4.1811
   37.230    4.1601
   37.245    4.1811
   37.260    3.9389
   37.275    3.9389
   37.290    3.8863
   37.305    4.0337
   37.320    3.9916
   37.335    3.6019
   37.350    3.3386
   37.365    3.8231
   37.380    4.0864
   37.395    4.1917
   37.410    3.8863
   37.425    4.0969
   37.440    3.8863
   37.455    4.0021
   37.470    3.9494
   37.485    3.8441
   37.500    4.1285
   37.515    4.2022
   37.530    3.9916
   37.545    3.7704
   37.560    3.6967
   37.575    3.9705
   37.590    3.7809
   37.605    3.9916
   37.620    4.0232
   37.635    3.9073
   37.650    3.8020
   37.665    3.8863
   37.680    4.2338
   37.695    4.1496
   37.710    3.9705
   37.725    3.9705
   37.740    3.7704
   37.755    4.1811
   37.770    4.0337
   37.785    4.3075
   37.800    4.1917
   37.815    3.8757
   37.830    3.7388
   37.845    3.7283
   37.860    3.9916
   37.875    3.9179
   37.890    4.0758
   37.905    4.0337
   37.920    3.5598
   37.935    3.7493
   37.950    3.9810
   37.965    3.8336
   37.980    3.8757
   37.995    3.9916
   38.010    3.9916
   38.025    3.9073
   38.040    3.7809
   38.055    3.8652
   38.070    3.8336
   38.085    3.8757
   38.100    3.8125
   38.115    3.6756
   38.130    3.8652
   38.145    4.1811
   38.160    3.9073
   38.175    4.0864
   38.190    3.8125
   38.205    3.8020
   38.220    3.9284
   38.235    3.8863
   38.250    3.9705
   38.265    3.8125
   38.280    3.9600
   38.295    3.5282
   38.310    3.8441
   38.325    3.8336
   38.340    4.1496
   38.355    3.8652
   38.370    3.6019
   38.385    3.8441
   38.400    3.9284
   38.415    3.9073
   38.430    3.7704
   38.445    3.7809
   38.460    3.8547
   38.475    4.0864
   38.490    3.7388
   38.505    4.1390
   38.520    3.9284
   38.535    3.7283
   38.550    3.8968
   38.565    4.1074
   38.580    3.9073
   38.595    4.0653
   38.610    3.7177
   38.625    3.8968
   38.640    4.0758
   38.655    3.9600
   38.670    4.0864
   38.685    3.9916
   38.700    4.0126
   38.715    3.8863
   38.730    3.9600
   38.745    3.9600
   38.760    3.8863
   38.775    4.2549
   38.790    4.0232
   38.805    3.9810
   38.820    3.7915
   38.835    3.9284
   38.850    3.8863
   38.865    3.7177
   38.880    3.8968
   38.895    4.0126
   38.910    3.8652
   38.925    4.0864
   38.940    3.8547
   38.955    4.0021
   38.970    3.7809
   38.985    3.9284
   39.000    4.1811
   39.015    3.7704
   39.030    3.8968
   39.045    4.0126
   39.060    3.9494
   39.075    4.0758
   39.090    3.9705
   39.105    4.0442
   39.120    3.9284
   39.135    3.9389
   39.150    4.2549
   39.165    4.0021
   39.180    3.6124
   39.195    3.8968
   39.210    3.6546
   39.225    3.7072
   39.240    3.8863
   39.255    4.0548
   39.270    3.8757
   39.285    4.0653
   39.300    3.5914
   39.315    3.6756
   39.330    3.8547
   39.345    3.8652
   39.360    3.9916
   39.375    3.9179
   39.390    3.8125
   39.405    3.7809
   39.420    3.6019
   39.435    3.6756
   39.450    3.9284
   39.465    3.6967
   39.480    3.5598
   39.495    4.2338
   39.510    3.9494
   39.525    3.9705
   39.540    4.1811
   39.555    3.8652
   39.570    3.8231
   39.585    3.7915
   39.600    3.9073
   39.615    3.8336
   39.630    3.9600
   39.645    3.9916
   39.660    3.8652
   39.675    3.8863
   39.690    3.7177
   39.705    3.7599
   39.720    3.8757
   39.735    4.2127
   39.750    3.7388
   39.765    3.6862
   39.780    3.8863
   39.795    3.7388
   39.810    3.8441
   39.825    3.8125
   39.840    4.0232
   39.855    3.7809
   39.870    3.9073
   39.885    3.9916
   39.900    3.8968
   39.915    3.9284
   39.930    4.0864
   39.945    4.1496
   39.960    3.7493
   39.975    3.7704
   39.990    4.1706
