    1.500   14.4638
    1.515   15.0606
    1.530   13.8845
    1.545   13.7616
    1.560   13.2350
    1.575   13.9547
    1.590   13.1473
    1.605   14.2180
    1.620   14.0249
    1.635   13.2877
    1.650   12.6558
    1.665   12.9015
    1.680   12.4451
    1.695   12.5154
    1.710   12.3047
    1.725   12.6031
    1.740   11.5850
    1.755   12.2872
    1.770   11.7957
    1.785   11.2691
    1.800   11.4622
    1.815   11.4095
    1.830   10.9707
    1.845   11.3217
    1.860   11.0760
    1.875   10.8654
    1.890   10.6898
    1.905   11.2164
    1.920   11.3217
    1.935   10.7952
    1.950   10.6723
    1.965   10.5845
    1.980   11.8132
    1.995   10.5845
    2.010   10.7776
    2.025   10.2510
    2.040    9.8999
    2.055   10.0579
    2.070   10.1632
    2.085    9.9702
    2.100   10.4616
    2.115   10.3037
    2.130   10.0228
    2.145   10.1281
    2.160   10.4968
    2.175    9.8999
    2.190    9.7420
    2.205    9.6015
    2.220    9.4962
    2.235    9.4436
    2.250   10.1632
    2.265   10.0404
    2.280    9.3031
    2.295    9.0925
    2.310    8.6361
    2.325    9.6015
    2.340    9.4611
    2.355    9.1276
    2.370    9.3031
    2.385    9.1452
    2.400    9.2680
    2.415    9.2680
    2.430    8.7941
    2.445    9.3031
    2.460    9.0398
    2.475    8.9170
    2.490    8.6537
    2.505    8.7239
    2.520    8.5835
    2.535    8.7239
    2.550    8.5484
    2.565    8.2675
    2.580    8.7414
    2.595    9.2505
    2.610    8.9521
    2.625    9.2680
    2.640    8.3728
    2.655    8.4781
    2.670    8.7765
    2.685    8.6888
    2.700    8.6712
    2.715    8.8468
    2.730    8.4957
    2.745    8.4781
    2.760    8.3904
    2.775    8.8994
    2.790    8.7941
    2.805    8.3904
    2.820    8.4079
    2.835    8.8468
    2.850    8.8994
    2.865    8.0569
    2.880    7.8462
    2.895    8.5133
    2.910    8.6186
    2.925    8.3377
    2.940    7.8813
    2.955    7.5127
    2.970    7.9164
    2.985    9.2329
    3.000    8.5308
    3.015    8.3377
    3.030    8.6361
    3.045    7.9691
    3.060    8.2500
    3.075    8.1622
    3.090    8.0393
    3.105    8.6010
    3.120    8.8643
    3.135    7.8638
    3.150    7.6883
    3.165    8.7941
    3.180    8.6712
    3.195    8.2500
    3.210    8.0920
    3.225    8.8819
    3.240    8.6186
    3.255    8.6186
    3.270    8.9521
    3.285    8.8468
    3.300    8.7414
    3.315    8.8117
    3.330    8.4957
    3.345    8.1622
    3.360    8.4430
    3.375    8.3377
    3.390    8.6712
    3.405    9.0223
    3.420    8.7765
    3.435    8.6537
    3.450    8.9345
    3.465    9.1627
    3.480    8.3377
    3.495    8.6010
    3.510    8.7239
    3.525    8.9872
    3.540    8.7063
    3.555    8.4255
    3.570    9.4787
    3.585    9.8648
    3.600    9.8473
    3.615    9.0574
    3.630    9.4436
    3.645    9.9175
    3.660   10.1808
    3.675   10.2335
    3.690   11.4622
    3.705   10.7074
    3.720   10.2510
    3.735   10.5845
    3.750   11.0058
    3.765   11.0058
    3.780   12.3223
    3.795   11.9361
    3.810   12.3925
    3.825   13.1648
    3.840   14.2356
    3.855   14.5340
    3.870   14.0776
    3.885   13.1473
    3.900   11.9537
    3.915   11.1813
    3.930   10.2686
    3.945    9.4260
    3.960    8.1095
    3.975    8.0393
    3.990    8.2324
    4.005    8.0042
    4.020    8.1271
    4.035    7.7760
    4.050    7.9340
    4.065    7.6180
    4.080    7.8638
    4.095    8.3377
    4.110    7.7409
    4.125    7.7936
    4.140    8.3026
    4.155    8.2500
    4.170    8.0042
    4.185    7.7585
    4.200    8.5308
    4.215    8.3904
    4.230    8.0920
    4.245    7.7409
    4.260    7.8813
    4.275    7.5303
    4.290    8.2324
    4.305    8.4781
    4.320    8.2149
    4.335    7.4601
    4.350    7.3196
    4.365    7.6532
    4.380    8.4606
    4.395    7.8287
    4.410    7.6180
    4.425    8.0393
    4.440    8.3553
    4.455    7.9516
    4.470    7.3547
    4.485    7.7058
    4.500    8.0920
    4.515    8.1797
    4.530    8.0920
    4.545    7.9691
    4.560    8.4079
    4.575    8.3026
    4.590    8.1797
    4.605    8.3026
    4.620    7.6532
    4.635    7.8813
    4.650    8.3202
    4.665    8.0042
    4.680    7.8462
    4.695    8.1973
    4.710    8.3904
    4.725    7.9691
    4.740    7.7409
    4.755    7.6356
    4.770    8.0920
    4.785    8.1095
    4.800    8.0393
    4.815    7.6005
    4.830    8.1271
    4.845    7.8287
    4.860    7.6180
    4.875    8.4781
    4.890    9.1276
    4.905    8.7414
    4.920    8.6888
    4.935    8.2851
    4.950    7.9164
    4.965    8.3202
    4.980    8.5659
    4.995    8.8292
    5.010    8.9170
    5.025    8.7414
    5.040    9.2680
    5.055    9.3734
    5.070    9.5489
    5.085    8.8994
    5.100    8.7941
    5.115    8.8819
    5.130    9.5489
    5.145    9.3734
    5.160    9.5840
    5.175    9.7946
    5.190    9.5313
    5.205    9.7771
    5.220    9.9702
    5.235   10.1281
    5.250   10.1281
    5.265    9.9526
    5.280   10.4616
    5.295   10.3914
    5.310   10.4265
    5.325    9.9702
    5.340   10.5319
    5.355   10.7952
    5.370   11.0760
    5.385   11.1813
    5.400   11.0936
    5.415   11.4271
    5.430   11.6377
    5.445   11.3393
    5.460   12.4451
    5.475   12.2521
    5.490   11.7255
    5.505   11.8659
    5.520   12.2872
    5.535   10.6898
    5.550   11.0760
    5.565   10.9180
    5.580   10.1632
    5.595   10.2686
    5.610   10.5845
    5.625   10.4616
    5.640   10.6372
    5.655   10.3212
    5.670    9.7069
    5.685   10.5845
    5.700   10.8127
    5.715    9.8648
    5.730    9.8297
    5.745   10.0228
    5.760   10.2159
    5.775    9.1803
    5.790    9.4962
    5.805    9.8824
    5.820    9.9526
    5.835   10.3037
    5.850    9.0223
    5.865    8.9696
    5.880    8.5659
    5.895    8.3026
    5.910    8.5133
    5.925    8.9696
    5.940    9.5664
    5.955    8.4079
    5.970    8.0218
    5.985    8.1973
    6.000    8.3553
    6.015    8.5659
    6.030    8.4255
    6.045    8.3728
    6.060    8.1797
    6.075    8.0042
    6.090    7.8989
    6.105    7.7760
    6.120    7.7409
    6.135    8.1095
    6.150    8.0920
    6.165    8.1095
    6.180    8.1271
    6.195    7.6883
    6.210    7.7058
    6.225    7.7409
    6.240    8.2851
    6.255    7.7760
    6.270    8.0218
    6.285    7.7058
    6.300    7.5829
    6.315    7.2845
    6.330    7.7058
    6.345    7.3723
    6.360    7.1617
    6.375    7.4601
    6.390    7.5829
    6.405    8.1271
    6.420    7.7409
    6.435    7.0739
    6.450    7.2670
    6.465    7.9516
    6.480    6.8808
    6.495    7.2143
    6.510    7.2494
    6.525    6.7579
    6.540    7.2845
    6.555    7.0739
    6.570    7.4425
    6.585    7.0388
    6.600    6.8984
    6.615    7.5127
    6.630    7.4776
    6.645    7.5303
    6.660    7.3021
    6.675    7.3547
    6.690    7.3899
    6.705    7.4425
    6.720    7.0563
    6.735    7.5127
    6.750    7.0212
    6.765    7.3196
    6.780    6.7579
    6.795    6.6877
    6.810    6.8282
    6.825    7.0037
    6.840    7.1090
    6.855    6.9861
    6.870    6.7579
    6.885    7.0212
    6.900    6.9686
    6.915    6.4420
    6.930    6.5649
    6.945    6.6175
    6.960    6.4595
    6.975    6.7053
    6.990    6.5298
    7.005    6.3718
    7.020    6.4946
    7.035    6.6526
    7.050    6.4069
    7.065    5.6697
    7.080    5.8276
    7.095    6.1260
    7.110    6.2313
    7.125    6.0734
    7.140    6.5298
    7.155    6.4771
    7.170    6.1962
    7.185    6.2313
    7.200    6.6175
    7.215    5.9154
    7.230    6.0207
    7.245    6.1611
    7.260    5.9154
    7.275    5.3537
    7.290    6.0734
    7.305    6.0558
    7.320    5.7223
    7.335    5.6521
    7.350    6.0207
    7.365    6.1436
    7.380    6.0207
    7.395    5.8627
    7.410    5.9681
    7.425    5.6872
    7.440    6.2138
    7.455    5.6521
    7.470    5.7223
    7.485    5.7925
    7.500    5.4766
    7.515    5.7048
    7.530    5.7925
    7.545    6.1611
    7.560    5.9505
    7.575    6.0558
    7.590    5.9681
    7.605    5.7574
    7.620    6.0383
    7.635    5.9681
    7.650    5.8101
    7.665    6.0032
    7.680    5.4766
    7.695    5.6521
    7.710    5.8101
    7.725    5.6345
    7.740    5.8803
    7.755    5.4590
    7.770    5.7399
    7.785    6.1611
    7.800    5.8276
    7.815    5.9856
    7.830    5.8627
    7.845    6.2489
    7.860    5.5819
    7.875    5.5117
    7.890    5.6521
    7.905    5.4590
    7.920    5.3537
    7.935    5.4239
    7.950    5.1431
    7.965    5.3186
    7.980    5.6872
    7.995    5.4941
    8.010    5.6697
    8.025    5.2133
    8.040    5.5468
    8.055    5.3537
    8.070    5.3010
    8.085    5.1431
    8.100    5.3712
    8.115    4.9851
    8.130    5.0202
    8.145    5.3010
    8.160    5.4766
    8.175    5.1255
    8.190    5.5117
    8.205    5.1957
    8.220    4.7920
    8.235    4.8447
    8.250    5.2308
    8.265    5.0202
    8.280    4.8798
    8.295    5.1431
    8.310    4.8271
    8.325    5.5643
    8.340    5.5117
    8.355    4.9851
    8.370    5.3712
    8.385    5.3361
    8.400    4.7393
    8.415    5.2659
    8.430    5.2133
    8.445    5.2308
    8.460    4.8622
    8.475    5.2308
    8.490    4.4058
    8.505    4.9500
    8.520    5.1606
    8.535    5.0904
    8.550    4.9149
    8.565    4.9324
    8.580    5.2484
    8.595    4.8798
    8.610    5.2835
    8.625    5.3010
    8.640    4.8798
    8.655    4.7393
    8.670    4.8798
    8.685    5.3888
    8.700    4.8973
    8.715    5.1957
    8.730    5.3010
    8.745    4.9149
    8.760    4.7218
    8.775    4.9851
    8.790    4.5463
    8.805    5.1255
    8.820    5.0553
    8.835    4.7744
    8.850    4.7393
    8.865    5.0202
    8.880    5.2484
    8.895    5.2484
    8.910    4.8973
    8.925    4.7042
    8.940    4.6516
    8.955    4.8271
    8.970    4.6340
    8.985    4.8447
    9.000    4.5111
    9.015    4.7393
    9.030    4.7569
    9.045    5.2308
    9.060    4.7920
    9.075    4.5111
    9.090    4.8622
    9.105    5.2835
    9.120    5.2484
    9.135    4.9851
    9.150    4.6165
    9.165    4.8271
    9.180    5.0377
    9.195    4.5111
    9.210    4.9675
    9.225    4.8271
    9.240    5.2133
    9.255    4.7920
    9.270    4.7744
    9.285    4.9851
    9.300    5.3186
    9.315    4.7218
    9.330    4.9500
    9.345    4.6340
    9.360    4.9324
    9.375    4.7042
    9.390    4.9500
    9.405    5.4415
    9.420    5.4941
    9.435    5.0202
    9.450    5.2133
    9.465    5.1957
    9.480    5.3010
    9.495    5.8627
    9.510    5.7750
    9.525    5.9505
    9.540    5.2133
    9.555    5.4064
    9.570    5.3888
    9.585    5.4941
    9.600    5.2133
    9.615    4.8622
    9.630    4.6165
    9.645    4.7218
    9.660    4.7569
    9.675    4.9500
    9.690    5.0026
    9.705    4.7744
    9.720    5.0728
    9.735    4.7920
    9.750    4.5814
    9.765    4.7569
    9.780    4.7744
    9.795    4.5989
    9.810    4.8447
    9.825    4.8271
    9.840    4.5287
    9.855    5.1255
    9.870    4.5989
    9.885    4.3356
    9.900    4.8447
    9.915    4.7569
    9.930    5.0728
    9.945    5.5468
    9.960    4.9500
    9.975    4.7569
    9.990    4.7744
   10.005    4.7042
   10.020    4.8973
   10.035    4.8447
   10.050    5.0904
   10.065    4.7042
   10.080    5.1606
   10.095    5.1957
   10.110    4.9149
   10.125    4.8271
   10.140    5.1606
   10.155    4.8973
   10.170    5.2484
   10.185    5.2133
   10.200    4.8973
   10.215    4.7920
   10.230    4.4760
   10.245    5.2308
   10.260    4.9149
   10.275    5.2484
   10.290    5.1431
   10.305    5.1606
   10.320    5.2308
   10.335    5.3186
   10.350    5.4941
   10.365    5.1957
   10.380    5.2659
   10.395    5.1782
   10.410    5.2484
   10.425    4.8447
   10.440    4.8271
   10.455    4.9324
   10.470    5.1080
   10.485    4.9324
   10.500    4.6691
   10.515    4.8973
   10.530    4.8622
   10.545    5.0904
   10.560    5.2835
   10.575    5.2484
   10.590    4.9675
   10.605    4.9675
   10.620    5.0202
   10.635    4.9500
   10.650    4.8622
   10.665    4.9324
   10.680    4.9324
   10.695    4.9149
   10.710    5.0728
   10.725    4.7569
   10.740    5.3186
   10.755    5.5468
   10.770    4.9851
   10.785    5.1080
   10.800    5.7925
   10.815    5.4064
   10.830    5.0026
   10.845    5.0553
   10.860    5.4064
   10.875    5.1255
   10.890    5.2484
   10.905    5.1255
   10.920    5.5994
   10.935    4.8622
   10.950    4.9149
   10.965    5.0553
   10.980    4.8622
   10.995    4.9500
   11.010    5.0728
   11.025    5.4239
   11.040    5.3186
   11.055    5.5819
   11.070    5.5819
   11.085    5.0904
   11.100    5.2308
   11.115    5.2484
   11.130    4.9500
   11.145    5.3361
   11.160    5.2484
   11.175    5.0202
   11.190    4.7218
   11.205    4.8798
   11.220    5.2835
   11.235    5.1255
   11.250    5.1431
   11.265    4.8271
   11.280    4.7569
   11.295    5.0553
   11.310    4.9149
   11.325    4.9500
   11.340    4.9675
   11.355    4.8271
   11.370    5.2835
   11.385    5.2659
   11.400    5.3712
   11.415    5.0377
   11.430    5.0904
   11.445    4.9851
   11.460    5.1606
   11.475    4.9500
   11.490    5.2133
   11.505    5.0904
   11.520    5.0553
   11.535    4.9675
   11.550    5.6345
   11.565    5.1255
   11.580    4.8271
   11.595    5.2133
   11.610    5.1957
   11.625    5.3712
   11.640    5.1080
   11.655    5.1080
   11.670    5.1080
   11.685    5.5994
   11.700    4.8622
   11.715    5.1255
   11.730    5.2659
   11.745    5.0553
   11.760    5.2133
   11.775    4.9324
   11.790    5.0904
   11.805    4.9675
   11.820    4.5463
   11.835    5.1957
   11.850    4.7218
   11.865    4.9324
   11.880    5.1080
   11.895    4.7744
   11.910    4.8973
   11.925    5.0553
   11.940    5.2308
   11.955    5.0904
   11.970    5.0202
   11.985    5.0026
   12.000    5.1782
   12.015    4.9500
   12.030    4.9149
   12.045    4.8622
   12.060    5.2308
   12.075    4.7218
   12.090    5.2133
   12.105    4.7744
   12.120    4.8447
   12.135    5.3186
   12.150    5.2659
   12.165    4.8798
   12.180    5.4415
   12.195    4.9149
   12.210    4.5814
   12.225    4.8622
   12.240    4.4760
   12.255    4.9675
   12.270    5.0377
   12.285    4.7744
   12.300    4.9500
   12.315    4.8095
   12.330    4.5814
   12.345    4.4936
   12.360    4.9675
   12.375    5.1080
   12.390    4.8095
   12.405    5.1782
   12.420    5.1606
   12.435    4.8798
   12.450    4.5638
   12.465    4.2830
   12.480    4.7920
   12.495    4.3532
   12.510    4.4585
   12.525    4.6165
   12.540    4.8095
   12.555    4.1952
   12.570    4.4058
   12.585    4.7042
   12.600    4.7218
   12.615    4.4760
   12.630    4.8271
   12.645    4.6691
   12.660    4.5463
   12.675    4.3707
   12.690    4.3707
   12.705    4.8095
   12.720    4.6867
   12.735    4.6867
   12.750    4.8271
   12.765    4.5989
   12.780    4.5287
   12.795    4.6516
   12.810    4.4058
   12.825    4.3181
   12.840    4.4760
   12.855    4.8447
   12.870    4.7393
   12.885    4.5638
   12.900    4.6165
   12.915    4.8447
   12.930    4.9500
   12.945    4.6340
   12.960    4.4760
   12.975    4.9675
   12.990    4.5814
   13.005    4.8095
   13.020    4.7218
   13.035    4.8798
   13.050    4.6340
   13.065    4.4936
   13.080    4.3707
   13.095    4.3707
   13.110    4.7920
   13.125    4.7393
   13.140    4.8798
   13.155    4.8447
   13.170    4.6340
   13.185    4.3883
   13.200    4.3532
   13.215    4.6691
   13.230    4.6340
   13.245    4.2654
   13.260    4.4936
   13.275    5.4064
   13.290    5.0904
   13.305    4.8095
   13.320    4.9324
   13.335    5.1606
   13.350    4.3181
   13.365    4.7920
   13.380    4.7393
   13.395    4.1250
   13.410    4.2654
   13.425    4.7218
   13.440    4.7393
   13.455    4.8447
   13.470    4.8622
   13.485    4.5814
   13.500    4.6516
   13.515    4.6867
   13.530    4.8095
   13.545    4.5814
   13.560    4.7218
   13.575    4.8798
   13.590    4.7744
   13.605    4.6867
   13.620    4.8622
   13.635    4.5463
   13.650    4.4760
   13.665    4.5638
   13.680    4.6691
   13.695    4.8798
   13.710    4.9324
   13.725    4.8095
   13.740    4.3181
   13.755    4.8271
   13.770    4.6340
   13.785    4.4234
   13.800    4.7744
   13.815    4.7569
   13.830    4.7042
   13.845    4.8447
   13.860    5.0377
   13.875    4.7042
   13.890    4.6867
   13.905    4.8095
   13.920    4.8798
   13.935    4.6340
   13.950    4.3883
   13.965    4.8973
   13.980    4.9500
   13.995    5.0026
   14.010    5.1957
   14.025    4.9324
   14.040    4.8447
   14.055    4.9324
   14.070    5.1431
   14.085    4.7393
   14.100    5.4415
   14.115    5.0026
   14.130    4.8973
   14.145    5.4590
   14.160    5.1782
   14.175    5.3010
   14.190    5.4064
   14.205    5.1255
   14.220    4.9851
   14.235    4.8622
   14.250    4.8798
   14.265    5.0728
   14.280    4.9851
   14.295    4.8095
   14.310    4.9675
   14.325    5.0377
   14.340    5.3010
   14.355    4.8447
   14.370    4.7042
   14.385    4.8798
   14.400    5.2133
   14.415    5.0904
   14.430    5.3361
   14.445    5.0553
   14.460    5.0728
   14.475    4.9149
   14.490    4.7920
   14.505    5.0202
   14.520    5.6345
   14.535    5.1431
   14.550    4.9675
   14.565    5.3010
   14.580    4.8622
   14.595    5.2133
   14.610    5.2659
   14.625    5.2308
   14.640    4.9324
   14.655    5.5292
   14.670    4.8973
   14.685    4.7569
   14.700    4.8798
   14.715    5.0553
   14.730    5.0202
   14.745    4.7218
   14.760    4.7920
   14.775    4.5638
   14.790    5.1255
   14.805    4.6340
   14.820    5.4415
   14.835    4.7920
   14.850    5.0026
   14.865    5.2835
   14.880    4.7920
   14.895    4.8447
   14.910    5.1606
   14.925    4.7569
   14.940    5.1080
   14.955    4.8622
   14.970    4.8447
   14.985    4.8622
   15.000    4.4585
   15.015    5.0553
   15.030    5.0904
   15.045    4.7393
   15.060    4.8271
   15.075    4.5814
   15.090    4.5989
   15.105    4.8447
   15.120    5.0377
   15.135    4.5111
   15.150    4.6691
   15.165    4.5989
   15.180    4.2830
   15.195    4.4936
   15.210    4.6691
   15.225    4.5463
   15.240    4.4936
   15.255    4.3005
   15.270    4.5989
   15.285    4.9149
   15.300    4.8973
   15.315    4.0548
   15.330    4.4409
   15.345    4.5463
   15.360    4.5989
   15.375    4.2478
   15.390    4.5111
   15.405    4.4585
   15.420    4.3356
   15.435    4.5287
   15.450    4.1601
   15.465    4.5463
   15.480    4.1952
   15.495    4.0372
   15.510    4.7042
   15.525    4.3883
   15.540    4.3883
   15.555    4.2303
   15.570    4.2303
   15.585    4.2654
   15.600    4.4585
   15.615    4.4058
   15.630    4.4058
   15.645    4.7218
   15.660    4.8973
   15.675    5.1080
   15.690    4.4936
   15.705    4.6867
   15.720    4.7393
   15.735    4.5814
   15.750    4.4585
   15.765    4.8095
   15.780    4.6691
   15.795    4.3883
   15.810    4.5638
   15.825    4.3707
   15.840    4.3181
   15.855    4.2127
   15.870    4.4585
   15.885    4.8447
   15.900    4.3707
   15.915    4.1776
   15.930    4.6340
   15.945    4.4585
   15.960    4.4936
   15.975    4.6165
   15.990    4.3707
   16.005    4.3883
   16.020    4.6691
   16.035    4.8271
   16.050    4.6691
   16.065    4.3707
   16.080    4.5638
   16.095    4.4936
   16.110    4.6165
   16.125    4.7218
   16.140    4.8447
   16.155    4.5638
   16.170    4.4409
   16.185    4.4409
   16.200    4.2478
   16.215    4.6165
   16.230    4.6165
   16.245    4.9324
   16.260    4.6516
   16.275    4.3356
   16.290    4.5638
   16.305    4.6516
   16.320    4.7393
   16.335    4.7218
   16.350    4.7042
   16.365    4.5989
   16.380    4.6340
   16.395    4.8271
   16.410    4.6691
   16.425    4.6165
   16.440    4.4585
   16.455    4.3005
   16.470    4.4409
   16.485    5.2133
   16.500    5.0026
   16.515    4.6165
   16.530    4.3181
   16.545    4.5111
   16.560    4.4058
   16.575    4.6165
   16.590    4.4936
   16.605    4.6165
   16.620    4.5814
   16.635    4.4234
   16.650    4.9324
   16.665    4.6867
   16.680    4.7218
   16.695    4.3707
   16.710    4.5111
   16.725    4.3005
   16.740    4.2830
   16.755    4.1776
   16.770    4.5287
   16.785    4.2830
   16.800    4.5111
   16.815    4.8973
   16.830    4.9500
   16.845    4.2478
   16.860    4.4936
   16.875    4.3532
   16.890    4.3181
   16.905    4.8271
   16.920    4.6516
   16.935    4.5463
   16.950    4.3532
   16.965    5.0026
   16.980    4.8271
   16.995    4.2303
   17.010    4.3005
   17.025    4.3356
   17.040    4.7042
   17.055    4.6867
   17.070    4.7393
   17.085    4.8622
   17.100    4.5287
   17.115    4.3707
   17.130    4.4585
   17.145    4.3707
   17.160    4.5463
   17.175    4.3356
   17.190    4.3707
   17.205    4.0899
   17.220    4.1601
   17.235    4.4760
   17.250    4.3707
   17.265    4.3005
   17.280    4.3707
   17.295    4.3707
   17.310    4.2478
   17.325    4.4760
   17.340    4.2654
   17.355    4.4585
   17.370    4.7569
   17.385    4.5111
   17.400    4.6867
   17.415    4.4234
   17.430    4.7218
   17.445    4.5111
   17.460    4.4058
   17.475    4.5638
   17.490    4.1074
   17.505    4.1952
   17.520    4.7744
   17.535    4.8973
   17.550    4.9149
   17.565    4.3883
   17.580    4.3532
   17.595    4.0723
   17.610    4.0723
   17.625    4.5111
   17.640    4.1425
   17.655    4.5814
   17.670    4.5989
   17.685    4.9149
   17.700    4.8622
   17.715    4.1776
   17.730    4.5638
   17.745    4.4234
   17.760    4.4936
   17.775    4.4058
   17.790    4.6516
   17.805    4.1776
   17.820    4.5287
   17.835    4.5287
   17.850    4.4585
   17.865    4.4409
   17.880    4.0548
   17.895    4.5463
   17.910    4.3356
   17.925    4.5287
   17.940    4.4585
   17.955    4.5111
   17.970    4.7920
   17.985    4.4409
   18.000    4.4760
   18.015    4.6165
   18.030    4.5463
   18.045    4.2478
   18.060    4.3181
   18.075    4.4234
   18.090    4.6867
   18.105    3.9846
   18.120    4.5638
   18.135    4.4760
   18.150    4.7744
   18.165    4.3707
   18.180    4.4234
   18.195    4.2478
   18.210    4.7042
   18.225    4.4585
   18.240    4.3181
   18.255    4.3356
   18.270    4.1425
   18.285    4.7920
   18.300    4.5111
   18.315    4.3707
   18.330    4.2478
   18.345    4.3356
   18.360    4.4760
   18.375    4.4936
   18.390    4.9149
   18.405    4.2830
   18.420    4.4409
   18.435    4.0899
   18.450    4.0021
   18.465    4.2654
   18.480    4.3356
   18.495    4.8622
   18.510    4.7920
   18.525    4.5463
   18.540    4.6165
   18.555    4.5989
   18.570    4.3883
   18.585    4.4760
   18.600    4.4409
   18.615    4.1074
   18.630    4.0197
   18.645    4.4585
   18.660    4.1776
   18.675    4.3883
   18.690    4.3532
   18.705    4.3883
   18.720    4.3883
   18.735    4.3883
   18.750    4.5111
   18.765    4.6691
   18.780    4.9324
   18.795    4.6340
   18.810    4.1776
   18.825    3.8441
   18.840    4.2654
   18.855    4.1250
   18.870    4.5814
   18.885    4.5463
   18.900    4.0197
   18.915    4.2127
   18.930    4.1250
   18.945    4.3005
   18.960    4.2478
   18.975    4.1952
   18.990    4.1776
   19.005    4.3707
   19.020    4.9500
   19.035    4.6516
   19.050    4.4234
   19.065    4.1250
   19.080    4.4058
   19.095    4.9149
   19.110    4.4409
   19.125    4.4936
   19.140    4.4760
   19.155    4.1776
   19.170    4.4585
   19.185    4.3181
   19.200    4.2303
   19.215    4.6516
   19.230    4.5989
   19.245    4.2303
   19.260    4.5111
   19.275    4.0021
   19.290    4.1074
   19.305    4.1250
   19.320    4.4234
   19.335    4.2478
   19.350    4.3181
   19.365    4.2478
   19.380    3.9494
   19.395    4.1425
   19.410    4.3356
   19.425    4.7920
   19.440    4.3707
   19.455    4.2303
   19.470    4.1425
   19.485    4.0723
   19.500    4.6340
   19.515    4.4234
   19.530    4.0899
   19.545    4.6516
   19.560    4.5638
   19.575    4.4058
   19.590    4.4058
   19.605    4.5989
   19.620    4.1952
   19.635    4.2127
   19.650    4.1250
   19.665    4.1601
   19.680    4.1250
   19.695    4.2478
   19.710    4.0899
   19.725    3.9319
   19.740    4.4585
   19.755    4.1425
   19.770    3.9143
   19.785    4.1601
   19.800    3.8090
   19.815    4.1425
   19.830    4.0372
   19.845    4.2127
   19.860    3.8792
   19.875    3.9670
   19.890    4.0372
   19.905    4.3883
   19.920    4.2654
   19.935    4.2654
   19.950    3.9319
   19.965    4.4760
   19.980    4.5638
   19.995    3.7564
   20.010    3.5457
   20.025    3.8617
   20.040    3.8441
   20.055    4.0723
   20.070    3.6862
   20.085    3.8266
   20.100    4.2654
   20.115    4.2127
   20.130    4.1601
   20.145    3.6862
   20.160    3.8968
   20.175    4.0021
   20.190    4.0723
   20.205    4.3356
   20.220    4.2303
   20.235    4.0899
   20.250    3.7915
   20.265    4.0723
   20.280    3.9143
   20.295    3.8617
   20.310    4.1776
   20.325    4.1250
   20.340    3.9319
   20.355    3.9319
   20.370    4.2830
   20.385    4.6516
   20.400    4.3707
   20.415    4.7042
   20.430    3.8441
   20.445    4.4234
   20.460    3.9319
   20.475    3.8792
   20.490    4.0372
   20.505    4.0899
   20.520    4.3532
   20.535    4.1425
   20.550    3.9143
   20.565    4.0372
   20.580    3.7388
   20.595    4.1601
   20.610    3.8441
   20.625    3.8792
   20.640    3.6686
   20.655    4.1601
   20.670    4.4409
   20.685    4.2478
   20.700    3.9143
   20.715    3.8441
   20.730    4.1776
   20.745    4.2478
   20.760    4.1074
   20.775    3.9319
   20.790    4.1074
   20.805    3.9319
   20.820    3.8266
   20.835    3.9319
   20.850    4.0021
   20.865    3.9670
   20.880    4.2127
   20.895    4.3005
   20.910    3.8792
   20.925    4.2127
   20.940    3.7213
   20.955    3.7037
   20.970    3.8968
   20.985    4.2654
   21.000    4.1776
   21.015    4.1425
   21.030    3.9846
   21.045    4.0372
   21.060    3.3526
   21.075    3.7739
   21.090    3.6686
   21.105    3.5984
   21.120    3.8266
   21.135    4.1952
   21.150    4.4234
   21.165    3.8968
   21.180    3.9319
   21.195    3.7037
   21.210    4.2830
   21.225    4.1601
   21.240    3.7388
   21.255    3.9670
   21.270    4.0021
   21.285    4.0372
   21.300    4.4234
   21.315    4.0899
   21.330    3.7915
   21.345    3.9670
   21.360    3.6159
   21.375    4.1074
   21.390    3.8617
   21.405    3.9319
   21.420    4.1074
   21.435    3.7213
   21.450    4.5287
   21.465    3.8266
   21.480    3.9846
   21.495    4.1074
   21.510    4.0723
   21.525    4.0899
   21.540    3.6862
   21.555    3.5808
   21.570    3.8968
   21.585    4.0021
   21.600    4.1074
   21.615    4.0372
   21.630    4.1776
   21.645    3.9670
   21.660    3.9494
   21.675    4.6867
   21.690    4.1601
   21.705    4.1776
   21.720    3.8266
   21.735    4.1074
   21.750    3.9494
   21.765    3.8441
   21.780    4.1074
   21.795    4.2127
   21.810    3.7915
   21.825    4.1425
   21.840    3.7213
   21.855    3.9319
   21.870    3.8441
   21.885    3.7213
   21.900    3.5633
   21.915    3.9670
   21.930    3.5808
   21.945    3.6862
   21.960    3.5984
   21.975    3.8266
   21.990    3.8617
   22.005    3.5282
   22.020    3.9846
   22.035    4.1074
   22.050    3.9319
   22.065    3.7388
   22.080    3.6862
   22.095    3.7739
   22.110    3.8617
   22.125    3.7915
   22.140    3.8090
   22.155    3.7388
   22.170    3.7213
   22.185    3.7037
   22.200    3.4755
   22.215    3.8968
   22.230    4.1425
   22.245    3.8792
   22.260    3.6510
   22.275    3.5808
   22.290    4.2127
   22.305    3.7037
   22.320    3.6335
   22.335    3.9143
   22.350    3.8441
   22.365    3.7564
   22.380    3.6862
   22.395    4.1250
   22.410    3.7915
   22.425    3.2824
   22.440    3.4931
   22.455    3.5633
   22.470    4.0548
   22.485    4.0723
   22.500    3.4931
   22.515    3.8441
   22.530    4.0021
   22.545    3.8090
   22.560    3.8617
   22.575    3.8090
   22.590    3.3877
   22.605    3.4229
   22.620    3.6686
   22.635    3.7388
   22.650    3.5457
   22.665    3.3526
   22.680    3.3702
   22.695    3.5106
   22.710    3.4404
   22.725    3.7564
   22.740    3.4229
   22.755    3.3000
   22.770    3.3526
   22.785    3.9670
   22.800    3.7739
   22.815    3.7037
   22.830    3.5633
   22.845    3.5984
   22.860    3.6335
   22.875    3.9319
   22.890    3.4404
   22.905    4.0548
   22.920    4.0548
   22.935    3.7037
   22.950    3.7037
   22.965    3.7564
   22.980    3.8968
   22.995    3.5984
   23.010    3.4580
   23.025    4.0021
   23.040    3.6862
   23.055    3.3175
   23.070    3.8090
   23.085    3.4229
   23.100    3.3000
   23.115    3.4404
   23.130    3.8090
   23.145    3.7213
   23.160    3.2824
   23.175    3.6510
   23.190    3.5457
   23.205    3.7037
   23.220    4.2654
   23.235    3.5808
   23.250    3.2824
   23.265    3.4755
   23.280    3.6510
   23.295    3.6159
   23.310    3.3877
   23.325    3.4755
   23.340    3.5282
   23.355    3.2649
   23.370    3.7388
   23.385    3.7739
   23.400    3.7037
   23.415    3.4755
   23.430    3.7037
   23.445    3.4755
   23.460    3.4755
   23.475    3.6335
   23.490    3.6862
   23.505    3.5633
   23.520    3.5457
   23.535    3.8792
   23.550    3.6686
   23.565    3.3702
   23.580    3.4053
   23.595    3.4755
   23.610    3.7388
   23.625    3.7388
   23.640    3.8266
   23.655    3.4580
   23.670    3.5106
   23.685    3.4404
   23.700    3.4580
   23.715    3.4931
   23.730    3.7564
   23.745    3.3175
   23.760    3.2298
   23.775    3.7213
   23.790    3.4053
   23.805    3.4229
   23.820    3.4580
   23.835    3.2649
   23.850    3.2122
   23.865    3.4053
   23.880    3.5633
   23.895    3.7564
   23.910    3.5633
   23.925    3.4755
   23.940    3.6159
   23.955    3.3526
   23.970    3.5282
   23.985    3.5282
   24.000    3.7037
   24.015    3.4931
   24.030    3.2473
   24.045    3.5808
   24.060    3.3877
   24.075    3.3351
   24.090    3.1245
   24.105    3.2122
   24.120    3.4755
   24.135    3.1771
   24.150    3.4755
   24.165    3.6335
   24.180    3.3877
   24.195    3.3000
   24.210    3.5457
   24.225    3.4931
   24.240    3.3526
   24.255    3.1596
   24.270    3.1947
   24.285    3.1771
   24.300    3.3702
   24.315    2.9665
   24.330    3.0718
   24.345    3.1947
   24.360    3.3000
   24.375    3.0016
   24.390    3.3000
   24.405    3.5457
   24.420    3.3877
   24.435    3.3175
   24.450    3.4931
   24.465    3.7388
   24.480    3.4053
   24.495    3.5984
   24.510    3.4229
   24.525    3.4404
   24.540    3.4580
   24.555    3.3175
   24.570    3.4580
   24.585    3.7037
   24.600    3.4580
   24.615    3.6335
   24.630    3.8090
   24.645    3.4404
   24.660    3.2122
   24.675    3.3526
   24.690    3.4053
   24.705    3.7213
   24.720    3.3877
   24.735    3.3526
   24.750    3.0191
   24.765    3.1245
   24.780    3.2122
   24.795    3.0542
   24.810    3.1245
   24.825    2.9665
   24.840    3.1420
   24.855    3.0542
   24.870    2.9665
   24.885    3.3000
   24.900    3.3702
   24.915    3.6510
   24.930    3.5282
   24.945    2.8787
   24.960    2.9489
   24.975    3.5633
   24.990    3.1069
   25.005    3.0542
   25.020    3.3351
   25.035    3.1596
   25.050    3.0191
   25.065    3.1947
   25.080    3.2298
   25.095    3.2473
   25.110    3.2122
   25.125    3.1596
   25.140    3.3877
   25.155    3.5106
   25.170    3.3351
   25.185    3.2473
   25.200    3.4229
   25.215    2.9665
   25.230    3.1771
   25.245    3.1420
   25.260    3.0191
   25.275    3.1069
   25.290    3.1947
   25.305    3.4931
   25.320    3.3000
   25.335    3.6159
   25.350    3.0893
   25.365    3.2824
   25.380    3.2298
   25.395    3.2122
   25.410    3.2473
   25.425    3.0718
   25.440    2.9314
   25.455    3.0191
   25.470    2.9489
   25.485    3.2298
   25.500    3.2473
   25.515    3.3175
   25.530    2.8787
   25.545    3.3526
   25.560    3.4404
   25.575    3.0191
   25.590    3.3000
   25.605    3.3351
   25.620    3.2473
   25.635    3.1596
   25.650    3.2649
   25.665    3.2473
   25.680    3.3702
   25.695    3.2649
   25.710    3.1596
   25.725    3.3702
   25.740    3.4931
   25.755    3.2298
   25.770    3.2122
   25.785    3.0542
   25.800    3.0542
   25.815    3.4053
   25.830    3.2298
   25.845    3.1771
   25.860    2.9665
   25.875    3.0191
   25.890    3.1245
   25.905    3.0367
   25.920    3.2122
   25.935    2.9489
   25.950    3.3351
   25.965    3.2298
   25.980    3.1420
   25.995    3.0542
   26.010    3.1596
   26.025    2.9314
   26.040    3.1069
   26.055    3.1069
   26.070    2.7558
   26.085    2.8963
   26.100    3.2649
   26.115    3.3351
   26.130    3.1245
   26.145    3.3000
   26.160    3.1069
   26.175    3.1245
   26.190    3.0191
   26.205    3.2824
   26.220    3.1947
   26.235    3.1947
   26.250    2.9314
   26.265    2.9489
   26.280    3.0893
   26.295    2.8260
   26.310    3.1420
   26.325    3.1245
   26.340    2.9138
   26.355    2.9665
   26.370    3.4229
   26.385    3.1420
   26.400    3.3175
   26.415    3.1947
   26.430    3.2649
   26.445    2.7734
   26.460    2.8085
   26.475    3.2122
   26.490    3.1420
   26.505    3.1069
   26.520    2.9840
   26.535    3.1420
   26.550    3.1771
   26.565    2.9489
   26.580    2.9489
   26.595    2.9489
   26.610    2.8787
   26.625    3.1596
   26.640    3.1420
   26.655    3.1420
   26.670    3.3877
   26.685    3.0893
   26.700    3.0191
   26.715    3.1245
   26.730    3.0016
   26.745    2.9665
   26.760    2.8436
   26.775    2.7207
   26.790    2.9138
   26.805    2.8612
   26.820    2.8787
   26.835    3.2473
   26.850    2.7207
   26.865    3.0893
   26.880    3.0367
   26.895    3.0542
   26.910    3.0016
   26.925    2.9138
   26.940    2.4399
   26.955    2.8260
   26.970    2.6505
   26.985    2.7734
   27.000    3.0367
   27.015    3.0893
   27.030    2.9314
   27.045    3.1420
   27.060    3.1596
   27.075    2.8612
   27.090    2.9489
   27.105    3.2824
   27.120    2.8963
   27.135    2.7734
   27.150    3.0542
   27.165    2.9489
   27.180    2.8260
   27.195    2.9489
   27.210    3.1596
   27.225    2.8612
   27.240    2.7734
   27.255    3.0016
   27.270    3.0542
   27.285    2.8787
   27.300    2.7734
   27.315    2.8612
   27.330    3.0718
   27.345    3.0542
   27.360    2.8085
   27.375    2.7558
   27.390    2.4399
   27.405    2.8612
   27.420    2.6505
   27.435    2.8436
   27.450    2.9138
   27.465    2.6505
   27.480    2.6330
   27.495    2.7207
   27.510    3.1420
   27.525    2.9314
   27.540    3.0367
   27.555    2.8085
   27.570    2.6681
   27.585    2.8085
   27.600    2.7207
   27.615    2.9138
   27.630    2.8085
   27.645    2.4750
   27.660    2.8260
   27.675    2.8260
   27.690    2.8436
   27.705    3.0718
   27.720    2.6330
   27.735    2.7032
   27.750    2.7558
   27.765    2.8787
   27.780    2.6681
   27.795    2.7909
   27.810    2.7734
   27.825    2.9665
   27.840    3.0016
   27.855    2.7032
   27.870    2.7909
   27.885    2.6681
   27.900    2.7734
   27.915    2.4574
   27.930    2.6681
   27.945    2.8436
   27.960    2.7383
   27.975    2.6856
   27.990    2.8260
   28.005    2.8612
   28.020    3.1069
   28.035    2.6505
   28.050    2.6856
   28.065    2.8260
   28.080    2.7383
   28.095    2.9489
   28.110    3.2122
   28.125    2.7734
   28.140    2.8963
   28.155    2.6154
   28.170    3.0718
   28.185    2.8085
   28.200    2.8085
   28.215    2.8436
   28.230    2.8963
   28.245    2.7207
   28.260    2.9665
   28.275    2.7558
   28.290    2.4750
   28.305    2.5452
   28.320    2.6154
   28.335    2.6505
   28.350    2.5452
   28.365    2.8085
   28.380    2.5979
   28.395    2.5803
   28.410    2.6505
   28.425    2.8260
   28.440    2.4574
   28.455    2.4925
   28.470    3.0893
   28.485    2.7383
   28.500    2.5979
   28.515    2.7207
   28.530    3.0367
   28.545    2.7558
   28.560    2.7558
   28.575    2.8436
   28.590    2.5628
   28.605    2.5979
   28.620    2.7734
   28.635    3.0191
   28.650    2.8612
   28.665    2.5979
   28.680    3.0367
   28.695    3.2824
   28.710    2.7558
   28.725    2.5452
   28.740    2.8612
   28.755    2.5276
   28.770    2.7734
   28.785    2.6856
   28.800    2.8085
   28.815    2.4574
   28.830    2.8963
   28.845    2.9314
   28.860    2.9665
   28.875    2.8260
   28.890    2.3170
   28.905    2.4399
   28.920    2.8260
   28.935    3.0893
   28.950    2.6505
   28.965    2.5628
   28.980    2.8787
   28.995    2.8963
   29.010    2.7383
   29.025    2.6681
   29.040    2.5452
   29.055    2.8963
   29.070    2.8787
   29.085    3.0542
   29.100    3.1771
   29.115    2.7734
   29.130    2.5101
   29.145    2.7558
   29.160    2.7032
   29.175    2.8963
   29.190    2.6330
   29.205    2.5628
   29.220    2.9665
   29.235    2.5628
   29.250    2.5628
   29.265    2.6681
   29.280    2.3872
   29.295    2.5979
   29.310    3.0542
   29.325    2.6505
   29.340    2.4925
   29.355    2.5979
   29.370    2.6681
   29.385    2.5452
   29.400    2.5452
   29.415    2.4750
   29.430    2.5101
   29.445    2.4574
   29.460    2.5276
   29.475    2.7734
   29.490    2.6154
   29.505    2.5979
   29.520    2.4750
   29.535    2.5101
   29.550    2.1064
   29.565    2.5101
   29.580    2.8436
   29.595    2.3697
   29.610    2.8436
   29.625    2.5101
   29.640    2.2117
   29.655    2.2995
   29.670    2.4925
   29.685    2.3872
   29.700    2.4048
   29.715    2.4223
   29.730    2.5452
   29.745    2.5803
   29.760    2.4223
   29.775    2.3872
   29.790    2.2292
   29.805    2.2292
   29.820    2.2117
   29.835    2.6505
   29.850    2.8963
   29.865    2.7032
   29.880    2.5979
   29.895    2.7734
   29.910    2.3170
   29.925    2.5628
   29.940    2.3170
   29.955    2.3346
   29.970    2.2995
   29.985    2.5452
   30.000    2.6154
   30.015    2.5803
   30.030    2.2292
   30.045    2.3170
   30.060    2.4223
   30.075    2.7207
   30.090    2.2643
   30.105    2.2117
   30.120    2.1590
   30.135    2.2292
   30.150    2.0888
   30.165    2.0186
   30.180    2.3697
   30.195    2.4399
   30.210    2.1766
   30.225    2.2468
   30.240    2.1590
   30.255    2.2292
   30.270    2.8436
   30.285    2.5628
   30.300    2.1941
   30.315    2.2819
   30.330    2.2468
   30.345    2.4223
   30.360    2.0713
   30.375    2.2468
   30.390    2.4925
   30.405    2.3872
   30.420    2.3521
   30.435    2.2117
   30.450    2.4399
   30.465    2.5628
   30.480    2.3346
   30.495    2.2117
   30.510    2.4399
   30.525    2.3170
   30.540    2.0186
   30.555    2.2819
   30.570    2.3170
   30.585    2.2819
   30.600    1.8957
   30.615    2.1941
   30.630    2.0888
   30.645    2.1941
   30.660    2.4048
   30.675    2.3170
   30.690    2.4399
   30.705    2.2117
   30.720    2.3346
   30.735    2.0888
   30.750    2.2292
   30.765    1.7553
   30.780    2.2117
   30.795    2.0362
   30.810    2.3521
   30.825    2.2117
   30.840    2.2643
   30.855    2.0713
   30.870    2.3170
   30.885    1.9835
   30.900    2.1590
   30.915    2.1239
   30.930    2.0888
   30.945    2.0186
   30.960    2.4750
   30.975    2.3697
   30.990    1.7904
   31.005    1.8255
   31.020    2.0011
   31.035    2.1064
   31.050    2.2643
   31.065    2.3697
   31.080    2.1064
   31.095    2.0713
   31.110    2.4223
   31.125    2.0713
   31.140    1.8957
   31.155    2.2117
   31.170    1.8782
   31.185    2.0186
   31.200    2.1415
   31.215    2.2995
   31.230    2.5452
   31.245    2.2292
   31.260    1.9133
   31.275    1.8080
   31.290    2.0362
   31.305    2.0713
   31.320    2.1941
   31.335    1.9308
   31.350    2.0713
   31.365    2.2117
   31.380    1.8782
   31.395    2.1239
   31.410    1.9484
   31.425    2.2292
   31.440    2.2292
   31.455    1.9835
   31.470    2.0713
   31.485    2.1239
   31.500    2.0537
   31.515    1.9133
   31.530    2.1590
   31.545    2.2468
   31.560    2.3346
   31.575    2.1064
   31.590    1.7202
   31.605    1.9659
   31.620    2.1415
   31.635    2.1064
   31.650    1.9835
   31.665    1.8080
   31.680    2.1941
   31.695    1.8431
   31.710    2.0011
   31.725    2.2468
   31.740    1.9659
   31.755    2.0888
   31.770    2.0713
   31.785    2.0888
   31.800    1.9133
   31.815    2.0888
   31.830    2.4574
   31.845    1.8431
   31.860    1.9308
   31.875    1.8957
   31.890    2.1064
   31.905    2.1590
   31.920    1.9133
   31.935    2.0537
   31.950    2.0713
   31.965    2.2292
   31.980    1.9133
   31.995    1.8782
   32.010    2.1239
   32.025    1.8255
   32.040    1.9659
   32.055    1.9835
   32.070    1.9133
   32.085    2.0888
   32.100    2.2468
   32.115    2.2819
   32.130    1.9835
   32.145    2.1064
   32.160    2.1239
   32.175    2.0186
   32.190    1.9835
   32.205    1.6675
   32.220    1.9308
   32.235    2.1766
   32.250    1.7553
   32.265    2.0011
   32.280    1.8080
   32.295    2.1415
   32.310    2.0537
   32.325    2.0537
   32.340    2.0537
   32.355    2.0537
   32.370    1.7553
   32.385    2.1064
   32.400    2.2995
   32.415    2.0362
   32.430    2.1766
   32.445    2.0362
   32.460    1.8957
   32.475    1.9133
   32.490    2.1064
   32.505    2.2468
   32.520    2.2117
   32.535    2.0537
   32.550    2.0011
   32.565    1.9659
   32.580    1.7553
   32.595    1.9835
   32.610    1.8782
   32.625    1.9484
   32.640    2.0713
   32.655    1.8782
   32.670    1.9659
   32.685    1.9308
   32.700    2.1064
   32.715    2.2117
   32.730    2.1941
   32.745    2.1590
   32.760    2.1590
   32.775    2.2643
   32.790    1.9659
   32.805    1.9659
   32.820    2.0537
   32.835    1.7027
   32.850    1.8606
   32.865    2.0713
   32.880    2.0888
   32.895    2.0888
   32.910    1.9659
   32.925    1.7904
   32.940    1.7027
   32.955    1.8431
   32.970    1.8606
   32.985    2.1239
   33.000    1.9308
   33.015    1.8606
   33.030    1.7904
   33.045    2.0888
   33.060    1.8606
   33.075    2.0537
   33.090    1.9659
   33.105    1.7729
   33.120    1.9835
   33.135    1.9133
   33.150    1.9133
   33.165    1.7904
   33.180    1.7202
   33.195    1.9133
   33.210    1.9659
   33.225    2.0362
   33.240    2.0011
   33.255    2.0011
   33.270    1.8080
   33.285    1.7904
   33.300    1.7027
   33.315    1.7027
   33.330    2.0537
   33.345    2.2468
   33.360    1.8957
   33.375    1.8606
   33.390    1.9133
   33.405    1.7202
   33.420    1.8782
   33.435    1.7904
   33.450    1.9308
   33.465    2.1941
   33.480    2.0186
   33.495    1.7378
   33.510    2.1590
   33.525    1.9484
   33.540    1.9133
   33.555    1.7202
   33.570    1.7202
   33.585    1.8431
   33.600    1.6675
   33.615    2.0186
   33.630    2.1064
   33.645    1.9308
   33.660    1.8957
   33.675    1.8080
   33.690    1.8957
   33.705    1.6149
   33.720    1.8782
   33.735    1.8080
   33.750    1.7378
   33.765    1.9133
   33.780    2.0362
   33.795    1.8431
   33.810    1.9659
   33.825    2.1239
   33.840    2.0362
   33.855    1.8080
   33.870    1.8606
   33.885    1.8957
   33.900    1.8606
   33.915    1.8957
   33.930    1.8782
   33.945    1.8606
   33.960    1.7729
   33.975    1.7729
   33.990    1.8255
   34.005    1.7553
   34.020    1.5622
   34.035    1.8255
   34.050    2.1590
   34.065    1.8080
   34.080    1.7027
   34.095    1.5622
   34.110    1.8606
   34.125    1.7027
   34.140    1.8431
   34.155    2.0186
   34.170    1.9484
   34.185    1.8080
   34.200    2.0537
   34.215    1.8255
   34.230    1.6851
   34.245    1.9835
   34.260    2.1590
   34.275    2.0011
   34.290    1.7027
   34.305    1.6149
   34.320    1.8255
   34.335    2.0186
   34.350    2.1415
   34.365    1.9835
   34.380    2.0011
   34.395    1.8080
   34.410    1.6675
   34.425    1.9308
   34.440    1.7729
   34.455    1.8957
   34.470    1.6675
   34.485    1.7729
   34.500    1.7027
   34.515    1.7553
   34.530    1.5798
   34.545    1.9308
   34.560    2.0362
   34.575    2.0537
   34.590    1.8957
   34.605    1.5798
   34.620    1.6324
   34.635    1.8606
   34.650    2.0713
   34.665    2.0011
   34.680    1.7202
   34.695    1.9659
   34.710    2.0011
   34.725    1.8782
   34.740    1.8080
   34.755    1.8255
   34.770    1.5271
   34.785    1.6675
   34.800    1.7378
   34.815    1.9659
   34.830    1.8255
   34.845    2.2117
   34.860    2.1590
   34.875    1.8957
   34.890    1.9133
   34.905    2.0186
   34.920    1.6675
   34.935    1.7729
   34.950    1.7553
   34.965    1.7378
   34.980    1.6324
   34.995    1.6149
   35.010    1.7553
   35.025    1.6851
   35.040    2.0011
   35.055    1.8957
   35.070    1.9133
   35.085    1.7904
   35.100    1.7553
   35.115    1.6324
   35.130    1.8080
   35.145    2.0888
   35.160    1.6675
   35.175    1.7553
   35.190    2.0362
   35.205    1.7904
   35.220    1.7729
   35.235    1.8782
   35.250    1.9308
   35.265    1.9308
   35.280    1.9133
   35.295    1.6324
   35.310    1.6675
   35.325    1.5973
   35.340    1.7729
   35.355    1.5271
   35.370    1.6851
   35.385    1.7553
   35.400    1.9484
   35.415    1.9484
   35.430    1.6500
   35.445    1.7027
   35.460    1.9659
   35.475    1.8080
   35.490    1.6500
   35.505    1.7729
   35.520    1.5973
   35.535    1.5447
   35.550    1.6851
   35.565    1.8782
   35.580    1.9308
   35.595    1.6851
   35.610    1.8080
   35.625    1.9133
   35.640    1.7553
   35.655    1.7378
   35.670    1.5973
   35.685    1.9659
   35.700    1.7553
   35.715    1.6324
   35.730    1.5622
   35.745    1.9835
   35.760    1.7553
   35.775    1.6675
   35.790    1.6324
   35.805    1.5622
   35.820    1.7904
   35.835    1.8782
   35.850    1.9484
   35.865    2.0362
   35.880    1.9484
   35.895    1.7904
   35.910    1.8782
   35.925    1.7202
   35.940    2.0011
   35.955    1.8080
   35.970    1.8606
   35.985    1.8606
   36.000    1.8782
   36.015    1.7729
   36.030    1.5622
   36.045    1.7904
   36.060    2.0011
   36.075    1.7553
   36.090    1.7027
   36.105    1.8431
   36.120    2.0537
   36.135    1.9484
   36.150    2.1590
   36.165    1.6675
   36.180    1.5973
   36.195    1.9659
   36.210    2.0537
   36.225    2.2468
   36.240    1.8957
   36.255    1.9484
   36.270    2.0713
   36.285    1.6851
   36.300    1.7202
   36.315    1.7904
   36.330    1.9659
   36.345    1.8606
   36.360    1.8255
   36.375    1.8080
   36.390    1.8431
   36.405    1.8431
   36.420    1.5798
   36.435    1.5622
   36.450    1.8080
   36.465    1.6851
   36.480    1.7904
   36.495    1.6324
   36.510    1.7378
   36.525    1.7729
   36.540    1.7378
   36.555    1.8957
   36.570    1.8255
   36.585    1.8782
   36.600    1.8606
   36.615    2.0011
   36.630    1.8431
   36.645    1.8957
   36.660    1.5973
   36.675    1.6149
   36.690    1.4569
   36.705    1.7729
   36.720    1.7904
   36.735    1.7202
   36.750    1.7027
   36.765    2.0888
   36.780    1.8431
   36.795    1.7027
   36.810    1.7904
   36.825    1.7729
   36.840    1.6149
   36.855    1.6500
   36.870    1.6324
   36.885    2.0011
   36.900    1.8080
   36.915    1.7553
   36.930    1.9484
   36.945    1.7553
   36.960    1.7904
   36.975    1.6675
   36.990    1.5271
   37.005    1.8431
   37.020    1.8255
   37.035    1.8255
   37.050    1.7553
   37.065    1.8080
   37.080    1.8431
   37.095    1.6675
   37.110    1.7553
   37.125    1.6500
   37.140    1.7202
   37.155    1.8431
   37.170    1.5622
   37.185    1.3867
   37.200    1.6851
   37.215    1.8080
   37.230    1.6675
   37.245    1.6324
   37.260    1.4394
   37.275    1.7553
   37.290    1.7027
   37.305    2.0186
   37.320    1.8431
   37.335    1.6500
   37.350    1.7904
   37.365    1.6675
   37.380    1.8080
   37.395    1.7378
   37.410    1.6149
   37.425    1.5271
   37.440    1.7553
   37.455    1.5622
   37.470    1.6149
   37.485    1.7378
   37.500    1.8255
   37.515    1.9308
   37.530    1.9835
   37.545    1.8431
   37.560    1.8255
   37.575    1.7378
   37.590    1.6675
   37.605    1.6149
   37.620    1.8080
   37.635    1.9133
   37.650    1.8606
   37.665    1.8957
   37.680    1.7202
   37.695    1.6851
   37.710    1.7202
   37.725    1.8782
   37.740    1.9308
   37.755    1.7553
   37.770    1.6324
   37.785    1.5622
   37.800    1.4745
   37.815    1.8080
   37.830    1.7553
   37.845    1.6500
   37.860    1.4920
   37.875    1.5096
   37.890    1.7553
   37.905    1.7027
   37.920    1.7729
   37.935    1.6149
   37.950    1.8782
   37.965    1.8606
   37.980    1.3340
   37.995    1.4745
   38.010    1.6851
   38.025    1.7729
   38.040    1.7378
   38.055    1.6851
   38.070    1.5973
   38.085    1.4920
   38.100    1.5973
   38.115    1.5096
   38.130    1.5622
   38.145    1.7904
   38.160    1.5973
   38.175    1.4394
   38.190    1.6675
   38.205    1.6851
   38.220    1.5271
   38.235    1.5798
   38.250    1.5447
   38.265    1.4920
   38.280    1.3340
   38.295    1.5447
   38.310    1.7904
   38.325    1.7904
   38.340    1.6500
   38.355    1.5798
   38.370    1.7553
   38.385    1.8957
   38.400    1.7378
   38.415    1.6324
   38.430    1.4745
   38.445    1.5096
   38.460    1.5973
   38.475    1.8255
   38.490    1.7904
   38.505    1.4569
   38.520    1.6149
   38.535    1.4920
   38.550    1.5622
   38.565    1.8782
   38.580    1.7202
   38.595    1.9484
   38.610    1.5447
   38.625    1.6675
   38.640    1.7378
   38.655    1.7027
   38.670    1.5271
   38.685    1.5622
   38.700    1.6149
   38.715    1.7202
   38.730    1.5973
   38.745    1.7027
   38.760    1.6149
   38.775    1.5622
   38.790    1.5096
   38.805    1.5271
   38.820    1.6149
   38.835    1.2463
   38.850    1.5798
   38.865    1.8431
   38.880    1.6324
   38.895    1.6500
   38.910    1.8606
   38.925    1.5271
   38.940    1.7202
   38.955    1.5798
   38.970    1.5973
   38.985    1.5271
   39.000    1.8782
   39.015    1.5798
   39.030    1.7202
   39.045    1.7904
   39.060    1.5973
   39.075    1.5447
   39.090    1.8431
   39.105    1.6324
   39.120    1.7202
   39.135    1.5798
   39.150    1.7904
   39.165    1.5271
   39.180    1.6149
   39.195    1.5798
   39.210    1.7378
   39.225    1.5973
   39.240    1.5447
   39.255    1.7553
   39.270    1.4218
   39.285    1.5798
   39.300    1.8255
   39.315    1.8255
   39.330    1.6851
   39.345    1.4569
   39.360    1.6324
   39.375    1.5622
   39.390    1.6675
   39.405    1.6500
   39.420    1.3691
   39.435    1.5798
   39.450    1.5622
   39.465    1.4920
   39.480    1.4042
   39.495    1.6675
   39.510    1.4569
   39.525    1.6851
   39.540    1.5096
   39.555    1.6324
   39.570    1.5447
   39.585    1.5622
   39.600    1.5096
   39.615    1.4569
   39.630    1.4042
   39.645    1.5447
   39.660    1.5798
   39.675    1.7202
   39.690    1.5096
   39.705    1.5622
   39.720    1.8606
   39.735    1.8080
   39.750    1.5622
   39.765    1.4920
   39.780    1.4218
   39.795    1.6324
   39.810    1.6324
   39.825    1.6675
   39.840    1.4042
   39.855    1.6675
   39.870    1.7378
   39.885    1.7553
   39.900    1.5447
   39.915    1.4920
   39.930    1.3691
   39.945    1.8782
   39.960    1.6324
   39.975    1.6324
   39.990    1.4218
