    1.500   13.6739
    1.515   13.6739
    1.530   13.6739
    1.545   13.0244
    1.560   13.2701
    1.575   13.7967
    1.590   13.6914
    1.605   13.4281
    1.620   13.3930
    1.635   13.1648
    1.650   12.2696
    1.665   12.3223
    1.680   12.5505
    1.695   12.6207
    1.710   12.4276
    1.725   12.0414
    1.740   12.2345
    1.755   12.0239
    1.770   11.7606
    1.785   11.3042
    1.800   11.6553
    1.815   11.7255
    1.830   10.9882
    1.845   11.0233
    1.860   11.5148
    1.875   11.6202
    1.890   11.3393
    1.905   11.2515
    1.920   11.3569
    1.935   10.7074
    1.950   11.2164
    1.965   10.8478
    1.980   10.5670
    1.995   10.6723
    2.010   10.6196
    2.025   10.8478
    2.040   10.7776
    2.055   10.9005
    2.070   10.4090
    2.085   10.7425
    2.100   11.0585
    2.115   10.6196
    2.130   10.1808
    2.145    9.8824
    2.160   10.0579
    2.175   10.3388
    2.190   10.1106
    2.205   10.2159
    2.220    9.8473
    2.235   10.0930
    2.250   10.1457
    2.265   10.1983
    2.280    9.7244
    2.295    9.8648
    2.310    9.5138
    2.325   10.0404
    2.340   10.3563
    2.355   10.7249
    2.370    9.5489
    2.385    9.4787
    2.400    9.9526
    2.415    9.7771
    2.430    9.6718
    2.445   10.1106
    2.460    9.9351
    2.475    9.7420
    2.490    9.6367
    2.505   10.3739
    2.520    9.9702
    2.535    9.8648
    2.550   10.2335
    2.565   10.3914
    2.580   10.2335
    2.595   10.1457
    2.610   10.7425
    2.625   11.0409
    2.640   10.5319
    2.655   10.7952
    2.670   10.3388
    2.685   11.1111
    2.700   11.4446
    2.715   11.5675
    2.730   11.2515
    2.745   11.1462
    2.760   11.5499
    2.775   11.2691
    2.790   11.0936
    2.805   11.9186
    2.820   11.9361
    2.835   12.2696
    2.850   13.1999
    2.865   13.6388
    2.880   13.6388
    2.895   14.2707
    2.910   14.7095
    2.925   15.6574
    2.940   15.4116
    2.955   16.5350
    2.970   17.0792
    2.985   17.9393
    3.000   18.0621
    3.015   18.9222
    3.030   20.3967
    3.045   21.0813
    3.060   21.8887
    3.075   23.8371
    3.090   25.3642
    3.105   27.7163
    3.120   30.8583
    3.135   31.7536
    3.150   32.6839
    3.165   31.1216
    3.180   31.3674
    3.195   30.6828
    3.210   28.2429
    3.225   25.0834
    3.240   22.2047
    3.255   18.6589
    3.270   16.7457
    3.285   16.1840
    3.300   14.7797
    3.315   13.6739
    3.330   13.4632
    3.345   13.5685
    3.360   13.7967
    3.375   12.8313
    3.390   13.2877
    3.405   12.7787
    3.420   12.5505
    3.435   12.9717
    3.450   12.6558
    3.465   13.0946
    3.480   13.9021
    3.495   14.0951
    3.510   14.4286
    3.525   14.7095
    3.540   15.3414
    3.555   14.9026
    3.570   14.8675
    3.585   14.7973
    3.600   15.5872
    3.615   16.7983
    3.630   16.4297
    3.645   16.5526
    3.660   17.6058
    3.675   17.3951
    3.690   17.7813
    3.705   18.3605
    3.720   19.1153
    3.735   19.6419
    3.750   19.7648
    3.765   20.1510
    3.780   20.2387
    3.795   19.8877
    3.810   18.5361
    3.825   18.1850
    3.840   16.9036
    3.855   14.9552
    3.870   13.5510
    3.885   13.3404
    3.900   12.6909
    3.915   12.5329
    3.930   12.1643
    3.945   11.6904
    3.960   11.5675
    3.975   11.0233
    3.990   10.6723
    4.005   10.3037
    4.020    9.6893
    4.035    9.6893
    4.050    9.4085
    4.065    9.1803
    4.080    9.1627
    4.095    8.8292
    4.110    8.7239
    4.125    8.8117
    4.140    8.4957
    4.155    8.1446
    4.170    7.9691
    4.185    8.4079
    4.200    8.5659
    4.215    8.6712
    4.230    8.4606
    4.245    8.0218
    4.260    8.3553
    4.275    8.5659
    4.290    8.6361
    4.305    8.5835
    4.320    8.2324
    4.335    8.3904
    4.350    8.2851
    4.365    8.6361
    4.380    8.5659
    4.395    8.5835
    4.410    8.0569
    4.425    8.0042
    4.440    8.4430
    4.455    8.2675
    4.470    8.3026
    4.485    8.8994
    4.500    8.7063
    4.515    8.4606
    4.530    7.5303
    4.545    7.3547
    4.560    7.7760
    4.575    8.1622
    4.590    8.6712
    4.605    8.4255
    4.620    7.6532
    4.635    7.5127
    4.650    8.0569
    4.665    7.7760
    4.680    7.6356
    4.695    7.8989
    4.710    8.0218
    4.725    7.7585
    4.740    8.0920
    4.755    8.3904
    4.770    8.3377
    4.785    8.3728
    4.800    8.0569
    4.815    8.0218
    4.830    8.2851
    4.845    8.3553
    4.860    8.6361
    4.875    8.7239
    4.890    8.5659
    4.905    8.6712
    4.920    8.5133
    4.935    8.7765
    4.950    8.8117
    4.965    9.2505
    4.980    8.5835
    4.995    8.5133
    5.010    8.8117
    5.025    8.8994
    5.040    8.8994
    5.055    8.9696
    5.070    9.1101
    5.085    9.2680
    5.100    9.0047
    5.115    8.4781
    5.130    9.2505
    5.145    8.9872
    5.160    9.1627
    5.175    9.0750
    5.190    9.1978
    5.205    9.0223
    5.220    9.1101
    5.235    9.0925
    5.250    9.3207
    5.265    9.4085
    5.280    9.7771
    5.295   10.2335
    5.310   10.8478
    5.325   10.4968
    5.340   10.0053
    5.355   10.0228
    5.370   10.5494
    5.385   10.3739
    5.400   10.2159
    5.415   10.0053
    5.430    9.8122
    5.445    9.9526
    5.460   10.4792
    5.475   10.2335
    5.490   10.2335
    5.505    9.9526
    5.520    9.8999
    5.535    9.7771
    5.550    9.9702
    5.565   10.2861
    5.580   10.1457
    5.595   10.2335
    5.610   10.0228
    5.625    9.4787
    5.640    9.5138
    5.655    9.8824
    5.670    9.6542
    5.685    9.4787
    5.700    9.3031
    5.715    9.7420
    5.730    8.8117
    5.745    8.7239
    5.760    8.4079
    5.775    9.0750
    5.790    8.7063
    5.805    8.7414
    5.820    8.9521
    5.835    8.6537
    5.850    8.6537
    5.865    8.7063
    5.880    8.7414
    5.895    8.6186
    5.910    8.4255
    5.925    8.1271
    5.940    8.1095
    5.955    7.9164
    5.970    8.6888
    5.985    8.6888
    6.000    8.1973
    6.015    8.6712
    6.030    8.0569
    6.045    7.9340
    6.060    8.1973
    6.075    7.5654
    6.090    7.8638
    6.105    8.0569
    6.120    8.1973
    6.135    8.0569
    6.150    8.4255
    6.165    8.1973
    6.180    8.8117
    6.195    8.0920
    6.210    8.3553
    6.225    8.5484
    6.240    8.0393
    6.255    8.3377
    6.270    9.0925
    6.285    9.0925
    6.300    9.1803
    6.315    8.9345
    6.330    9.3382
    6.345    9.3207
    6.360    9.6542
    6.375    9.5664
    6.390    9.9526
    6.405   10.6547
    6.420   10.3739
    6.435    9.9877
    6.450    9.9175
    6.465    8.6712
    6.480    8.6010
    6.495    8.6010
    6.510    8.5835
    6.525    7.8813
    6.540    7.5478
    6.555    7.9164
    6.570    8.0393
    6.585    7.9516
    6.600    8.0218
    6.615    8.0920
    6.630    8.0569
    6.645    7.6883
    6.660    7.7234
    6.675    7.8989
    6.690    7.5478
    6.705    7.8111
    6.720    7.5127
    6.735    7.2670
    6.750    7.1441
    6.765    6.8633
    6.780    7.2494
    6.795    7.1792
    6.810    7.2319
    6.825    7.4074
    6.840    7.2494
    6.855    6.8808
    6.870    6.8808
    6.885    6.9686
    6.900    6.4244
    6.915    7.2319
    6.930    7.0563
    6.945    6.7755
    6.960    7.0739
    6.975    6.9861
    6.990    7.0739
    7.005    7.2319
    7.020    6.8808
    7.035    7.0037
    7.050    6.7228
    7.065    7.1441
    7.080    6.8808
    7.095    6.4420
    7.110    6.6877
    7.125    7.0037
    7.140    7.0915
    7.155    7.6532
    7.170    7.1090
    7.185    6.5649
    7.200    6.9159
    7.215    7.0212
    7.230    6.6877
    7.245    6.7404
    7.260    6.8106
    7.275    6.6526
    7.290    6.5649
    7.305    6.4946
    7.320    6.4420
    7.335    6.6702
    7.350    7.0037
    7.365    6.6000
    7.380    6.1787
    7.395    6.3542
    7.410    7.1792
    7.425    7.2670
    7.440    6.6702
    7.455    6.9510
    7.470    6.5649
    7.485    7.0563
    7.500    6.6000
    7.515    6.4771
    7.530    6.3718
    7.545    6.9510
    7.560    7.2670
    7.575    6.8633
    7.590    6.5473
    7.605    7.3372
    7.620    6.8282
    7.635    6.9159
    7.650    6.9510
    7.665    6.7579
    7.680    6.8633
    7.695    6.6526
    7.710    6.6526
    7.725    6.5649
    7.740    6.2489
    7.755    6.5649
    7.770    6.6526
    7.785    6.4069
    7.800    6.1085
    7.815    6.4771
    7.830    6.2138
    7.845    6.3893
    7.860    6.5824
    7.875    6.2313
    7.890    6.3016
    7.905    6.0734
    7.920    5.9681
    7.935    6.0734
    7.950    6.2313
    7.965    6.0032
    7.980    6.3718
    7.995    5.8452
    8.010    5.7223
    8.025    6.1787
    8.040    5.7399
    8.055    5.6521
    8.070    5.7223
    8.085    5.6697
    8.100    4.9851
    8.115    5.2835
    8.130    5.8101
    8.145    5.8803
    8.160    5.5292
    8.175    6.1611
    8.190    5.7223
    8.205    5.2484
    8.220    5.5643
    8.235    5.4941
    8.250    5.5292
    8.265    5.7048
    8.280    5.4415
    8.295    5.4064
    8.310    5.7925
    8.325    5.4766
    8.340    5.2308
    8.355    5.3888
    8.370    4.6516
    8.385    5.5468
    8.400    5.5468
    8.415    5.2133
    8.430    5.3010
    8.445    4.6340
    8.460    5.4415
    8.475    5.4239
    8.490    5.5292
    8.505    5.4415
    8.520    5.6872
    8.535    5.5468
    8.550    5.9154
    8.565    5.5643
    8.580    5.5643
    8.595    5.4941
    8.610    5.2484
    8.625    5.0377
    8.640    5.5643
    8.655    5.5468
    8.670    5.2484
    8.685    5.1431
    8.700    5.1957
    8.715    5.3712
    8.730    5.4941
    8.745    4.6340
    8.760    5.7223
    8.775    5.2659
    8.790    5.4941
    8.805    4.9675
    8.820    5.1255
    8.835    5.0202
    8.850    5.1431
    8.865    5.3888
    8.880    5.5468
    8.895    5.3888
    8.910    5.1606
    8.925    5.2133
    8.940    5.4590
    8.955    5.2484
    8.970    5.6697
    8.985    5.5117
    9.000    5.0553
    9.015    5.0728
    9.030    5.3186
    9.045    5.6170
    9.060    5.3361
    9.075    5.1255
    9.090    5.3888
    9.105    5.1080
    9.120    5.0202
    9.135    5.0026
    9.150    4.9500
    9.165    5.1080
    9.180    5.3712
    9.195    5.5819
    9.210    5.3010
    9.225    4.9851
    9.240    5.0026
    9.255    5.3712
    9.270    5.7399
    9.285    5.5292
    9.300    4.8973
    9.315    4.8622
    9.330    5.4239
    9.345    5.3537
    9.360    5.5643
    9.375    5.5292
    9.390    5.2308
    9.405    4.9324
    9.420    5.4239
    9.435    5.0904
    9.450    5.2308
    9.465    5.4941
    9.480    4.9149
    9.495    5.1957
    9.510    5.1080
    9.525    4.9149
    9.540    5.1431
    9.555    4.9324
    9.570    5.1080
    9.585    4.6340
    9.600    5.5292
    9.615    5.1255
    9.630    5.2133
    9.645    5.0377
    9.660    4.9675
    9.675    4.9149
    9.690    5.1782
    9.705    5.3712
    9.720    5.0904
    9.735    4.9149
    9.750    5.1782
    9.765    5.5292
    9.780    5.4941
    9.795    5.2133
    9.810    5.0377
    9.825    5.2133
    9.840    5.2133
    9.855    5.2659
    9.870    5.5117
    9.885    5.5819
    9.900    5.7399
    9.915    5.5117
    9.930    5.7925
    9.945    5.6872
    9.960    5.5292
    9.975    5.7399
    9.990    5.7750
   10.005    5.6872
   10.020    5.8803
   10.035    6.0909
   10.050    5.9505
   10.065    5.5643
   10.080    5.5117
   10.095    5.7399
   10.110    6.4069
   10.125    5.8276
   10.140    5.5994
   10.155    5.6170
   10.170    5.9329
   10.185    5.5994
   10.200    5.1606
   10.215    5.2835
   10.230    5.3888
   10.245    5.5819
   10.260    5.4239
   10.275    5.3712
   10.290    5.3186
   10.305    4.9675
   10.320    5.4941
   10.335    5.1606
   10.350    5.2133
   10.365    5.9329
   10.380    5.5468
   10.395    5.2659
   10.410    5.6872
   10.425    5.6521
   10.440    5.4064
   10.455    5.6872
   10.470    5.2133
   10.485    5.2484
   10.500    5.6872
   10.515    5.2835
   10.530    5.3712
   10.545    5.2835
   10.560    5.1431
   10.575    5.1255
   10.590    5.3361
   10.605    5.4415
   10.620    5.5292
   10.635    5.3537
   10.650    5.6521
   10.665    6.0558
   10.680    5.8452
   10.695    5.5819
   10.710    5.3888
   10.725    5.3361
   10.740    5.5292
   10.755    6.2840
   10.770    5.7574
   10.785    5.4941
   10.800    5.9505
   10.815    5.5819
   10.830    5.4590
   10.845    5.3537
   10.860    6.3191
   10.875    5.5292
   10.890    5.5468
   10.905    5.3186
   10.920    5.9505
   10.935    6.4595
   10.950    5.4941
   10.965    5.5468
   10.980    5.7574
   10.995    5.2308
   11.010    5.2659
   11.025    5.3010
   11.040    5.0202
   11.055    5.3537
   11.070    5.3361
   11.085    5.4766
   11.100    5.4415
   11.115    5.2484
   11.130    5.6345
   11.145    5.3537
   11.160    5.6697
   11.175    5.2835
   11.190    5.5292
   11.205    5.2308
   11.220    5.1782
   11.235    5.1080
   11.250    5.4766
   11.265    5.5819
   11.280    5.5468
   11.295    5.0377
   11.310    4.9851
   11.325    5.0728
   11.340    5.1957
   11.355    5.3010
   11.370    5.3712
   11.385    5.5292
   11.400    5.4590
   11.415    5.6345
   11.430    5.2133
   11.445    5.5819
   11.460    5.5643
   11.475    5.6345
   11.490    5.8452
   11.505    5.2835
   11.520    5.7048
   11.535    5.7048
   11.550    5.4941
   11.565    4.7920
   11.580    5.3888
   11.595    5.6170
   11.610    5.1957
   11.625    5.0904
   11.640    5.2484
   11.655    5.5819
   11.670    5.0202
   11.685    5.2308
   11.700    5.1782
   11.715    5.0904
   11.730    5.3888
   11.745    5.4064
   11.760    4.8798
   11.775    5.1080
   11.790    5.1255
   11.805    5.3537
   11.820    4.9675
   11.835    5.2133
   11.850    5.3361
   11.865    5.2659
   11.880    5.3010
   11.895    5.4941
   11.910    4.9500
   11.925    4.5814
   11.940    5.0728
   11.955    5.0202
   11.970    4.8798
   11.985    5.1080
   12.000    5.0377
   12.015    5.0553
   12.030    5.5819
   12.045    5.0904
   12.060    5.1606
   12.075    5.2484
   12.090    5.1957
   12.105    4.4936
   12.120    4.9851
   12.135    5.2835
   12.150    5.0202
   12.165    5.1957
   12.180    4.9500
   12.195    4.8973
   12.210    5.1606
   12.225    5.4941
   12.240    5.3537
   12.255    4.8798
   12.270    5.0553
   12.285    5.5468
   12.300    5.4064
   12.315    5.1782
   12.330    5.1255
   12.345    5.0728
   12.360    4.7218
   12.375    4.9675
   12.390    4.9149
   12.405    4.9675
   12.420    5.1080
   12.435    4.7393
   12.450    4.7042
   12.465    4.8447
   12.480    4.6691
   12.495    5.4415
   12.510    5.1957
   12.525    4.8447
   12.540    4.9851
   12.555    5.0728
   12.570    4.9149
   12.585    5.1782
   12.600    5.2835
   12.615    5.1782
   12.630    4.9851
   12.645    4.9851
   12.660    5.0377
   12.675    5.3010
   12.690    4.8973
   12.705    4.9675
   12.720    5.1606
   12.735    5.2484
   12.750    5.0728
   12.765    4.9324
   12.780    4.8271
   12.795    4.8622
   12.810    5.2835
   12.825    5.2659
   12.840    5.0553
   12.855    4.7744
   12.870    4.4760
   12.885    4.5989
   12.900    4.6867
   12.915    5.1782
   12.930    5.0904
   12.945    4.8973
   12.960    5.1255
   12.975    5.0728
   12.990    4.8095
   13.005    5.1782
   13.020    4.7393
   13.035    4.8447
   13.050    4.9149
   13.065    4.9851
   13.080    4.7218
   13.095    4.8798
   13.110    4.5989
   13.125    4.9851
   13.140    5.2484
   13.155    5.0202
   13.170    5.1782
   13.185    4.9324
   13.200    5.3010
   13.215    5.1255
   13.230    5.0202
   13.245    4.8095
   13.260    4.7393
   13.275    4.6340
   13.290    5.0202
   13.305    5.1957
   13.320    4.6516
   13.335    4.5287
   13.350    4.5111
   13.365    4.9149
   13.380    5.3888
   13.395    4.5463
   13.410    4.7393
   13.425    4.7218
   13.440    4.8271
   13.455    5.1782
   13.470    4.9149
   13.485    4.8973
   13.500    4.5463
   13.515    4.6340
   13.530    5.5117
   13.545    4.8973
   13.560    4.7218
   13.575    4.6691
   13.590    4.8271
   13.605    4.9149
   13.620    4.8095
   13.635    4.9149
   13.650    4.9500
   13.665    4.9851
   13.680    4.9675
   13.695    4.8447
   13.710    5.1080
   13.725    4.8447
   13.740    4.5638
   13.755    5.0728
   13.770    5.1782
   13.785    5.0728
   13.800    5.1431
   13.815    5.3537
   13.830    5.0553
   13.845    5.2133
   13.860    5.0904
   13.875    5.0904
   13.890    5.0202
   13.905    4.8447
   13.920    5.0026
   13.935    5.1782
   13.950    4.8271
   13.965    5.2484
   13.980    5.5117
   13.995    4.9851
   14.010    5.2133
   14.025    5.3712
   14.040    5.4239
   14.055    5.3361
   14.070    5.4415
   14.085    5.1606
   14.100    5.3361
   14.115    4.9851
   14.130    5.4590
   14.145    5.6872
   14.160    4.9149
   14.175    5.0026
   14.190    5.2133
   14.205    5.1431
   14.220    4.9149
   14.235    5.1255
   14.250    4.9324
   14.265    4.9500
   14.280    4.8798
   14.295    5.0026
   14.310    5.7048
   14.325    5.4415
   14.340    5.5292
   14.355    5.3186
   14.370    5.3010
   14.385    5.1782
   14.400    5.4415
   14.415    5.1606
   14.430    5.3888
   14.445    5.0202
   14.460    5.4590
   14.475    5.6345
   14.490    5.7399
   14.505    5.6697
   14.520    5.1255
   14.535    5.4239
   14.550    5.4239
   14.565    5.2133
   14.580    5.3537
   14.595    5.3010
   14.610    5.1957
   14.625    5.1606
   14.640    5.2835
   14.655    5.0904
   14.670    4.7393
   14.685    5.4064
   14.700    5.1255
   14.715    5.2133
   14.730    5.4766
   14.745    5.3010
   14.760    5.1782
   14.775    4.9851
   14.790    5.1080
   14.805    5.1431
   14.820    4.8622
   14.835    5.1957
   14.850    4.8622
   14.865    5.3186
   14.880    5.2133
   14.895    5.3010
   14.910    4.8973
   14.925    4.5287
   14.940    4.9324
   14.955    4.9851
   14.970    4.8798
   14.985    5.2133
   15.000    5.1431
   15.015    5.2133
   15.030    4.9149
   15.045    5.1606
   15.060    4.8095
   15.075    4.7569
   15.090    4.6165
   15.105    4.8271
   15.120    5.0202
   15.135    5.0728
   15.150    5.0553
   15.165    5.1957
   15.180    4.9675
   15.195    4.8095
   15.210    4.8973
   15.225    5.2133
   15.240    5.1957
   15.255    5.0728
   15.270    4.7744
   15.285    4.8095
   15.300    5.1431
   15.315    5.0202
   15.330    5.4766
   15.345    5.2308
   15.360    5.0202
   15.375    4.7744
   15.390    4.6165
   15.405    4.6165
   15.420    4.6691
   15.435    4.8798
   15.450    4.6691
   15.465    4.8973
   15.480    4.4760
   15.495    4.3883
   15.510    4.6691
   15.525    4.8271
   15.540    5.5292
   15.555    4.9500
   15.570    4.7569
   15.585    5.1080
   15.600    4.8447
   15.615    4.7569
   15.630    5.1782
   15.645    4.7744
   15.660    4.8095
   15.675    4.9500
   15.690    5.0026
   15.705    4.8271
   15.720    5.3361
   15.735    5.2484
   15.750    4.8095
   15.765    4.6165
   15.780    4.8447
   15.795    4.8973
   15.810    4.8447
   15.825    4.8271
   15.840    5.0026
   15.855    5.0202
   15.870    5.2659
   15.885    5.4239
   15.900    5.3010
   15.915    5.1080
   15.930    4.5989
   15.945    4.9324
   15.960    4.5638
   15.975    5.0553
   15.990    5.1606
   16.005    5.1255
   16.020    4.7393
   16.035    5.0728
   16.050    5.0728
   16.065    4.5463
   16.080    4.7218
   16.095    4.7393
   16.110    5.1606
   16.125    4.9851
   16.140    4.6165
   16.155    5.4590
   16.170    4.7218
   16.185    5.2835
   16.200    4.9851
   16.215    4.9324
   16.230    5.1080
   16.245    4.5638
   16.260    4.8798
   16.275    5.0202
   16.290    4.9675
   16.305    4.9675
   16.320    5.0904
   16.335    5.3186
   16.350    5.0553
   16.365    4.8271
   16.380    4.8798
   16.395    4.8271
   16.410    4.9500
   16.425    4.9851
   16.440    5.2835
   16.455    4.5638
   16.470    4.4585
   16.485    4.5814
   16.500    4.8798
   16.515    4.6340
   16.530    5.0904
   16.545    5.3361
   16.560    5.1431
   16.575    4.5638
   16.590    4.4585
   16.605    4.9675
   16.620    4.6867
   16.635    4.7393
   16.650    4.7569
   16.665    4.9851
   16.680    5.1431
   16.695    4.9851
   16.710    4.9675
   16.725    5.3361
   16.740    5.0728
   16.755    4.6691
   16.770    4.2654
   16.785    5.0377
   16.800    4.7920
   16.815    4.8973
   16.830    4.4760
   16.845    5.0904
   16.860    4.6340
   16.875    4.4585
   16.890    4.8973
   16.905    5.0377
   16.920    4.9149
   16.935    4.6340
   16.950    4.6165
   16.965    4.5814
   16.980    4.4760
   16.995    4.4234
   17.010    4.8271
   17.025    4.6516
   17.040    4.4409
   17.055    4.6691
   17.070    5.3361
   17.085    4.5814
   17.100    4.3883
   17.115    4.7393
   17.130    4.5111
   17.145    4.6691
   17.160    4.6340
   17.175    4.5287
   17.190    4.4585
   17.205    4.5287
   17.220    4.7218
   17.235    4.7920
   17.250    4.6867
   17.265    4.7569
   17.280    4.7744
   17.295    4.8622
   17.310    5.0553
   17.325    4.4234
   17.340    4.7744
   17.355    4.6340
   17.370    4.5638
   17.385    4.6691
   17.400    4.9149
   17.415    4.8798
   17.430    4.6165
   17.445    4.8622
   17.460    4.2303
   17.475    4.7218
   17.490    4.6691
   17.505    4.4409
   17.520    4.7218
   17.535    4.6340
   17.550    4.7218
   17.565    5.2484
   17.580    4.6516
   17.595    4.7393
   17.610    4.8622
   17.625    4.6340
   17.640    4.2127
   17.655    4.4585
   17.670    4.3356
   17.685    4.4058
   17.700    4.5111
   17.715    4.6340
   17.730    4.6691
   17.745    4.8271
   17.760    4.1776
   17.775    4.6165
   17.790    4.9500
   17.805    5.0026
   17.820    4.8447
   17.835    5.0904
   17.850    5.0377
   17.865    4.8447
   17.880    5.0202
   17.895    4.9324
   17.910    4.5463
   17.925    4.8095
   17.940    4.7042
   17.955    4.8095
   17.970    4.5989
   17.985    4.5814
   18.000    4.8622
   18.015    4.3181
   18.030    4.1776
   18.045    4.8095
   18.060    5.3010
   18.075    4.9149
   18.090    4.7393
   18.105    4.7218
   18.120    4.9675
   18.135    5.0026
   18.150    4.6867
   18.165    4.7042
   18.180    4.6516
   18.195    4.5989
   18.210    5.0026
   18.225    4.7569
   18.240    4.8271
   18.255    4.7393
   18.270    4.6867
   18.285    4.6165
   18.300    4.9149
   18.315    4.8622
   18.330    4.5287
   18.345    5.0026
   18.360    4.6516
   18.375    4.6867
   18.390    5.2484
   18.405    5.1255
   18.420    4.4760
   18.435    4.6867
   18.450    4.4234
   18.465    4.8447
   18.480    4.8271
   18.495    4.9851
   18.510    4.9324
   18.525    5.0728
   18.540    4.9500
   18.555    5.0904
   18.570    5.1957
   18.585    4.7920
   18.600    4.6340
   18.615    4.6165
   18.630    4.2478
   18.645    4.2654
   18.660    4.5814
   18.675    4.6867
   18.690    4.5287
   18.705    5.3010
   18.720    4.7920
   18.735    4.8271
   18.750    4.8447
   18.765    4.7744
   18.780    4.6867
   18.795    4.8798
   18.810    4.7042
   18.825    4.5111
   18.840    4.8973
   18.855    4.7218
   18.870    4.7042
   18.885    4.7569
   18.900    4.9675
   18.915    5.2133
   18.930    5.7750
   18.945    5.7925
   18.960    6.8282
   18.975    7.0212
   18.990    7.2319
   19.005    6.8633
   19.020    6.3893
   19.035    5.7223
   19.050    5.2659
   19.065    5.2133
   19.080    4.9851
   19.095    4.9851
   19.110    4.7920
   19.125    4.6867
   19.140    4.7920
   19.155    4.5463
   19.170    4.8447
   19.185    4.9324
   19.200    4.5814
   19.215    4.3181
   19.230    4.5638
   19.245    4.3883
   19.260    4.1425
   19.275    5.0026
   19.290    4.6516
   19.305    4.4234
   19.320    4.6867
   19.335    4.6516
   19.350    4.3707
   19.365    4.4585
   19.380    4.5638
   19.395    4.2303
   19.410    4.4234
   19.425    4.5463
   19.440    4.7393
   19.455    4.9851
   19.470    4.6867
   19.485    4.2654
   19.500    4.3707
   19.515    4.6165
   19.530    4.8973
   19.545    4.7920
   19.560    4.2830
   19.575    4.0372
   19.590    4.1250
   19.605    4.6516
   19.620    4.3883
   19.635    4.5111
   19.650    4.6340
   19.665    4.3707
   19.680    5.0377
   19.695    4.4936
   19.710    4.8973
   19.725    5.0553
   19.740    4.4936
   19.755    4.2654
   19.770    4.3532
   19.785    4.7042
   19.800    4.4234
   19.815    4.6867
   19.830    4.6165
   19.845    4.7393
   19.860    4.3883
   19.875    4.6867
   19.890    4.4760
   19.905    4.5814
   19.920    4.2478
   19.935    4.9500
   19.950    4.7393
   19.965    4.7393
   19.980    4.4760
   19.995    4.4760
   20.010    4.6691
   20.025    4.8798
   20.040    4.5463
   20.055    4.5638
   20.070    4.1250
   20.085    4.8095
   20.100    4.6165
   20.115    4.7042
   20.130    4.6867
   20.145    4.6867
   20.160    4.8622
   20.175    4.4936
   20.190    4.8973
   20.205    4.7042
   20.220    4.0723
   20.235    4.5111
   20.250    4.5989
   20.265    4.1776
   20.280    4.5638
   20.295    4.5814
   20.310    4.8447
   20.325    4.8447
   20.340    4.7218
   20.355    4.0899
   20.370    4.3005
   20.385    4.7042
   20.400    4.5814
   20.415    4.8973
   20.430    4.4058
   20.445    4.5463
   20.460    4.8798
   20.475    4.8973
   20.490    4.5111
   20.505    4.5111
   20.520    4.2654
   20.535    4.2127
   20.550    4.0723
   20.565    4.2478
   20.580    4.1776
   20.595    4.3532
   20.610    4.5287
   20.625    4.1074
   20.640    4.5287
   20.655    4.5989
   20.670    4.4585
   20.685    4.5814
   20.700    4.6516
   20.715    4.3532
   20.730    4.3532
   20.745    4.3883
   20.760    4.7042
   20.775    4.3883
   20.790    4.1601
   20.805    3.9670
   20.820    4.0372
   20.835    4.1776
   20.850    4.1952
   20.865    4.2127
   20.880    4.1425
   20.895    4.2830
   20.910    4.4409
   20.925    4.4234
   20.940    4.2303
   20.955    4.1776
   20.970    4.5989
   20.985    4.7393
   21.000    4.0197
   21.015    4.1425
   21.030    4.0723
   21.045    4.5463
   21.060    4.7042
   21.075    4.7042
   21.090    4.5989
   21.105    4.2654
   21.120    4.3181
   21.135    4.5111
   21.150    4.2830
   21.165    4.4585
   21.180    4.0372
   21.195    4.0548
   21.210    4.4058
   21.225    4.4760
   21.240    4.9675
   21.255    4.2303
   21.270    4.0899
   21.285    4.6867
   21.300    4.7218
   21.315    4.4585
   21.330    4.6516
   21.345    4.7744
   21.360    4.2303
   21.375    4.3181
   21.390    4.5111
   21.405    4.4234
   21.420    4.4936
   21.435    4.7569
   21.450    4.5989
   21.465    4.1952
   21.480    4.5638
   21.495    4.2654
   21.510    4.7042
   21.525    4.6691
   21.540    4.3356
   21.555    4.0899
   21.570    4.1776
   21.585    4.3883
   21.600    4.6691
   21.615    4.8622
   21.630    4.4585
   21.645    4.4058
   21.660    4.3181
   21.675    4.4760
   21.690    4.5463
   21.705    4.3532
   21.720    4.4760
   21.735    4.5111
   21.750    4.5111
   21.765    3.9670
   21.780    4.3356
   21.795    4.3005
   21.810    4.6165
   21.825    4.6516
   21.840    4.3181
   21.855    4.0021
   21.870    4.5111
   21.885    4.4409
   21.900    4.4760
   21.915    4.0197
   21.930    4.4409
   21.945    4.4936
   21.960    4.5814
   21.975    4.1952
   21.990    4.3707
   22.005    4.3181
   22.020    4.6867
   22.035    4.4409
   22.050    4.0899
   22.065    4.3532
   22.080    4.0372
   22.095    4.3356
   22.110    4.1425
   22.125    4.4234
   22.140    4.3532
   22.155    4.2478
   22.170    4.3883
   22.185    4.8622
   22.200    4.5287
   22.215    4.5287
   22.230    4.4409
   22.245    4.4409
   22.260    4.3356
   22.275    4.1776
   22.290    4.4760
   22.305    4.2478
   22.320    4.1601
   22.335    4.2478
   22.350    4.3707
   22.365    4.2654
   22.380    4.4760
   22.395    4.3005
   22.410    4.3532
   22.425    4.5638
   22.440    4.4585
   22.455    4.8622
   22.470    4.4234
   22.485    4.5287
   22.500    4.7569
   22.515    4.3181
   22.530    4.2830
   22.545    4.7393
   22.560    4.6340
   22.575    5.0026
   22.590    4.9149
   22.605    4.4234
   22.620    4.7218
   22.635    4.6691
   22.650    3.9670
   22.665    4.5111
   22.680    4.6340
   22.695    4.5287
   22.710    4.1074
   22.725    4.3005
   22.740    4.5989
   22.755    4.6165
   22.770    4.2830
   22.785    4.3005
   22.800    4.2127
   22.815    4.0197
   22.830    3.8441
   22.845    4.4058
   22.860    4.2830
   22.875    4.6516
   22.890    4.3356
   22.905    4.0548
   22.920    4.1425
   22.935    4.3532
   22.950    3.8266
   22.965    4.3883
   22.980    4.4058
   22.995    4.0548
   23.010    4.0021
   23.025    4.4058
   23.040    4.6165
   23.055    4.5111
   23.070    4.3532
   23.085    4.7920
   23.100    5.4415
   23.115    4.9149
   23.130    4.8095
   23.145    4.6691
   23.160    4.5814
   23.175    4.5287
   23.190    4.3707
   23.205    4.0723
   23.220    4.0021
   23.235    4.1074
   23.250    4.1074
   23.265    4.5463
   23.280    4.8095
   23.295    4.7569
   23.310    4.6867
   23.325    4.1601
   23.340    3.9846
   23.355    3.8968
   23.370    4.2127
   23.385    3.9319
   23.400    4.1776
   23.415    4.1601
   23.430    4.5814
   23.445    4.2478
   23.460    3.9494
   23.475    4.1250
   23.490    4.2478
   23.505    4.2654
   23.520    4.2654
   23.535    4.5463
   23.550    4.7393
   23.565    4.8973
   23.580    3.9494
   23.595    4.3883
   23.610    4.4585
   23.625    4.0021
   23.640    3.8441
   23.655    4.2303
   23.670    3.9670
   23.685    4.3005
   23.700    4.4234
   23.715    4.3707
   23.730    4.0197
   23.745    3.7915
   23.760    3.9319
   23.775    3.9319
   23.790    3.9319
   23.805    4.2654
   23.820    4.3181
   23.835    4.3005
   23.850    3.9319
   23.865    3.9319
   23.880    3.7388
   23.895    4.0021
   23.910    3.9846
   23.925    3.8968
   23.940    3.7388
   23.955    3.7564
   23.970    3.9494
   23.985    3.8968
   24.000    3.9846
   24.015    4.2127
   24.030    4.1425
   24.045    4.1601
   24.060    4.0372
   24.075    3.7564
   24.090    4.1074
   24.105    4.1425
   24.120    4.0021
   24.135    3.7739
   24.150    4.0021
   24.165    3.9846
   24.180    4.1250
   24.195    4.0723
   24.210    3.8968
   24.225    3.7388
   24.240    3.8090
   24.255    4.0021
   24.270    3.7915
   24.285    3.9319
   24.300    4.2478
   24.315    4.0899
   24.330    4.1074
   24.345    3.8266
   24.360    4.0548
   24.375    4.3005
   24.390    3.5984
   24.405    3.3877
   24.420    3.5633
   24.435    4.0021
   24.450    4.0723
   24.465    4.0723
   24.480    3.8441
   24.495    4.0021
   24.510    3.5633
   24.525    3.7037
   24.540    4.0197
   24.555    4.2303
   24.570    4.0899
   24.585    4.1601
   24.600    4.3181
   24.615    3.8266
   24.630    4.2478
   24.645    4.2654
   24.660    4.0372
   24.675    3.7564
   24.690    4.0197
   24.705    3.9670
   24.720    4.1601
   24.735    3.6686
   24.750    3.9846
   24.765    3.7915
   24.780    3.6686
   24.795    3.5984
   24.810    3.7915
   24.825    3.7564
   24.840    3.8968
   24.855    3.4931
   24.870    3.7037
   24.885    4.0723
   24.900    4.0548
   24.915    4.0372
   24.930    4.0021
   24.945    3.9670
   24.960    3.9494
   24.975    3.5282
   24.990    3.9319
   25.005    3.9846
   25.020    4.0899
   25.035    4.0548
   25.050    3.8792
   25.065    3.7388
   25.080    3.7037
   25.095    3.7388
   25.110    3.9494
   25.125    3.7915
   25.140    4.1776
   25.155    4.1952
   25.170    3.5282
   25.185    4.0197
   25.200    4.0372
   25.215    3.8441
   25.230    3.4931
   25.245    3.6335
   25.260    3.5282
   25.275    3.4404
   25.290    3.3351
   25.305    3.3351
   25.320    4.0723
   25.335    4.0021
   25.350    3.7739
   25.365    3.9143
   25.380    3.7037
   25.395    3.9846
   25.410    3.9670
   25.425    3.8792
   25.440    3.8441
   25.455    4.1601
   25.470    4.1601
   25.485    4.4409
   25.500    4.6516
   25.515    4.6340
   25.530    4.0723
   25.545    4.0899
   25.560    3.9494
   25.575    3.7037
   25.590    3.8968
   25.605    4.2303
   25.620    4.0372
   25.635    3.5984
   25.650    3.8617
   25.665    3.5106
   25.680    3.8441
   25.695    3.5808
   25.710    3.7388
   25.725    3.9143
   25.740    4.1074
   25.755    3.6159
   25.770    4.0021
   25.785    3.9143
   25.800    3.7388
   25.815    3.7915
   25.830    3.1947
   25.845    3.5282
   25.860    3.7213
   25.875    4.0723
   25.890    3.9494
   25.905    3.8090
   25.920    3.8617
   25.935    3.4755
   25.950    3.7739
   25.965    3.6686
   25.980    3.4755
   25.995    3.7739
   26.010    3.5633
   26.025    3.6335
   26.040    3.9494
   26.055    3.3000
   26.070    3.3526
   26.085    3.8968
   26.100    4.0372
   26.115    4.0723
   26.130    3.7037
   26.145    3.3526
   26.160    3.8792
   26.175    3.4931
   26.190    4.0723
   26.205    3.5282
   26.220    3.7037
   26.235    3.7915
   26.250    3.7915
   26.265    3.6862
   26.280    3.5106
   26.295    3.6510
   26.310    3.8266
   26.325    3.9494
   26.340    3.2122
   26.355    3.6159
   26.370    3.7915
   26.385    3.5984
   26.400    3.4580
   26.415    3.5808
   26.430    3.5457
   26.445    3.8090
   26.460    3.8266
   26.475    4.0197
   26.490    3.8441
   26.505    3.7213
   26.520    3.8617
   26.535    3.8792
   26.550    3.4755
   26.565    3.1947
   26.580    3.3702
   26.595    3.3351
   26.610    3.6159
   26.625    3.5457
   26.640    3.8792
   26.655    3.6159
   26.670    3.6862
   26.685    3.6862
   26.700    3.3351
   26.715    3.6159
   26.730    3.8266
   26.745    3.5282
   26.760    3.4931
   26.775    3.6159
   26.790    3.7915
   26.805    3.6862
   26.820    3.5633
   26.835    3.8090
   26.850    3.7037
   26.865    3.5808
   26.880    3.6159
   26.895    3.3351
   26.910    3.5282
   26.925    3.4229
   26.940    3.7213
   26.955    3.7037
   26.970    3.8968
   26.985    3.9319
   27.000    3.6862
   27.015    3.3000
   27.030    3.5457
   27.045    3.4229
   27.060    3.4404
   27.075    3.4755
   27.090    3.4931
   27.105    3.6335
   27.120    3.2824
   27.135    3.6862
   27.150    3.8090
   27.165    3.6159
   27.180    3.7388
   27.195    3.6510
   27.210    3.6159
   27.225    2.9840
   27.240    3.1771
   27.255    3.4229
   27.270    3.4404
   27.285    3.4404
   27.300    3.6159
   27.315    3.2122
   27.330    3.3702
   27.345    3.1771
   27.360    3.2298
   27.375    3.7213
   27.390    3.7739
   27.405    3.4580
   27.420    3.5808
   27.435    3.5282
   27.450    3.4755
   27.465    3.3702
   27.480    3.3702
   27.495    3.3702
   27.510    3.4229
   27.525    3.4931
   27.540    3.3526
   27.555    3.0542
   27.570    3.4229
   27.585    3.4404
   27.600    3.4404
   27.615    3.4404
   27.630    3.5984
   27.645    3.2122
   27.660    3.2298
   27.675    3.7213
   27.690    3.8090
   27.705    3.5282
   27.720    3.1245
   27.735    3.3702
   27.750    3.5633
   27.765    3.4404
   27.780    3.4931
   27.795    3.1771
   27.810    3.4931
   27.825    3.4229
   27.840    3.5984
   27.855    3.4404
   27.870    3.2298
   27.885    3.3175
   27.900    3.5808
   27.915    3.5984
   27.930    3.8090
   27.945    4.4936
   27.960    4.8798
   27.975    5.3888
   27.990    5.4590
   28.005    5.6170
   28.020    5.4941
   28.035    4.9851
   28.050    4.3005
   28.065    3.3000
   28.080    3.8617
   28.095    3.7213
   28.110    3.4053
   28.125    3.2649
   28.140    3.3526
   28.155    3.3526
   28.170    3.1947
   28.185    3.3526
   28.200    3.6335
   28.215    3.3000
   28.230    3.4053
   28.245    3.4229
   28.260    3.1947
   28.275    3.2298
   28.290    3.4229
   28.305    3.2298
   28.320    3.2649
   28.335    3.4404
   28.350    3.4229
   28.365    3.6159
   28.380    3.6686
   28.395    3.6159
   28.410    3.1420
   28.425    3.2824
   28.440    3.2122
   28.455    3.4931
   28.470    3.3175
   28.485    3.3351
   28.500    3.2824
   28.515    3.0542
   28.530    3.5106
   28.545    3.2473
   28.560    3.1245
   28.575    3.0191
   28.590    3.2473
   28.605    3.1771
   28.620    3.2473
   28.635    3.2649
   28.650    3.2824
   28.665    3.3000
   28.680    3.4755
   28.695    3.4580
   28.710    3.7037
   28.725    3.1596
   28.740    3.3702
   28.755    3.4404
   28.770    3.6159
   28.785    3.1596
   28.800    3.2824
   28.815    3.4229
   28.830    3.3526
   28.845    3.1245
   28.860    3.5633
   28.875    3.1596
   28.890    3.4755
   28.905    3.7564
   28.920    4.4409
   28.935    5.4415
   28.950    5.3010
   28.965    5.2308
   28.980    5.2659
   28.995    4.6165
   29.010    4.3181
   29.025    3.6159
   29.040    3.2824
   29.055    3.6862
   29.070    3.1420
   29.085    2.8260
   29.100    2.9314
   29.115    3.2473
   29.130    3.0367
   29.145    3.2649
   29.160    3.4404
   29.175    3.2122
   29.190    2.8260
   29.205    3.3526
   29.220    3.4404
   29.235    3.1069
   29.250    3.1069
   29.265    3.1771
   29.280    3.2298
   29.295    3.5106
   29.310    3.1771
   29.325    3.2824
   29.340    3.2473
   29.355    2.9665
   29.370    2.7032
   29.385    3.0893
   29.400    3.0542
   29.415    3.2122
   29.430    3.0191
   29.445    3.3702
   29.460    3.1596
   29.475    3.1245
   29.490    3.1245
   29.505    3.1771
   29.520    2.8963
   29.535    2.8612
   29.550    2.7383
   29.565    3.3175
   29.580    3.2122
   29.595    3.0542
   29.610    2.7032
   29.625    2.6505
   29.640    3.0893
   29.655    3.3351
   29.670    2.9840
   29.685    2.7558
   29.700    2.9138
   29.715    2.7909
   29.730    2.8612
   29.745    2.8787
   29.760    3.0367
   29.775    2.8787
   29.790    2.6856
   29.805    2.8612
   29.820    3.0016
   29.835    2.9138
   29.850    2.9665
   29.865    2.9840
   29.880    2.8612
   29.895    3.1947
   29.910    3.0191
   29.925    2.7558
   29.940    2.8085
   29.955    2.8963
   29.970    3.4580
   29.985    3.2473
   30.000    3.0542
   30.015    2.8963
   30.030    2.9489
   30.045    2.9665
   30.060    2.8085
   30.075    2.9489
   30.090    2.9665
   30.105    3.1947
   30.120    2.8787
   30.135    2.4925
   30.150    2.6856
   30.165    2.7207
   30.180    2.9138
   30.195    2.9138
   30.210    2.9840
   30.225    2.8787
   30.240    2.7558
   30.255    2.7909
   30.270    2.6505
   30.285    2.8260
   30.300    2.8085
   30.315    3.0718
   30.330    2.7383
   30.345    2.7734
   30.360    2.7909
   30.375    3.0016
   30.390    2.9840
   30.405    2.8085
   30.420    2.9314
   30.435    2.8085
   30.450    3.1069
   30.465    2.8260
   30.480    2.7207
   30.495    3.2298
   30.510    3.0718
   30.525    3.0191
   30.540    2.9840
   30.555    3.0542
   30.570    3.1596
   30.585    2.8436
   30.600    3.1596
   30.615    3.2824
   30.630    2.5452
   30.645    2.5452
   30.660    2.7558
   30.675    2.7909
   30.690    3.1069
   30.705    3.0367
   30.720    2.7383
   30.735    2.7383
   30.750    2.8085
   30.765    2.5979
   30.780    3.1420
   30.795    2.9665
   30.810    2.8612
   30.825    2.9314
   30.840    2.5452
   30.855    2.8787
   30.870    2.8436
   30.885    2.7032
   30.900    3.2122
   30.915    2.8787
   30.930    2.9138
   30.945    2.8260
   30.960    2.6154
   30.975    2.6856
   30.990    2.6154
   31.005    2.7909
   31.020    3.1771
   31.035    2.5628
   31.050    2.8963
   31.065    2.8436
   31.080    2.7909
   31.095    2.7558
   31.110    2.9665
   31.125    2.7207
   31.140    2.2117
   31.155    2.6856
   31.170    2.8787
   31.185    2.7909
   31.200    2.6856
   31.215    2.8085
   31.230    2.6856
   31.245    2.5803
   31.260    2.8436
   31.275    2.9489
   31.290    3.1245
   31.305    3.0016
   31.320    2.8260
   31.335    2.9314
   31.350    2.8085
   31.365    2.7032
   31.380    2.6330
   31.395    2.6330
   31.410    2.8963
   31.425    2.5979
   31.440    2.2292
   31.455    2.3521
   31.470    2.4925
   31.485    2.6505
   31.500    2.8085
   31.515    2.3872
   31.530    2.4574
   31.545    2.4399
   31.560    2.5101
   31.575    2.9489
   31.590    2.9314
   31.605    2.6681
   31.620    2.7207
   31.635    2.7032
   31.650    2.6505
   31.665    2.8436
   31.680    3.0191
   31.695    2.7032
   31.710    2.7383
   31.725    2.8260
   31.740    3.3351
   31.755    3.6335
   31.770    3.2122
   31.785    3.7564
   31.800    4.1425
   31.815    3.8266
   31.830    3.5808
   31.845    3.2473
   31.860    3.0191
   31.875    3.2649
   31.890    2.7909
   31.905    2.9138
   31.920    2.7383
   31.935    2.8260
   31.950    2.7734
   31.965    3.0367
   31.980    3.4053
   31.995    2.9840
   32.010    2.9665
   32.025    3.5984
   32.040    4.3707
   32.055    5.7399
   32.070    7.4425
   32.085    8.0393
   32.100    7.2494
   32.115    7.4776
   32.130    6.3191
   32.145    4.9675
   32.160    4.0372
   32.175    3.0016
   32.190    2.8436
   32.205    2.8260
   32.220    2.6505
   32.235    2.7207
   32.250    2.7558
   32.265    2.5276
   32.280    2.5979
   32.295    2.4223
   32.310    2.6330
   32.325    2.8085
   32.340    2.7032
   32.355    2.3521
   32.370    2.5276
   32.385    2.8085
   32.400    2.7734
   32.415    2.8787
   32.430    2.5276
   32.445    2.5628
   32.460    2.7558
   32.475    2.8260
   32.490    2.6330
   32.505    2.5276
   32.520    2.4925
   32.535    2.6856
   32.550    2.5101
   32.565    2.5452
   32.580    2.8787
   32.595    2.9314
   32.610    2.6330
   32.625    2.5803
   32.640    2.4925
   32.655    2.6505
   32.670    2.8612
   32.685    2.7032
   32.700    2.5979
   32.715    2.5979
   32.730    2.7734
   32.745    2.8612
   32.760    2.3521
   32.775    2.5628
   32.790    2.2819
   32.805    2.5979
   32.820    2.7558
   32.835    2.9840
   32.850    2.6681
   32.865    2.2819
   32.880    2.4750
   32.895    2.6505
   32.910    2.6681
   32.925    2.7383
   32.940    2.6330
   32.955    2.6681
   32.970    2.4223
   32.985    2.2643
   33.000    2.2117
   33.015    2.6330
   33.030    2.6681
   33.045    2.5452
   33.060    2.5276
   33.075    2.4399
   33.090    2.4750
   33.105    2.6505
   33.120    2.6154
   33.135    2.5276
   33.150    2.4750
   33.165    2.5276
   33.180    2.7909
   33.195    2.8787
   33.210    2.5628
   33.225    2.7558
   33.240    2.7383
   33.255    2.4925
   33.270    2.6154
   33.285    2.5276
   33.300    2.3872
   33.315    2.5452
   33.330    2.5803
   33.345    2.7383
   33.360    2.6330
   33.375    2.3346
   33.390    2.4750
   33.405    2.4750
   33.420    2.4399
   33.435    2.6154
   33.450    2.4925
   33.465    2.6330
   33.480    2.4750
   33.495    2.1941
   33.510    2.6330
   33.525    2.6154
   33.540    2.4399
   33.555    2.4750
   33.570    2.2468
   33.585    2.4399
   33.600    2.6154
   33.615    2.3521
   33.630    2.6330
   33.645    2.4574
   33.660    2.1239
   33.675    2.4048
   33.690    2.2995
   33.705    2.4223
   33.720    2.5276
   33.735    2.4399
   33.750    3.1069
   33.765    3.1245
   33.780    4.0197
   33.795    4.1250
   33.810    4.5463
   33.825    4.1250
   33.840    3.9846
   33.855    3.8090
   33.870    3.3351
   33.885    2.6154
   33.900    2.4048
   33.915    2.6330
   33.930    2.6681
   33.945    2.8612
   33.960    2.8260
   33.975    2.9314
   33.990    2.9314
   34.005    2.7383
   34.020    3.0542
   34.035    2.4574
   34.050    2.9314
   34.065    2.6154
   34.080    2.4223
   34.095    2.6330
   34.110    2.8436
   34.125    2.6856
   34.140    2.6856
   34.155    2.6154
   34.170    2.3697
   34.185    2.6154
   34.200    2.6154
   34.215    2.4223
   34.230    2.5979
   34.245    2.3697
   34.260    2.5101
   34.275    2.6330
   34.290    2.2468
   34.305    2.1766
   34.320    2.2292
   34.335    2.3521
   34.350    2.0713
   34.365    2.2819
   34.380    2.4750
   34.395    2.4399
   34.410    2.3872
   34.425    2.3697
   34.440    2.2643
   34.455    2.6505
   34.470    2.5628
   34.485    2.4048
   34.500    2.4574
   34.515    2.5452
   34.530    2.8787
   34.545    2.4048
   34.560    2.5101
   34.575    2.7032
   34.590    2.7207
   34.605    2.4048
   34.620    2.4574
   34.635    2.5628
   34.650    2.2819
   34.665    2.5979
   34.680    2.1590
   34.695    2.4048
   34.710    2.2292
   34.725    2.2995
   34.740    2.6505
   34.755    2.2819
   34.770    2.2117
   34.785    2.3697
   34.800    2.4925
   34.815    2.4750
   34.830    2.4399
   34.845    2.4048
   34.860    2.5101
   34.875    2.5101
   34.890    2.4925
   34.905    2.8436
   34.920    2.4223
   34.935    2.5276
   34.950    2.2819
   34.965    2.2468
   34.980    2.5452
   34.995    2.5101
   35.010    2.3872
   35.025    2.3521
   35.040    2.5101
   35.055    2.6856
   35.070    2.8260
   35.085    2.5101
   35.100    2.3697
   35.115    2.3346
   35.130    2.2819
   35.145    2.5101
   35.160    2.3697
   35.175    2.1941
   35.190    2.2819
   35.205    2.2468
   35.220    2.2819
   35.235    2.3697
   35.250    2.6154
   35.265    2.1941
   35.280    2.1590
   35.295    2.2819
   35.310    2.0713
   35.325    2.2995
   35.340    2.4048
   35.355    2.5452
   35.370    2.5452
   35.385    2.5276
   35.400    2.4750
   35.415    2.4750
   35.430    2.5101
   35.445    2.5628
   35.460    2.3170
   35.475    2.4399
   35.490    2.1766
   35.505    2.5276
   35.520    2.5101
   35.535    2.4048
   35.550    2.5979
   35.565    2.5276
   35.580    2.5452
   35.595    2.6505
   35.610    2.5803
   35.625    2.3346
   35.640    2.2995
   35.655    2.5979
   35.670    2.1941
   35.685    2.2819
   35.700    2.1590
   35.715    2.1590
   35.730    2.3521
   35.745    2.6154
   35.760    2.4048
   35.775    2.4750
   35.790    2.5803
   35.805    2.5628
   35.820    2.4048
   35.835    2.4750
   35.850    2.4925
   35.865    2.4574
   35.880    2.4750
   35.895    2.8612
   35.910    2.5101
   35.925    2.2643
   35.940    2.5276
   35.955    2.4925
   35.970    2.0186
   35.985    2.2292
   36.000    2.3697
   36.015    2.4750
   36.030    2.3170
   36.045    2.5628
   36.060    2.3346
   36.075    2.5276
   36.090    2.5979
   36.105    2.5452
   36.120    2.4223
   36.135    2.2468
   36.150    2.5628
   36.165    2.3521
   36.180    2.5803
   36.195    2.5803
   36.210    2.3521
   36.225    2.3346
   36.240    2.3872
   36.255    2.3170
   36.270    2.3346
   36.285    2.3697
   36.300    2.5276
   36.315    2.4925
   36.330    2.4223
   36.345    2.2819
   36.360    2.4399
   36.375    2.3521
   36.390    2.4223
   36.405    2.2819
   36.420    2.7032
   36.435    2.7558
   36.450    2.4399
   36.465    2.4750
   36.480    2.2643
   36.495    2.3170
   36.510    2.3521
   36.525    2.0888
   36.540    2.3346
   36.555    2.5452
   36.570    2.3346
   36.585    2.5101
   36.600    2.4750
   36.615    2.5803
   36.630    2.1415
   36.645    2.6681
   36.660    2.6154
   36.675    2.4925
   36.690    2.8260
   36.705    2.4048
   36.720    2.3697
   36.735    2.3170
   36.750    2.5101
   36.765    2.4048
   36.780    2.0888
   36.795    2.4399
   36.810    2.5979
   36.825    2.3170
   36.840    2.3521
   36.855    2.3872
   36.870    2.4750
   36.885    2.5628
   36.900    2.3170
   36.915    2.3872
   36.930    2.4574
   36.945    2.2995
   36.960    2.5452
   36.975    2.4399
   36.990    2.3346
   37.005    2.4048
   37.020    2.4399
   37.035    2.0186
   37.050    2.4048
   37.065    2.0888
   37.080    2.5803
   37.095    2.3170
   37.110    2.4048
   37.125    2.5628
   37.140    2.5979
   37.155    2.3170
   37.170    2.4925
   37.185    2.0888
   37.200    2.1239
   37.215    2.2468
   37.230    2.1766
   37.245    2.2117
   37.260    2.2117
   37.275    2.2643
   37.290    2.4399
   37.305    2.2117
   37.320    2.2292
   37.335    2.2819
   37.350    2.3346
   37.365    2.4399
   37.380    2.6330
   37.395    2.7207
   37.410    2.5452
   37.425    2.5276
   37.440    2.2995
   37.455    2.2995
   37.470    1.9659
   37.485    2.2292
   37.500    2.6681
   37.515    2.1064
   37.530    2.3346
   37.545    2.2995
   37.560    2.1941
   37.575    2.1415
   37.590    2.2292
   37.605    2.2292
   37.620    2.1941
   37.635    2.2643
   37.650    2.2643
   37.665    2.4750
   37.680    2.2819
   37.695    2.3872
   37.710    2.2643
   37.725    2.1941
   37.740    2.2643
   37.755    2.6856
   37.770    2.7032
   37.785    2.5979
   37.800    2.3170
   37.815    2.3346
   37.830    2.3521
   37.845    2.3697
   37.860    2.2117
   37.875    2.5979
   37.890    2.2995
   37.905    2.0713
   37.920    2.3170
   37.935    2.3872
   37.950    2.2995
   37.965    2.4399
   37.980    2.3170
   37.995    2.4750
   38.010    2.1941
   38.025    2.1590
   38.040    2.5452
   38.055    2.5101
   38.070    2.2292
   38.085    2.4574
   38.100    2.7734
   38.115    2.4574
   38.130    2.2819
   38.145    2.5101
   38.160    2.0186
   38.175    2.5101
   38.190    2.5101
   38.205    2.2468
   38.220    2.1064
   38.235    2.1766
   38.250    2.2995
   38.265    2.2995
   38.280    2.3697
   38.295    2.4048
   38.310    2.3521
   38.325    2.2643
   38.340    2.0186
   38.355    2.4223
   38.370    2.5803
   38.385    2.5979
   38.400    2.2468
   38.415    2.2117
   38.430    2.2995
   38.445    2.1239
   38.460    2.2468
   38.475    2.4750
   38.490    2.2643
   38.505    2.1766
   38.520    2.3697
   38.535    2.6505
   38.550    2.7383
   38.565    3.0893
   38.580    3.2824
   38.595    3.4931
   38.610    3.3702
   38.625    2.7909
   38.640    2.5628
   38.655    2.5101
   38.670    2.4574
   38.685    2.2819
   38.700    2.4399
   38.715    2.3346
   38.730    2.5628
   38.745    2.4399
   38.760    2.3872
   38.775    2.5979
   38.790    2.3697
   38.805    2.2292
   38.820    2.7032
   38.835    2.5452
   38.850    2.4048
   38.865    2.4223
   38.880    2.3170
   38.895    2.2995
   38.910    2.1239
   38.925    2.3170
   38.940    2.4223
   38.955    2.5101
   38.970    2.3697
   38.985    2.4574
   39.000    2.2292
   39.015    2.2468
   39.030    2.3872
   39.045    2.2292
   39.060    2.4750
   39.075    2.4925
   39.090    2.1239
   39.105    2.2117
   39.120    2.3872
   39.135    2.2468
   39.150    2.2819
   39.165    2.1590
   39.180    2.2643
   39.195    2.1941
   39.210    2.2292
   39.225    2.2819
   39.240    2.2117
   39.255    2.2643
   39.270    2.2819
   39.285    2.1941
   39.300    1.9835
   39.315    2.3170
   39.330    2.3346
   39.345    2.2995
   39.360    2.1941
   39.375    2.0888
   39.390    1.9835
   39.405    2.1590
   39.420    2.2292
   39.435    2.1239
   39.450    2.5803
   39.465    2.3872
   39.480    2.6154
   39.495    2.1941
   39.510    2.2643
   39.525    2.4750
   39.540    1.9133
   39.555    2.2468
   39.570    2.2643
   39.585    2.0888
   39.600    2.2468
   39.615    2.3521
   39.630    2.2292
   39.645    2.1766
   39.660    2.0186
   39.675    1.7904
   39.690    2.1415
   39.705    2.3346
   39.720    2.2468
   39.735    2.2468
   39.750    2.3521
   39.765    2.1239
   39.780    2.1766
   39.795    2.0362
   39.810    2.5276
   39.825    2.3697
   39.840    2.1590
   39.855    2.2468
   39.870    2.3346
   39.885    2.2643
   39.900    2.2117
   39.915    2.3521
   39.930    2.1415
   39.945    2.0011
   39.960    2.2468
   39.975    2.1415
   39.990    2.2819
