    1.500   28.6783
    1.515   28.8678
    1.530   28.4887
    1.545   27.6356
    1.560   26.6456
    1.575   26.0348
    1.590   25.7188
    1.605   25.0448
    1.620   24.8657
    1.635   24.1601
    1.650   23.7283
    1.665   22.6224
    1.680   22.1801
    1.695   21.7799
    1.710   22.0116
    1.725   22.0642
    1.740   20.8847
    1.755   20.2212
    1.770   20.2212
    1.785   20.2422
    1.800   19.5682
    1.815   19.1575
    1.830   18.8415
    1.845   18.2412
    1.860   17.5671
    1.875   17.8726
    1.890   17.8410
    1.905   17.2512
    1.920   16.9247
    1.935   17.0721
    1.950   16.6403
    1.965   15.9663
    1.980   15.3133
    1.995   15.3449
    2.010   15.6609
    2.025   15.4081
    2.040   14.8710
    2.055   14.7551
    2.070   14.6077
    2.085   13.5861
    2.100   14.0600
    2.115   13.7757
    2.130   13.7125
    2.145   13.7441
    2.160   12.8067
    2.175   12.4908
    2.190   12.6593
    2.205   12.3433
    2.220   12.4381
    2.235   12.5118
    2.250   12.2907
    2.265   11.8483
    2.280   12.3749
    2.295   11.5956
    2.310   11.3849
    2.325   11.1111
    2.340   10.7636
    2.355   11.7325
    2.370   10.9637
    2.385   11.0058
    2.400   10.8794
    2.415   10.8268
    2.430   10.6372
    2.445   10.3633
    2.460   10.0579
    2.475   10.1948
    2.490   10.0474
    2.505   10.3107
    2.520    9.8894
    2.535    9.4471
    2.550    9.5524
    2.565    9.6472
    2.580    9.5208
    2.595    9.4471
    2.610    9.4787
    2.625    9.6893
    2.640    9.7420
    2.655    9.0469
    2.670    8.8257
    2.685    9.1101
    2.700    8.5097
    2.715    8.4466
    2.730    8.6361
    2.745    8.4466
    2.760    8.4676
    2.775    8.3412
    2.790    8.3834
    2.805    7.8252
    2.820    8.1411
    2.835    8.3834
    2.850    8.0358
    2.865    7.7936
    2.880    7.8462
    2.895    7.8146
    2.910    7.5829
    2.925    8.1622
    2.940    7.6567
    2.955    7.8778
    2.970    7.7093
    2.985    7.5724
    3.000    7.5513
    3.015    7.3091
    3.030    7.2670
    3.045    7.5513
    3.060    7.3723
    3.075    7.3302
    3.090    7.0037
    3.105    7.0879
    3.120    6.9826
    3.135    6.9616
    3.150    6.9300
    3.165    6.6035
    3.180    6.8352
    3.195    6.8036
    3.210    7.0142
    3.225    6.7193
    3.240    6.5508
    3.255    6.6772
    3.270    6.7930
    3.285    6.7193
    3.300    6.8141
    3.315    6.8141
    3.330    6.7720
    3.345    6.4455
    3.360    6.6035
    3.375    6.6351
    3.390    5.8768
    3.405    5.9189
    3.420    6.5824
    3.435    6.3718
    3.450    6.4982
    3.465    6.1085
    3.480    5.4660
    3.495    5.9084
    3.510    6.6561
    3.525    6.3928
    3.540    6.0979
    3.555    6.1717
    3.570    5.8978
    3.585    5.8768
    3.600    5.9084
    3.615    5.9084
    3.630    5.6977
    3.645    5.6135
    3.660    5.9716
    3.675    5.7715
    3.690    5.8557
    3.705    5.8241
    3.720    5.7399
    3.735    5.7609
    3.750    6.0874
    3.765    6.0032
    3.780    6.3823
    3.795    5.5819
    3.810    5.3712
    3.825    5.9505
    3.840    5.9084
    3.855    5.5082
    3.870    5.6135
    3.885    5.5082
    3.900    5.6345
    3.915    5.3186
    3.930    5.5714
    3.945    5.5503
    3.960    5.4028
    3.975    5.8347
    3.990    5.3081
    4.005    5.4766
    4.020    5.4239
    4.035    5.4134
    4.050    5.2133
    4.065    5.3607
    4.080    5.1290
    4.095    5.3397
    4.110    5.4555
    4.125    5.4450
    4.140    5.1290
    4.155    4.7604
    4.170    5.5398
    4.185    5.0237
    4.200    4.8447
    4.215    5.4450
    4.230    5.0974
    4.245    5.1922
    4.260    5.3607
    4.275    5.3081
    4.290    5.2343
    4.305    5.2975
    4.320    5.2554
    4.335    5.2343
    4.350    5.0658
    4.365    5.0764
    4.380    5.1711
    4.395    5.0869
    4.410    4.8763
    4.425    4.9710
    4.440    4.8973
    4.455    4.7393
    4.470    5.0342
    4.485    4.9921
    4.500    5.1395
    4.515    5.1290
    4.530    4.9605
    4.545    4.9078
    4.560    4.8131
    4.575    4.9184
    4.590    4.2970
    4.605    4.8025
    4.620    4.5814
    4.635    4.8131
    4.650    4.7815
    4.665    4.9184
    4.680    4.7920
    4.695    4.9710
    4.710    5.1395
    4.725    4.7604
    4.740    4.4971
    4.755    4.6761
    4.770    4.5287
    4.785    4.7077
    4.800    4.5287
    4.815    4.8447
    4.830    4.4760
    4.845    4.4339
    4.860    4.2865
    4.875    4.5603
    4.890    4.1811
    4.905    4.4128
    4.920    4.0864
    4.935    4.4234
    4.950    4.3497
    4.965    4.3391
    4.980    4.4234
    4.995    4.2549
    5.010    4.0758
    5.025    4.3813
    5.040    4.5919
    5.055    4.3813
    5.070    4.1496
    5.085    4.3497
    5.100    3.9916
    5.115    4.1917
    5.130    4.5603
    5.145    4.2759
    5.160    4.4339
    5.175    4.5182
    5.190    4.3075
    5.205    4.1811
    5.220    4.1917
    5.235    4.2654
    5.250    4.3918
    5.265    3.9916
    5.280    3.8441
    5.295    4.3813
    5.310    4.1706
    5.325    4.1074
    5.340    4.2549
    5.355    4.3075
    5.370    4.0969
    5.385    4.2654
    5.400    4.1706
    5.415    4.0548
    5.430    4.1180
    5.445    4.1496
    5.460    4.2654
    5.475    4.4339
    5.490    4.3707
    5.505    4.4023
    5.520    4.2654
    5.535    4.0864
    5.550    4.0969
    5.565    3.8547
    5.580    4.0548
    5.595    4.0653
    5.610    3.8863
    5.625    4.0126
    5.640    4.0969
    5.655    4.0442
    5.670    4.0442
    5.685    3.6756
    5.700    4.2338
    5.715    4.0337
    5.730    4.0232
    5.745    3.9389
    5.760    4.0021
    5.775    3.9600
    5.790    3.9179
    5.805    4.0442
    5.820    3.9916
    5.835    4.2759
    5.850    4.1180
    5.865    3.9284
    5.880    4.0126
    5.895    3.9705
    5.910    3.8757
    5.925    3.9916
    5.940    3.9179
    5.955    3.9600
    5.970    4.0126
    5.985    3.9705
    6.000    3.7072
    6.015    4.2654
    6.030    4.2127
    6.045    4.4128
    6.060    4.2022
    6.075    4.0232
    6.090    3.9600
    6.105    4.2443
    6.120    4.5498
    6.135    3.8125
    6.150    3.9494
    6.165    4.0021
    6.180    3.6124
    6.195    3.9916
    6.210    4.2338
    6.225    3.8968
    6.240    3.7388
    6.255    3.8020
    6.270    3.9073
    6.285    3.8757
    6.300    3.7493
    6.315    3.8441
    6.330    3.9916
    6.345    3.6124
    6.360    4.0758
    6.375    3.9073
    6.390    3.7599
    6.405    3.9600
    6.420    3.9284
    6.435    3.8757
    6.450    3.8125
    6.465    3.9705
    6.480    3.8968
    6.495    4.0864
    6.510    3.8441
    6.525    3.7915
    6.540    3.8125
    6.555    3.6124
    6.570    3.9179
    6.585    3.9810
    6.600    3.6756
    6.615    3.8863
    6.630    4.0864
    6.645    3.8652
    6.660    3.8336
    6.675    3.9073
    6.690    3.7493
    6.705    3.8652
    6.720    4.0864
    6.735    3.9073
    6.750    3.7809
    6.765    3.7493
    6.780    4.0653
    6.795    4.2549
    6.810    4.1285
    6.825    4.1180
    6.840    4.2970
    6.855    3.9916
    6.870    3.8441
    6.885    3.7809
    6.900    3.9073
    6.915    3.7704
    6.930    3.9705
    6.945    3.7599
    6.960    4.0653
    6.975    4.0548
    6.990    4.1496
    7.005    4.1074
    7.020    3.6440
    7.035    3.6651
    7.050    3.7915
    7.065    3.8652
    7.080    3.8020
    7.095    3.9916
    7.110    4.2338
    7.125    4.0442
    7.140    4.0126
    7.155    4.0442
    7.170    4.1601
    7.185    3.8547
    7.200    3.9284
    7.215    4.1601
    7.230    3.8336
    7.245    3.8652
    7.260    3.7915
    7.275    3.6651
    7.290    4.2022
    7.305    4.0758
    7.320    3.7915
    7.335    3.7177
    7.350    3.8547
    7.365    3.8757
    7.380    3.8968
    7.395    3.5703
    7.410    3.7283
    7.425    3.6756
    7.440    3.8652
    7.455    3.6440
    7.470    3.6862
    7.485    3.8020
    7.500    4.0442
    7.515    4.0548
    7.530    3.9600
    7.545    3.6756
    7.560    3.7809
    7.575    4.0758
    7.590    4.1601
    7.605    3.9600
    7.620    3.9284
    7.635    4.2022
    7.650    3.6862
    7.665    3.7915
    7.680    4.0126
    7.695    4.0442
    7.710    4.1917
    7.725    3.9916
    7.740    4.1496
    7.755    3.8336
    7.770    3.8020
    7.785    3.8863
    7.800    3.6756
    7.815    3.5914
    7.830    3.7493
    7.845    4.2865
    7.860    4.2338
    7.875    4.0021
    7.890    4.1601
    7.905    3.9284
    7.920    4.1601
    7.935    3.9705
    7.950    4.1390
    7.965    3.8336
    7.980    3.6546
    7.995    4.2233
    8.010    4.4971
    8.025    3.8968
    8.040    4.0548
    8.055    3.8757
    8.070    4.0232
    8.085    3.9916
    8.100    3.7809
    8.115    4.1601
    8.130    3.7599
    8.145    3.8652
    8.160    3.8968
    8.175    4.0864
    8.190    3.9810
    8.205    3.6967
    8.220    3.8652
    8.235    4.0126
    8.250    3.8336
    8.265    4.0442
    8.280    3.8441
    8.295    3.8125
    8.310    3.7915
    8.325    3.8441
    8.340    3.9284
    8.355    4.1917
    8.370    3.7704
    8.385    3.7915
    8.400    3.8757
    8.415    3.9179
    8.430    4.0337
    8.445    4.0548
    8.460    3.9284
    8.475    3.6967
    8.490    3.9179
    8.505    3.6967
    8.520    4.0548
    8.535    3.7809
    8.550    3.7177
    8.565    3.7704
    8.580    3.7599
    8.595    3.9600
    8.610    3.9389
    8.625    4.0653
    8.640    3.7704
    8.655    3.7072
    8.670    3.9705
    8.685    4.1074
    8.700    3.7493
    8.715    4.3075
    8.730    4.1811
    8.745    4.1285
    8.760    4.0232
    8.775    3.8441
    8.790    3.7177
    8.805    3.5703
    8.820    3.4755
    8.835    3.5598
    8.850    3.9073
    8.865    3.7177
    8.880    3.7915
    8.895    3.7388
    8.910    3.7388
    8.925    3.7283
    8.940    3.9916
    8.955    3.9073
    8.970    3.9916
    8.985    4.1074
    9.000    3.7493
    9.015    3.8231
    9.030    3.6967
    9.045    3.6862
    9.060    3.9705
    9.075    3.9705
    9.090    3.7599
    9.105    3.7809
    9.120    3.9494
    9.135    3.6651
    9.150    3.9494
    9.165    3.7493
    9.180    3.6019
    9.195    3.5808
    9.210    3.5176
    9.225    3.6440
    9.240    3.6967
    9.255    3.9705
    9.270    3.7283
    9.285    3.7599
    9.300    4.1180
    9.315    3.9494
    9.330    3.9284
    9.345    3.6440
    9.360    3.6756
    9.375    3.6756
    9.390    3.4650
    9.405    3.8757
    9.420    3.8652
    9.435    3.7809
    9.450    3.9179
    9.465    4.0442
    9.480    4.0126
    9.495    3.8020
    9.510    3.4860
    9.525    3.5598
    9.540    3.6756
    9.555    3.6862
    9.570    3.8336
    9.585    3.7177
    9.600    3.7388
    9.615    3.7283
    9.630    3.6335
    9.645    3.5282
    9.660    3.6862
    9.675    3.5387
    9.690    4.0021
    9.705    3.8231
    9.720    3.7493
    9.735    3.7915
    9.750    3.9494
    9.765    3.8336
    9.780    3.7915
    9.795    3.6124
    9.810    3.8547
    9.825    3.7283
    9.840    3.8863
    9.855    3.7177
    9.870    3.4229
    9.885    4.1601
    9.900    4.0758
    9.915    3.8652
    9.930    3.6440
    9.945    3.8020
    9.960    3.6335
    9.975    3.4018
    9.990    3.9179
   10.005    3.8757
   10.020    3.8020
   10.035    3.6124
   10.050    3.4860
   10.065    3.7915
   10.080    3.6756
   10.095    3.6756
   10.110    3.8020
   10.125    3.7599
   10.140    3.8336
   10.155    3.9073
   10.170    3.6967
   10.185    4.2022
   10.200    3.9494
   10.215    3.8231
   10.230    3.7704
   10.245    3.8020
   10.260    3.8336
   10.275    3.8231
   10.290    3.8231
   10.305    3.6546
   10.320    3.6862
   10.335    3.6862
   10.350    3.7599
   10.365    3.5176
   10.380    3.6862
   10.395    3.7704
   10.410    3.7915
   10.425    3.9389
   10.440    3.6967
   10.455    3.8441
   10.470    3.7599
   10.485    3.4860
   10.500    3.3702
   10.515    3.6124
   10.530    3.8968
   10.545    3.8336
   10.560    3.6335
   10.575    3.5282
   10.590    3.8231
   10.605    3.7599
   10.620    3.5071
   10.635    3.4755
   10.650    3.7599
   10.665    3.8336
   10.680    3.5808
   10.695    3.5387
   10.710    3.6440
   10.725    3.4860
   10.740    3.7809
   10.755    3.5703
   10.770    3.5176
   10.785    3.8020
   10.800    3.8336
   10.815    3.4650
   10.830    3.5282
   10.845    3.3175
   10.860    3.6230
   10.875    3.6335
   10.890    3.4123
   10.905    3.2754
   10.920    3.6967
   10.935    3.5598
   10.950    3.3175
   10.965    3.4123
   10.980    3.4755
   10.995    3.6862
   11.010    3.7177
   11.025    3.6335
   11.040    3.6967
   11.055    3.8757
   11.070    3.5387
   11.085    3.7388
   11.100    3.4966
   11.115    3.5176
   11.130    3.5071
   11.145    3.2859
   11.160    3.3913
   11.175    3.6019
   11.190    3.9600
   11.205    3.7388
   11.220    3.7704
   11.235    3.5703
   11.250    3.6124
   11.265    3.6651
   11.280    3.3597
   11.295    3.4544
   11.310    3.6862
   11.325    3.7388
   11.340    3.6651
   11.355    3.3702
   11.370    3.4650
   11.385    3.5703
   11.400    3.3070
   11.415    3.5703
   11.430    3.5282
   11.445    3.4544
   11.460    3.7283
   11.475    3.5282
   11.490    3.3386
   11.505    3.7704
   11.520    3.4966
   11.535    3.5598
   11.550    3.3807
   11.565    3.7388
   11.580    3.4229
   11.595    3.4544
   11.610    3.4018
   11.625    3.2965
   11.640    3.4860
   11.655    3.7072
   11.670    3.6651
   11.685    3.7388
   11.700    3.8863
   11.715    3.4650
   11.730    3.7915
   11.745    3.8020
   11.760    3.7072
   11.775    3.7072
   11.790    3.3386
   11.805    3.5387
   11.820    3.3913
   11.835    3.6230
   11.850    3.6230
   11.865    3.4334
   11.880    3.3807
   11.895    3.4755
   11.910    3.5703
   11.925    3.4966
   11.940    3.6124
   11.955    3.7809
   11.970    3.3070
   11.985    3.5176
   12.000    3.5808
   12.015    3.3807
   12.030    3.3913
   12.045    3.7493
   12.060    3.5914
   12.075    3.4123
   12.090    3.3807
   12.105    3.6124
   12.120    3.7283
   12.135    3.6019
   12.150    3.5598
   12.165    3.5703
   12.180    3.4229
   12.195    3.2438
   12.210    3.5808
   12.225    3.5387
   12.240    3.6335
   12.255    3.4439
   12.270    3.2859
   12.285    3.4334
   12.300    3.7072
   12.315    3.7493
   12.330    3.5703
   12.345    3.5387
   12.360    3.3386
   12.375    3.3597
   12.390    3.2543
   12.405    3.5387
   12.420    3.4966
   12.435    3.4650
   12.450    3.2965
   12.465    3.4650
   12.480    3.6124
   12.495    3.3807
   12.510    3.2017
   12.525    3.4018
   12.540    3.6335
   12.555    3.8547
   12.570    3.5808
   12.585    3.4860
   12.600    3.6651
   12.615    3.3386
   12.630    3.5492
   12.645    3.5387
   12.660    3.3702
   12.675    3.3807
   12.690    3.6019
   12.705    3.4439
   12.720    3.2859
   12.735    3.6546
   12.750    3.7283
   12.765    3.4860
   12.780    3.4123
   12.795    3.2017
   12.810    3.6440
   12.825    3.4123
   12.840    3.5492
   12.855    3.3807
   12.870    3.4860
   12.885    3.5703
   12.900    3.3175
   12.915    3.3913
   12.930    3.3281
   12.945    3.6019
   12.960    3.6230
   12.975    3.4966
   12.990    3.5808
   13.005    3.6440
   13.020    3.1701
   13.035    3.2859
   13.050    3.3070
   13.065    3.5387
   13.080    3.4755
   13.095    3.2122
   13.110    3.4123
   13.125    3.1490
   13.140    3.4229
   13.155    3.4334
   13.170    3.6124
   13.185    3.4018
   13.200    3.1174
   13.215    3.4860
   13.230    3.4966
   13.245    3.3281
   13.260    3.1490
   13.275    3.1174
   13.290    3.4334
   13.305    3.3807
   13.320    3.7283
   13.335    3.5914
   13.350    3.3913
   13.365    3.1806
   13.380    3.3913
   13.395    3.1385
   13.410    3.2227
   13.425    3.3491
   13.440    3.3386
   13.455    3.4229
   13.470    3.3807
   13.485    3.4229
   13.500    3.5492
   13.515    3.3175
   13.530    3.2965
   13.545    3.4755
   13.560    3.4755
   13.575    3.1385
   13.590    3.3702
   13.605    3.5387
   13.620    3.7072
   13.635    3.4966
   13.650    3.4860
   13.665    3.3807
   13.680    3.2754
   13.695    3.4439
   13.710    3.5808
   13.725    3.3491
   13.740    3.2859
   13.755    3.3070
   13.770    3.4018
   13.785    3.4650
   13.800    3.4334
   13.815    3.4229
   13.830    3.4123
   13.845    3.2754
   13.860    3.3702
   13.875    3.4018
   13.890    3.3913
   13.905    3.1490
   13.920    3.4123
   13.935    3.4755
   13.950    3.4439
   13.965    3.5282
   13.980    3.2333
   13.995    3.0332
   14.010    3.2227
   14.025    3.4966
   14.040    3.3702
   14.055    3.3386
   14.070    3.4334
   14.085    3.6124
   14.100    3.3281
   14.115    3.5703
   14.130    3.3702
   14.145    3.3913
   14.160    3.2438
   14.175    3.5282
   14.190    3.3175
   14.205    3.2965
   14.220    3.7072
   14.235    3.4544
   14.250    3.2122
   14.265    3.2543
   14.280    3.3386
   14.295    3.1385
   14.310    3.3386
   14.325    3.1385
   14.340    3.2333
   14.355    3.1806
   14.370    3.2754
   14.385    3.2649
   14.400    3.4544
   14.415    3.4123
   14.430    3.4544
   14.445    3.4544
   14.460    3.5598
   14.475    3.1912
   14.490    3.2859
   14.505    3.4018
   14.520    3.0858
   14.535    3.4334
   14.550    3.7072
   14.565    3.3386
   14.580    3.3807
   14.595    3.2438
   14.610    3.3807
   14.625    3.1385
   14.640    3.5703
   14.655    3.5387
   14.670    3.2754
   14.685    3.3702
   14.700    3.5282
   14.715    3.2754
   14.730    3.4650
   14.745    3.2859
   14.760    3.2754
   14.775    3.4650
   14.790    3.2543
   14.805    3.1174
   14.820    3.5808
   14.835    3.5492
   14.850    3.3070
   14.865    3.2649
   14.880    3.4966
   14.895    3.4229
   14.910    3.4966
   14.925    3.4544
   14.940    3.2649
   14.955    3.4966
   14.970    3.5492
   14.985    3.3913
   15.000    3.4018
   15.015    3.2754
   15.030    2.9595
   15.045    3.3281
   15.060    3.3597
   15.075    3.4544
   15.090    3.2965
   15.105    3.2227
   15.120    3.1069
   15.135    3.2754
   15.150    3.3281
   15.165    3.1280
   15.180    3.2227
   15.195    3.3070
   15.210    3.5808
   15.225    3.3175
   15.240    3.4334
   15.255    3.1806
   15.270    3.1701
   15.285    3.2017
   15.300    3.3702
   15.315    3.1701
   15.330    3.0648
   15.345    3.1280
   15.360    3.3807
   15.375    3.4229
   15.390    2.9595
   15.405    3.1596
   15.420    3.2754
   15.435    3.6124
   15.450    3.0121
   15.465    3.2965
   15.480    3.4018
   15.495    3.4018
   15.510    3.4860
   15.525    3.7072
   15.540    3.5808
   15.555    3.2438
   15.570    3.2227
   15.585    3.3175
   15.600    3.2754
   15.615    3.1912
   15.630    3.4123
   15.645    3.3597
   15.660    3.3702
   15.675    3.4018
   15.690    3.4018
   15.705    3.3386
   15.720    3.3175
   15.735    3.0964
   15.750    2.9805
   15.765    3.4755
   15.780    3.4439
   15.795    3.6019
   15.810    3.7072
   15.825    3.4544
   15.840    3.5492
   15.855    3.6967
   15.870    3.4018
   15.885    3.2333
   15.900    3.4334
   15.915    3.2543
   15.930    3.4123
   15.945    3.3597
   15.960    3.2543
   15.975    3.4860
   15.990    3.4544
   16.005    3.4018
   16.020    3.2859
   16.035    3.4334
   16.050    3.3597
   16.065    3.4439
   16.080    3.3281
   16.095    3.4544
   16.110    3.5176
   16.125    3.4755
   16.140    3.3913
   16.155    3.6230
   16.170    3.5176
   16.185    3.3597
   16.200    3.3807
   16.215    3.3597
   16.230    3.5703
   16.245    3.3597
   16.260    3.4650
   16.275    3.2333
   16.290    3.4439
   16.305    3.4966
   16.320    3.3913
   16.335    3.1174
   16.350    3.5176
   16.365    3.5282
   16.380    3.3597
   16.395    3.4544
   16.410    3.3386
   16.425    3.3913
   16.440    3.4966
   16.455    3.3281
   16.470    3.4544
   16.485    3.4966
   16.500    3.2543
   16.515    3.3597
   16.530    3.2965
   16.545    3.0226
   16.560    3.2227
   16.575    3.5492
   16.590    3.6651
   16.605    3.6756
   16.620    3.4334
   16.635    3.4229
   16.650    3.3807
   16.665    3.4966
   16.680    3.4439
   16.695    3.3807
   16.710    3.2017
   16.725    3.0858
   16.740    3.2438
   16.755    3.5282
   16.770    3.5492
   16.785    3.3702
   16.800    3.4755
   16.815    3.2965
   16.830    3.4229
   16.845    3.2333
   16.860    3.4229
   16.875    3.4018
   16.890    3.5176
   16.905    3.6124
   16.920    3.6546
   16.935    3.6546
   16.950    3.4755
   16.965    3.5176
   16.980    3.2965
   16.995    3.0121
   17.010    3.3491
   17.025    3.2965
   17.040    3.4860
   17.055    3.4860
   17.070    3.3386
   17.085    3.3807
   17.100    3.4018
   17.115    3.2754
   17.130    3.2965
   17.145    3.2859
   17.160    3.3070
   17.175    3.2754
   17.190    3.0964
   17.205    3.0016
   17.220    3.2965
   17.235    3.4123
   17.250    3.5492
   17.265    3.3913
   17.280    3.3070
   17.295    3.4018
   17.310    3.3491
   17.325    3.1069
   17.340    3.3807
   17.355    3.4544
   17.370    3.2543
   17.385    3.5808
   17.400    3.4439
   17.415    3.2754
   17.430    3.3281
   17.445    3.5387
   17.460    3.2438
   17.475    3.3807
   17.490    3.2754
   17.505    3.4755
   17.520    3.3702
   17.535    3.3597
   17.550    3.2438
   17.565    3.0858
   17.580    3.4439
   17.595    3.4755
   17.610    3.4229
   17.625    3.3913
   17.640    3.4123
   17.655    3.4334
   17.670    3.1806
   17.685    3.5282
   17.700    3.5598
   17.715    3.2859
   17.730    3.3597
   17.745    3.3597
   17.760    3.3702
   17.775    3.2754
   17.790    3.6230
   17.805    3.2754
   17.820    3.3070
   17.835    3.1912
   17.850    3.2965
   17.865    3.3702
   17.880    3.3807
   17.895    3.3702
   17.910    3.5808
   17.925    3.1596
   17.940    3.1596
   17.955    3.5598
   17.970    3.3281
   17.985    3.6124
   18.000    3.7599
   18.015    3.4755
   18.030    3.5598
   18.045    3.5808
   18.060    3.4650
   18.075    3.4229
   18.090    3.5703
   18.105    3.5703
   18.120    3.5808
   18.135    3.7809
   18.150    3.3281
   18.165    3.3702
   18.180    3.2859
   18.195    3.3070
   18.210    3.3386
   18.225    3.3175
   18.240    3.1701
   18.255    3.3702
   18.270    3.1912
   18.285    3.2122
   18.300    3.5176
   18.315    3.3491
   18.330    3.2122
   18.345    3.3175
   18.360    3.2438
   18.375    3.4123
   18.390    3.3807
   18.405    3.4229
   18.420    3.7704
   18.435    3.3175
   18.450    3.2754
   18.465    3.2438
   18.480    3.2543
   18.495    3.1596
   18.510    3.3386
   18.525    3.4860
   18.540    3.1596
   18.555    3.2543
   18.570    3.5914
   18.585    3.4229
   18.600    3.4334
   18.615    3.3070
   18.630    3.2965
   18.645    3.1806
   18.660    3.3807
   18.675    3.3070
   18.690    3.5808
   18.705    3.4860
   18.720    3.3491
   18.735    3.6019
   18.750    3.6124
   18.765    3.3702
   18.780    3.5176
   18.795    3.6230
   18.810    3.2649
   18.825    3.2649
   18.840    3.2017
   18.855    3.4229
   18.870    3.4966
   18.885    3.6546
   18.900    3.7388
   18.915    3.6124
   18.930    3.3491
   18.945    3.5176
   18.960    3.3491
   18.975    3.1912
   18.990    3.2965
   19.005    3.4334
   19.020    3.5703
   19.035    3.5914
   19.050    3.5176
   19.065    3.2122
   19.080    3.2754
   19.095    3.6546
   19.110    3.4966
   19.125    3.1806
   19.140    3.3807
   19.155    3.7809
   19.170    3.7072
   19.185    3.6335
   19.200    3.1596
   19.215    3.2859
   19.230    3.1174
   19.245    3.4439
   19.260    3.4966
   19.275    3.3386
   19.290    3.7388
   19.305    3.6230
   19.320    3.3175
   19.335    3.2965
   19.350    3.3913
   19.365    3.5176
   19.380    3.5176
   19.395    3.2543
   19.410    3.3386
   19.425    3.2017
   19.440    3.3597
   19.455    3.6230
   19.470    3.3807
   19.485    3.3281
   19.500    3.2754
   19.515    3.3913
   19.530    3.5598
   19.545    3.5808
   19.560    3.5387
   19.575    3.5387
   19.590    3.6440
   19.605    3.4755
   19.620    3.4860
   19.635    3.4123
   19.650    3.2965
   19.665    3.5176
   19.680    3.2227
   19.695    3.5176
   19.710    3.6862
   19.725    3.4018
   19.740    3.1596
   19.755    3.3491
   19.770    3.4018
   19.785    3.3386
   19.800    3.6651
   19.815    3.5703
   19.830    3.2754
   19.845    3.2333
   19.860    3.3807
   19.875    3.4439
   19.890    3.3807
   19.905    3.4755
   19.920    3.1596
   19.935    3.1701
   19.950    3.4439
   19.965    3.3807
   19.980    3.3281
   19.995    3.3807
   20.010    3.3913
   20.025    3.7177
   20.040    3.2859
   20.055    3.4860
   20.070    3.7177
   20.085    3.7177
   20.100    3.3702
   20.115    3.4544
   20.130    3.4018
   20.145    3.3913
   20.160    3.4229
   20.175    3.2333
   20.190    3.3386
   20.205    3.2754
   20.220    3.4860
   20.235    3.5071
   20.250    3.4650
   20.265    3.4018
   20.280    3.4334
   20.295    3.5703
   20.310    3.5282
   20.325    3.4439
   20.340    3.4334
   20.355    3.4860
   20.370    3.4439
   20.385    3.2017
   20.400    3.3386
   20.415    3.5387
   20.430    3.3070
   20.445    3.4229
   20.460    3.1596
   20.475    3.3386
   20.490    3.2649
   20.505    3.5598
   20.520    3.4755
   20.535    3.2754
   20.550    3.0332
   20.565    3.3807
   20.580    3.2754
   20.595    3.1490
   20.610    3.5808
   20.625    3.6862
   20.640    3.6756
   20.655    3.4334
   20.670    3.6756
   20.685    3.6230
   20.700    3.7283
   20.715    3.4966
   20.730    3.4966
   20.745    3.3175
   20.760    3.4439
   20.775    3.2227
   20.790    3.5387
   20.805    3.3597
   20.820    3.5176
   20.835    3.1806
   20.850    3.6335
   20.865    3.7809
   20.880    3.2122
   20.895    3.6124
   20.910    3.4229
   20.925    3.2227
   20.940    3.1596
   20.955    3.0121
   20.970    3.2859
   20.985    3.4018
   21.000    3.6967
   21.015    3.5176
   21.030    3.4544
   21.045    3.6230
   21.060    3.7388
   21.075    3.5282
   21.090    3.5808
   21.105    3.6546
   21.120    3.4544
   21.135    3.4123
   21.150    3.4123
   21.165    3.5282
   21.180    3.2333
   21.195    3.6546
   21.210    3.5492
   21.225    3.5808
   21.240    3.5176
   21.255    3.7915
   21.270    3.5176
   21.285    3.3070
   21.300    3.5071
   21.315    3.6230
   21.330    3.2965
   21.345    3.5492
   21.360    3.2543
   21.375    3.3175
   21.390    3.1806
   21.405    3.3491
   21.420    3.4544
   21.435    3.5808
   21.450    3.4544
   21.465    3.4966
   21.480    3.4123
   21.495    3.1490
   21.510    3.4018
   21.525    3.3807
   21.540    3.4650
   21.555    3.5703
   21.570    3.3807
   21.585    3.2859
   21.600    3.4860
   21.615    3.2438
   21.630    3.5703
   21.645    3.2333
   21.660    3.1069
   21.675    3.4334
   21.690    3.4650
   21.705    3.2859
   21.720    3.6335
   21.735    3.6546
   21.750    3.5071
   21.765    3.1806
   21.780    3.3597
   21.795    3.4544
   21.810    3.4439
   21.825    3.3807
   21.840    3.2122
   21.855    3.0858
   21.870    3.5492
   21.885    3.2965
   21.900    3.5492
   21.915    3.2859
   21.930    3.3281
   21.945    3.3175
   21.960    3.4123
   21.975    3.0437
   21.990    3.5176
   22.005    3.6862
   22.020    3.4439
   22.035    3.4334
   22.050    3.7493
   22.065    3.5914
   22.080    3.5703
   22.095    3.6862
   22.110    3.2649
   22.125    3.3281
   22.140    3.4544
   22.155    3.6124
   22.170    3.5387
   22.185    3.6230
   22.200    3.3702
   22.215    3.6756
   22.230    3.5808
   22.245    3.2333
   22.260    3.3070
   22.275    3.4123
   22.290    3.2543
   22.305    3.3807
   22.320    3.4755
   22.335    3.7704
   22.350    3.4650
   22.365    3.4123
   22.380    3.3281
   22.395    3.3386
   22.410    3.5282
   22.425    3.4123
   22.440    3.5914
   22.455    3.5387
   22.470    3.3175
   22.485    3.3070
   22.500    3.4544
   22.515    3.4650
   22.530    3.3491
   22.545    3.3491
   22.560    3.5598
   22.575    3.7283
   22.590    3.3175
   22.605    3.3807
   22.620    3.2754
   22.635    3.4439
   22.650    3.6124
   22.665    3.2227
   22.680    3.3491
   22.695    3.5282
   22.710    3.4650
   22.725    3.3597
   22.740    3.4860
   22.755    3.2438
   22.770    3.2017
   22.785    3.1912
   22.800    3.3702
   22.815    3.3913
   22.830    3.3281
   22.845    3.7809
   22.860    3.5387
   22.875    3.3070
   22.890    3.5598
   22.905    3.2965
   22.920    3.3491
   22.935    3.2754
   22.950    3.4334
   22.965    3.4439
   22.980    3.3913
   22.995    3.1280
   23.010    3.3807
   23.025    3.4544
   23.040    3.4966
   23.055    3.4860
   23.070    3.4018
   23.085    3.5598
   23.100    3.3807
   23.115    3.1385
   23.130    3.5492
   23.145    3.3281
   23.160    3.3702
   23.175    3.2649
   23.190    3.2122
   23.205    2.9489
   23.220    3.2438
   23.235    3.2438
   23.250    3.5387
   23.265    3.3597
   23.280    3.5387
   23.295    3.4229
   23.310    3.5071
   23.325    3.2965
   23.340    3.1912
   23.355    3.2122
   23.370    3.1701
   23.385    3.3070
   23.400    3.3913
   23.415    3.2965
   23.430    3.3386
   23.445    3.2649
   23.460    3.2122
   23.475    3.3281
   23.490    3.3281
   23.505    3.2859
   23.520    3.0858
   23.535    3.3175
   23.550    3.3491
   23.565    3.2859
   23.580    3.1596
   23.595    3.4018
   23.610    3.1806
   23.625    3.3913
   23.640    3.3175
   23.655    3.1490
   23.670    3.3281
   23.685    3.2859
   23.700    3.3597
   23.715    3.2859
   23.730    3.1385
   23.745    3.4860
   23.760    3.4018
   23.775    2.9910
   23.790    3.2122
   23.805    3.2859
   23.820    3.2438
   23.835    3.1806
   23.850    3.2859
   23.865    3.1596
   23.880    3.0226
   23.895    3.2754
   23.910    3.2859
   23.925    3.3491
   23.940    3.3175
   23.955    3.2122
   23.970    3.2859
   23.985    3.0542
   24.000    3.1701
   24.015    3.3597
   24.030    3.3491
   24.045    3.2649
   24.060    3.3702
   24.075    3.5282
   24.090    3.3386
   24.105    3.3807
   24.120    3.4544
   24.135    3.3913
   24.150    3.3597
   24.165    3.1490
   24.180    3.4334
   24.195    3.1385
   24.210    3.0226
   24.225    2.6224
   24.240    3.3491
   24.255    3.3702
   24.270    3.2965
   24.285    3.3491
   24.300    3.2649
   24.315    3.1701
   24.330    3.1069
   24.345    3.2649
   24.360    3.4334
   24.375    3.3702
   24.390    3.1912
   24.405    3.3386
   24.420    3.0226
   24.435    2.9700
   24.450    3.1280
   24.465    3.3702
   24.480    3.1806
   24.495    3.0226
   24.510    3.4123
   24.525    3.4123
   24.540    3.0753
   24.555    2.8963
   24.570    3.2333
   24.585    3.4123
   24.600    3.1806
   24.615    2.9595
   24.630    3.2017
   24.645    3.1701
   24.660    3.0964
   24.675    3.5387
   24.690    3.4544
   24.705    3.3491
   24.720    3.2649
   24.735    3.4229
   24.750    3.1385
   24.765    3.0964
   24.780    3.2017
   24.795    3.4966
   24.810    3.1701
   24.825    2.9700
   24.840    2.9489
   24.855    3.1385
   24.870    3.0753
   24.885    3.0542
   24.900    2.8436
   24.915    2.9489
   24.930    3.3702
   24.945    3.1280
   24.960    3.0332
   24.975    3.2227
   24.990    3.1806
   25.005    2.8752
   25.020    3.0016
   25.035    3.2122
   25.050    3.0964
   25.065    2.9595
   25.080    3.0858
   25.095    3.3807
   25.110    3.1385
   25.125    3.0964
   25.140    3.4334
   25.155    3.1596
   25.170    3.2227
   25.185    3.0964
   25.200    3.0332
   25.215    2.9595
   25.230    2.8120
   25.245    3.1174
   25.260    3.0858
   25.275    3.0016
   25.290    3.0753
   25.305    3.3491
   25.320    3.3491
   25.335    3.3913
   25.350    3.1174
   25.365    3.3702
   25.380    3.1069
   25.395    3.2965
   25.410    3.2122
   25.425    3.3070
   25.440    3.1806
   25.455    3.1069
   25.470    3.1806
   25.485    3.1280
   25.500    3.2438
   25.515    3.0437
   25.530    3.1490
   25.545    3.1701
   25.560    3.0016
   25.575    3.2754
   25.590    3.1174
   25.605    2.9489
   25.620    3.0753
   25.635    3.1490
   25.650    3.2017
   25.665    3.0753
   25.680    3.1596
   25.695    3.3175
   25.710    3.4229
   25.725    3.2227
   25.740    3.0542
   25.755    3.3597
   25.770    3.1806
   25.785    3.2438
   25.800    3.0437
   25.815    3.0964
   25.830    2.8647
   25.845    2.9595
   25.860    3.0016
   25.875    3.2227
   25.890    3.0753
   25.905    3.2543
   25.920    2.9805
   25.935    3.0121
   25.950    3.0121
   25.965    2.8963
   25.980    3.4018
   25.995    3.3597
   26.010    3.0226
   26.025    2.8963
   26.040    2.9700
   26.055    3.2438
   26.070    3.0437
   26.085    2.8120
   26.100    2.9173
   26.115    3.0753
   26.130    3.1280
   26.145    3.2333
   26.160    3.0964
   26.175    3.3386
   26.190    3.1596
   26.205    3.0753
   26.220    3.1385
   26.235    2.9068
   26.250    2.9805
   26.265    2.9279
   26.280    3.1280
   26.295    3.0648
   26.310    3.1069
   26.325    3.0437
   26.340    2.8436
   26.355    3.2438
   26.370    2.9068
   26.385    2.7383
   26.400    3.1280
   26.415    3.0121
   26.430    3.2438
   26.445    2.8647
   26.460    3.0332
   26.475    2.9384
   26.490    2.9700
   26.505    2.9805
   26.520    2.8647
   26.535    3.1069
   26.550    2.8857
   26.565    3.1596
   26.580    2.9595
   26.595    3.0121
   26.610    3.0858
   26.625    3.0964
   26.640    3.0332
   26.655    2.8331
   26.670    2.8225
   26.685    3.2965
   26.700    3.0332
   26.715    2.9700
   26.730    3.0437
   26.745    2.9173
   26.760    3.0226
   26.775    3.0753
   26.790    2.7699
   26.805    2.8647
   26.820    3.0648
   26.835    3.1385
   26.850    3.1806
   26.865    3.2122
   26.880    3.0121
   26.895    2.9489
   26.910    2.9384
   26.925    2.8436
   26.940    3.1806
   26.955    3.1069
   26.970    2.9910
   26.985    2.8331
   27.000    3.1280
   27.015    3.1385
   27.030    3.2017
   27.045    2.8331
   27.060    2.9700
   27.075    3.0332
   27.090    3.1385
   27.105    3.1280
   27.120    3.1701
   27.135    3.0332
   27.150    2.9489
   27.165    3.0121
   27.180    2.7593
   27.195    3.1174
   27.210    3.0121
   27.225    3.0016
   27.240    3.0226
   27.255    2.9384
   27.270    2.9173
   27.285    2.8331
   27.300    2.6962
   27.315    3.1806
   27.330    3.0226
   27.345    2.8963
   27.360    2.9910
   27.375    3.0542
   27.390    2.8963
   27.405    2.7383
   27.420    3.0226
   27.435    2.9279
   27.450    3.1806
   27.465    2.8015
   27.480    3.0016
   27.495    2.8436
   27.510    2.7172
   27.525    2.9384
   27.540    2.9068
   27.555    2.6014
   27.570    2.9068
   27.585    3.0648
   27.600    2.9173
   27.615    2.9173
   27.630    3.0016
   27.645    3.0121
   27.660    2.9910
   27.675    2.8015
   27.690    2.9595
   27.705    2.9384
   27.720    2.8331
   27.735    3.1385
   27.750    3.0542
   27.765    2.8752
   27.780    3.1596
   27.795    2.8752
   27.810    3.1701
   27.825    2.9173
   27.840    3.0016
   27.855    2.7278
   27.870    2.8331
   27.885    2.8225
   27.900    3.0226
   27.915    2.7909
   27.930    2.7804
   27.945    2.8752
   27.960    3.0542
   27.975    2.8752
   27.990    2.9279
   28.005    2.8647
   28.020    2.9173
   28.035    2.9595
   28.050    3.0121
   28.065    2.8963
   28.080    2.8225
   28.095    2.9384
   28.110    2.6751
   28.125    2.8963
   28.140    3.0648
   28.155    2.9173
   28.170    2.8120
   28.185    2.9700
   28.200    2.9279
   28.215    3.0332
   28.230    2.9700
   28.245    2.9173
   28.260    2.9384
   28.275    2.9068
   28.290    3.0858
   28.305    2.8331
   28.320    2.6435
   28.335    2.9700
   28.350    2.7383
   28.365    2.9068
   28.380    2.5908
   28.395    2.5698
   28.410    2.5382
   28.425    2.7804
   28.440    2.7699
   28.455    2.7804
   28.470    2.8647
   28.485    2.8541
   28.500    2.8857
   28.515    3.1490
   28.530    2.8436
   28.545    2.6646
   28.560    2.8963
   28.575    2.8120
   28.590    2.9700
   28.605    2.9173
   28.620    2.9595
   28.635    2.8015
   28.650    2.6646
   28.665    2.9068
   28.680    2.7593
   28.695    2.8331
   28.710    2.7278
   28.725    2.7067
   28.740    2.7593
   28.755    2.8331
   28.770    2.9173
   28.785    2.7488
   28.800    2.7804
   28.815    2.7488
   28.830    2.8436
   28.845    2.8857
   28.860    2.7593
   28.875    2.8857
   28.890    2.8541
   28.905    2.9595
   28.920    2.9489
   28.935    2.9068
   28.950    2.8436
   28.965    2.8857
   28.980    2.7278
   28.995    2.8015
   29.010    2.8541
   29.025    3.0226
   29.040    2.8120
   29.055    2.8436
   29.070    2.8436
   29.085    2.5171
   29.100    2.6435
   29.115    2.8541
   29.130    2.7067
   29.145    2.9700
   29.160    2.9384
   29.175    2.7699
   29.190    2.7909
   29.205    3.0648
   29.220    2.7488
   29.235    2.7067
   29.250    3.1280
   29.265    3.0016
   29.280    2.9700
   29.295    2.8647
   29.310    2.7699
   29.325    2.9173
   29.340    2.7278
   29.355    2.6751
   29.370    2.7172
   29.385    2.8647
   29.400    2.8963
   29.415    2.7172
   29.430    2.6435
   29.445    2.8647
   29.460    2.9068
   29.475    2.9805
   29.490    2.7278
   29.505    2.6751
   29.520    2.7909
   29.535    2.9384
   29.550    2.8857
   29.565    2.7383
   29.580    2.6435
   29.595    2.5592
   29.610    2.5592
   29.625    2.6330
   29.640    2.6856
   29.655    2.5803
   29.670    2.6014
   29.685    2.8331
   29.700    2.7699
   29.715    2.8963
   29.730    2.6751
   29.745    2.8963
   29.760    2.7172
   29.775    2.7383
   29.790    2.7067
   29.805    2.9910
   29.820    2.6856
   29.835    2.6119
   29.850    2.7383
   29.865    2.7593
   29.880    2.8963
   29.895    2.8647
   29.910    2.5171
   29.925    2.6962
   29.940    2.5592
   29.955    2.6962
   29.970    2.5487
   29.985    2.7488
   30.000    2.6014
   30.015    2.3802
   30.030    2.6856
   30.045    3.0858
   30.060    2.9595
   30.075    2.5803
   30.090    2.9384
   30.105    2.7699
   30.120    2.8436
   30.135    2.8436
   30.150    2.5171
   30.165    2.5487
   30.180    2.4961
   30.195    2.7909
   30.210    2.6751
   30.225    2.8331
   30.240    2.7172
   30.255    2.8120
   30.270    2.5698
   30.285    2.5592
   30.300    2.4118
   30.315    2.5698
   30.330    2.5592
   30.345    2.8120
   30.360    2.8120
   30.375    2.6330
   30.390    2.5487
   30.405    2.6962
   30.420    2.5382
   30.435    2.6540
   30.450    2.7278
   30.465    2.7172
   30.480    2.7278
   30.495    2.5908
   30.510    2.5592
   30.525    2.8541
   30.540    2.8541
   30.555    2.7804
   30.570    3.0016
   30.585    2.8331
   30.600    2.8331
   30.615    2.8225
   30.630    2.6330
   30.645    2.5276
   30.660    2.3275
   30.675    2.6014
   30.690    2.9173
   30.705    2.5382
   30.720    2.5066
   30.735    2.4750
   30.750    2.8331
   30.765    2.6330
   30.780    2.4118
   30.795    2.3907
   30.810    2.6224
   30.825    2.4434
   30.840    2.7278
   30.855    2.4961
   30.870    2.5066
   30.885    2.7488
   30.900    2.5592
   30.915    2.6856
   30.930    2.5698
   30.945    2.5803
   30.960    2.3907
   30.975    2.6540
   30.990    2.7067
   31.005    2.7488
   31.020    2.8120
   31.035    2.5276
   31.050    2.7172
   31.065    2.6751
   31.080    2.5171
   31.095    2.8541
   31.110    2.6224
   31.125    2.6856
   31.140    2.9173
   31.155    2.5803
   31.170    2.4118
   31.185    2.7278
   31.200    2.6330
   31.215    2.6014
   31.230    2.5592
   31.245    2.5276
   31.260    2.4013
   31.275    2.4645
   31.290    2.6962
   31.305    2.5487
   31.320    2.5698
   31.335    2.4750
   31.350    2.5276
   31.365    2.4118
   31.380    2.5487
   31.395    2.6646
   31.410    2.6962
   31.425    2.4223
   31.440    2.4961
   31.455    2.6224
   31.470    2.4434
   31.485    2.3907
   31.500    2.5382
   31.515    2.5698
   31.530    2.6435
   31.545    2.5592
   31.560    2.6751
   31.575    2.4855
   31.590    2.2222
   31.605    2.5382
   31.620    2.7699
   31.635    2.7067
   31.650    2.7804
   31.665    2.7699
   31.680    2.4961
   31.695    2.4961
   31.710    2.5908
   31.725    2.5908
   31.740    2.4855
   31.755    2.7699
   31.770    2.6962
   31.785    2.5803
   31.800    2.6751
   31.815    2.6119
   31.830    2.5592
   31.845    2.6962
   31.860    2.6119
   31.875    2.4539
   31.890    2.4434
   31.905    2.6540
   31.920    2.3486
   31.935    2.5487
   31.950    2.6014
   31.965    2.6751
   31.980    2.5276
   31.995    2.5487
   32.010    2.5171
   32.025    2.5487
   32.040    2.6330
   32.055    2.4329
   32.070    2.6224
   32.085    2.4750
   32.100    2.7699
   32.115    2.6330
   32.130    2.4539
   32.145    2.5592
   32.160    2.5592
   32.175    2.6014
   32.190    2.6856
   32.205    2.7067
   32.220    2.7383
   32.235    2.4223
   32.250    2.7699
   32.265    2.4961
   32.280    2.3275
   32.295    2.4329
   32.310    2.3381
   32.325    2.4329
   32.340    2.6014
   32.355    2.6435
   32.370    2.5803
   32.385    2.5382
   32.400    2.6119
   32.415    2.6014
   32.430    2.3697
   32.445    2.4329
   32.460    2.5066
   32.475    2.5908
   32.490    2.6119
   32.505    2.6435
   32.520    2.4539
   32.535    2.3275
   32.550    2.4118
   32.565    2.5908
   32.580    2.5698
   32.595    2.6330
   32.610    2.6962
   32.625    2.5698
   32.640    2.6751
   32.655    2.8225
   32.670    2.5276
   32.685    2.5487
   32.700    2.5382
   32.715    2.5803
   32.730    2.3697
   32.745    2.4118
   32.760    2.3275
   32.775    2.5803
   32.790    2.7488
   32.805    2.4539
   32.820    2.5066
   32.835    2.1064
   32.850    2.4750
   32.865    2.4118
   32.880    2.5487
   32.895    2.5276
   32.910    2.2749
   32.925    2.6014
   32.940    2.5171
   32.955    2.4223
   32.970    2.2959
   32.985    2.5171
   33.000    2.5487
   33.015    2.3486
   33.030    2.6119
   33.045    2.5487
   33.060    2.4223
   33.075    2.3381
   33.090    2.4855
   33.105    2.3697
   33.120    2.6751
   33.135    2.6119
   33.150    2.3802
   33.165    2.3381
   33.180    2.2433
   33.195    2.5171
   33.210    2.5908
   33.225    2.3802
   33.240    2.4118
   33.255    2.3802
   33.270    2.3907
   33.285    2.4223
   33.300    2.6962
   33.315    2.6646
   33.330    2.4118
   33.345    2.3065
   33.360    2.3802
   33.375    2.2012
   33.390    2.2117
   33.405    2.4329
   33.420    2.4434
   33.435    2.4750
   33.450    2.3170
   33.465    2.4118
   33.480    2.5276
   33.495    2.4855
   33.510    2.3486
   33.525    2.4539
   33.540    2.5276
   33.555    2.2328
   33.570    2.5908
   33.585    2.4434
   33.600    2.4539
   33.615    2.4855
   33.630    2.3486
   33.645    2.1906
   33.660    2.3697
   33.675    2.3170
   33.690    2.1801
   33.705    2.2222
   33.720    2.1696
   33.735    2.5592
   33.750    2.4434
   33.765    2.2117
   33.780    2.4118
   33.795    2.5276
   33.810    2.4434
   33.825    2.4539
   33.840    2.4750
   33.855    2.4645
   33.870    2.4434
   33.885    2.6119
   33.900    2.4013
   33.915    2.3170
   33.930    2.3802
   33.945    2.2959
   33.960    2.2012
   33.975    2.4961
   33.990    2.4118
   34.005    2.3381
   34.020    2.4750
   34.035    2.1485
   34.050    2.3907
   34.065    2.4013
   34.080    2.2538
   34.095    2.2538
   34.110    2.1590
   34.125    2.4961
   34.140    2.6435
   34.155    2.4118
   34.170    2.2222
   34.185    2.2117
   34.200    2.3275
   34.215    2.3591
   34.230    2.3802
   34.245    2.5487
   34.260    2.4645
   34.275    2.2538
   34.290    2.3065
   34.305    2.6119
   34.320    2.3381
   34.335    2.3591
   34.350    2.3907
   34.365    2.3591
   34.380    2.3591
   34.395    2.5066
   34.410    2.1380
   34.425    2.3381
   34.440    2.4645
   34.455    2.4645
   34.470    2.4539
   34.485    2.4961
   34.500    2.3697
   34.515    2.2643
   34.530    2.3591
   34.545    2.3170
   34.560    2.2749
   34.575    2.3065
   34.590    2.3907
   34.605    2.5276
   34.620    2.4855
   34.635    2.3486
   34.650    2.1274
   34.665    2.3381
   34.680    2.4539
   34.695    2.3907
   34.710    2.4223
   34.725    2.3697
   34.740    2.2433
   34.755    2.3697
   34.770    2.2643
   34.785    2.4750
   34.800    2.3065
   34.815    2.1801
   34.830    2.4013
   34.845    2.4329
   34.860    2.3591
   34.875    2.3802
   34.890    2.2749
   34.905    2.2117
   34.920    2.1906
   34.935    2.3697
   34.950    2.4223
   34.965    2.2328
   34.980    2.3907
   34.995    2.3591
   35.010    2.4961
   35.025    2.2643
   35.040    2.3802
   35.055    2.3802
   35.070    2.4539
   35.085    2.0958
   35.100    2.0748
   35.115    2.2749
   35.130    2.1485
   35.145    2.1169
   35.160    2.3170
   35.175    2.3802
   35.190    2.1590
   35.205    2.2328
   35.220    2.5698
   35.235    2.2959
   35.250    2.4223
   35.265    2.6962
   35.280    2.2643
   35.295    2.3591
   35.310    2.4434
   35.325    2.2749
   35.340    2.2117
   35.355    2.2117
   35.370    2.2117
   35.385    2.3591
   35.400    2.1380
   35.415    2.1801
   35.430    2.2433
   35.445    2.1064
   35.460    2.0326
   35.475    2.2328
   35.490    2.3802
   35.505    2.3065
   35.520    2.4223
   35.535    2.1169
   35.550    2.2433
   35.565    2.4013
   35.580    2.4645
   35.595    2.4434
   35.610    2.3275
   35.625    2.2328
   35.640    2.2117
   35.655    1.9695
   35.670    2.2749
   35.685    2.2959
   35.700    2.0326
   35.715    2.3381
   35.730    2.4329
   35.745    2.3275
   35.760    2.2012
   35.775    2.2222
   35.790    2.0958
   35.805    2.0958
   35.820    2.1696
   35.835    2.2854
   35.850    2.4855
   35.865    2.2854
   35.880    2.1485
   35.895    2.2222
   35.910    2.1590
   35.925    2.3486
   35.940    2.1274
   35.955    2.1906
   35.970    2.4855
   35.985    2.1801
   36.000    2.0642
   36.015    2.1801
   36.030    2.3486
   36.045    2.3802
   36.060    2.0853
   36.075    2.1485
   36.090    2.2117
   36.105    2.2328
   36.120    2.1696
   36.135    2.0537
   36.150    1.9905
   36.165    2.2643
   36.180    2.2433
   36.195    2.0642
   36.210    2.1485
   36.225    2.1169
   36.240    2.1801
   36.255    2.1801
   36.270    2.3065
   36.285    2.0642
   36.300    2.1485
   36.315    2.3802
   36.330    2.1696
   36.345    2.1485
   36.360    2.3381
   36.375    2.1801
   36.390    2.1380
   36.405    2.4118
   36.420    2.3381
   36.435    2.2433
   36.450    2.2222
   36.465    2.3065
   36.480    2.1801
   36.495    2.2012
   36.510    2.2643
   36.525    2.0853
   36.540    2.0853
   36.555    2.2433
   36.570    2.3697
   36.585    2.3697
   36.600    2.1801
   36.615    2.1064
   36.630    2.0221
   36.645    2.2012
   36.660    2.0011
   36.675    2.1696
   36.690    2.2012
   36.705    2.0537
   36.720    2.0958
   36.735    2.1590
   36.750    2.1696
   36.765    2.2749
   36.780    2.2959
   36.795    2.3486
   36.810    2.3065
   36.825    2.1064
   36.840    2.2222
   36.855    2.1590
   36.870    2.1801
   36.885    2.1064
   36.900    2.0853
   36.915    2.1380
   36.930    2.3170
   36.945    2.4539
   36.960    2.0221
   36.975    2.1064
   36.990    2.2012
   37.005    2.2643
   37.020    2.2117
   37.035    2.1801
   37.050    2.1696
   37.065    2.0958
   37.080    2.1696
   37.095    2.1380
   37.110    2.1590
   37.125    2.1169
   37.140    2.2433
   37.155    2.2222
   37.170    2.0748
   37.185    2.4223
   37.200    2.1696
   37.215    2.0642
   37.230    2.2012
   37.245    2.2117
   37.260    2.3065
   37.275    2.3802
   37.290    2.1274
   37.305    2.2854
   37.320    2.1064
   37.335    2.0748
   37.350    2.2854
   37.365    2.1064
   37.380    2.3275
   37.395    2.3381
   37.410    2.1696
   37.425    2.3170
   37.440    2.1274
   37.455    2.1906
   37.470    2.1485
   37.485    2.2117
   37.500    2.0537
   37.515    2.1485
   37.530    2.2749
   37.545    2.3802
   37.560    2.1906
   37.575    2.0748
   37.590    2.1169
   37.605    2.1485
   37.620    2.0326
   37.635    2.2117
   37.650    2.4013
   37.665    2.1696
   37.680    2.1590
   37.695    2.1380
   37.710    2.0326
   37.725    2.2117
   37.740    2.2012
   37.755    2.1274
   37.770    2.1485
   37.785    2.1906
   37.800    1.9800
   37.815    1.9905
   37.830    2.1485
   37.845    2.0853
   37.860    2.1064
   37.875    2.3381
   37.890    2.0537
   37.905    2.2222
   37.920    2.1485
   37.935    2.1380
   37.950    2.1590
   37.965    2.2854
   37.980    2.3381
   37.995    2.2012
   38.010    2.0958
   38.025    2.3697
   38.040    2.3591
   38.055    2.2117
   38.070    2.2328
   38.085    2.2959
   38.100    2.2222
   38.115    2.1064
   38.130    2.0116
   38.145    2.0221
   38.160    2.0748
   38.175    2.1169
   38.190    2.0958
   38.205    2.1801
   38.220    2.1590
   38.235    2.0221
   38.250    2.0537
   38.265    2.1169
   38.280    2.0432
   38.295    2.0116
   38.310    1.9695
   38.325    2.0537
   38.340    2.1801
   38.355    2.1696
   38.370    2.1380
   38.385    1.9800
   38.400    2.1906
   38.415    2.2959
   38.430    1.9589
   38.445    2.0326
   38.460    2.0642
   38.475    2.1906
   38.490    2.1906
   38.505    2.0642
   38.520    2.0537
   38.535    2.2959
   38.550    2.1906
   38.565    2.1801
   38.580    2.1590
   38.595    1.9800
   38.610    2.1590
   38.625    2.2643
   38.640    2.1064
   38.655    2.1906
   38.670    2.0326
   38.685    2.1590
   38.700    2.0011
   38.715    2.4539
   38.730    2.2117
   38.745    2.1590
   38.760    2.1169
   38.775    2.0958
   38.790    1.9484
   38.805    2.1906
   38.820    2.3486
   38.835    1.9589
   38.850    2.1380
   38.865    2.2012
   38.880    2.1169
   38.895    2.0958
   38.910    2.2222
   38.925    1.9589
   38.940    1.9168
   38.955    2.0116
   38.970    2.1906
   38.985    2.1801
   39.000    2.1064
   39.015    2.1169
   39.030    1.9695
   39.045    2.2643
   39.060    2.0537
   39.075    2.0642
   39.090    2.1169
   39.105    1.9589
   39.120    2.0221
   39.135    2.1274
   39.150    2.0432
   39.165    2.0748
   39.180    1.8957
   39.195    2.2749
   39.210    1.9484
   39.225    2.1380
   39.240    2.2222
   39.255    2.4013
   39.270    2.3170
   39.285    2.2012
   39.300    2.0748
   39.315    2.0221
   39.330    2.0011
   39.345    2.2012
   39.360    1.9905
   39.375    2.0537
   39.390    2.3170
   39.405    2.1380
   39.420    2.1590
   39.435    2.0537
   39.450    2.2433
   39.465    2.0853
   39.480    1.9063
   39.495    2.0011
   39.510    2.2012
   39.525    2.1274
   39.540    1.9695
   39.555    2.0221
   39.570    2.0116
   39.585    1.8957
   39.600    1.9168
   39.615    2.0642
   39.630    1.9905
   39.645    2.1801
   39.660    2.0432
   39.675    2.1590
   39.690    1.9168
   39.705    2.0116
   39.720    2.0221
   39.735    1.9379
   39.750    2.0432
   39.765    1.8957
   39.780    2.2959
   39.795    2.1380
   39.810    2.1169
   39.825    2.1274
   39.840    2.1380
   39.855    2.0432
   39.870    2.2643
   39.885    2.1590
   39.900    2.2012
   39.915    2.0537
   39.930    2.0853
   39.945    2.2328
   39.960    2.2643
   39.975    1.9905
   39.990    1.9800
