    1.500    2.7073
    1.515    2.8143
    1.530    2.6003
    1.545    2.5040
    1.560    2.6752
    1.575    2.6110
    1.590    2.6110
    1.605    2.4077
    1.620    2.5254
    1.635    2.3007
    1.650    2.1937
    1.665    2.2365
    1.680    2.1723
    1.695    1.9155
    1.710    1.8834
    1.725    2.1402
    1.740    2.2686
    1.755    2.0439
    1.770    1.8727
    1.785    2.0118
    1.800    1.7228
    1.815    1.7657
    1.830    1.9369
    1.845    1.8620
    1.860    1.6800
    1.875    1.6051
    1.890    1.6051
    1.905    1.5302
    1.920    1.8085
    1.935    1.6586
    1.950    1.6800
    1.965    1.4660
    1.980    1.4660
    1.995    1.4339
    2.010    1.4018
    2.025    1.3162
    2.040    1.5088
    2.055    1.4981
    2.070    1.4339
    2.085    1.3697
    2.100    1.4660
    2.115    1.3269
    2.130    1.3590
    2.145    1.3269
    2.160    1.2092
    2.175    1.0487
    2.190    1.1129
    2.205    1.1450
    2.220    1.2306
    2.235    1.2413
    2.250    1.1664
    2.265    1.1664
    2.280    1.2306
    2.295    1.3590
    2.310    1.1985
    2.325    1.3055
    2.340    1.2413
    2.355    1.1129
    2.370    1.1022
    2.385    1.2092
    2.400    1.1878
    2.415    0.9738
    2.430    1.2306
    2.445    1.2948
    2.460    0.9738
    2.475    1.0273
    2.490    0.9631
    2.505    1.1022
    2.520    1.1022
    2.535    1.0059
    2.550    1.0701
    2.565    0.8347
    2.580    0.9203
    2.595    0.9631
    2.610    0.9203
    2.625    0.9417
    2.640    0.9203
    2.655    0.8882
    2.670    0.8454
    2.685    0.8347
    2.700    0.9845
    2.715    0.9845
    2.730    0.7491
    2.745    0.9096
    2.760    0.9738
    2.775    0.9096
    2.790    0.9631
    2.805    0.8133
    2.820    0.7812
    2.835    0.8775
    2.850    0.9631
    2.865    0.9310
    2.880    0.9417
    2.895    0.8882
    2.910    0.7598
    2.925    0.8133
    2.940    0.8882
    2.955    0.8240
    2.970    0.8133
    2.985    0.7063
    3.000    0.8347
    3.015    0.8989
    3.030    0.7919
    3.045    0.8989
    3.060    0.7277
    3.075    0.7919
    3.090    0.7919
    3.105    0.8026
    3.120    0.7384
    3.135    0.7491
    3.150    0.8882
    3.165    0.7170
    3.180    0.6207
    3.195    0.7812
    3.210    0.8454
    3.225    0.6528
    3.240    0.7919
    3.255    0.7170
    3.270    0.8775
    3.285    0.7919
    3.300    0.8026
    3.315    0.7705
    3.330    0.7384
    3.345    0.7705
    3.360    0.6528
    3.375    0.6849
    3.390    0.7277
    3.405    0.6849
    3.420    0.6742
    3.435    0.7063
    3.450    0.7491
    3.465    0.6635
    3.480    0.8347
    3.495    0.7598
    3.510    0.5993
    3.525    0.7170
    3.540    0.7063
    3.555    0.6528
    3.570    0.6742
    3.585    0.7491
    3.600    0.8989
    3.615    0.7598
    3.630    0.8026
    3.645    0.8347
    3.660    0.7491
    3.675    0.6314
    3.690    0.7277
    3.705    0.8347
    3.720    0.8133
    3.735    0.8561
    3.750    0.8240
    3.765    0.8775
    3.780    0.7705
    3.795    1.0380
    3.810    0.8775
    3.825    0.9738
    3.840    0.8347
    3.855    1.0059
    3.870    0.9738
    3.885    1.0166
    3.900    1.0273
    3.915    1.0166
    3.930    1.1878
    3.945    1.2199
    3.960    1.0701
    3.975    1.1985
    3.990    1.3911
    4.005    1.3911
    4.020    1.6158
    4.035    1.4981
    4.050    1.7549
    4.065    1.7014
    4.080    2.0011
    4.095    1.9797
    4.110    2.1188
    4.125    2.3221
    4.140    2.4291
    4.155    2.5682
    4.170    2.7287
    4.185    2.8571
    4.200    3.2210
    4.215    3.3601
    4.230    3.5955
    4.245    3.7988
    4.260    4.1306
    4.275    4.5586
    4.290    5.1150
    4.305    5.3826
    4.320    5.6394
    4.335    6.8165
    4.350    7.4050
    4.365    8.0364
    4.380    9.3312
    4.395    9.7485
    4.410   10.8400
    4.425   12.3703
    4.440   13.6330
    4.455   16.1263
    4.470   18.7587
    4.485   22.8678
    4.500   28.4323
    4.515   35.1632
    4.530   35.6233
    4.545   26.3670
    4.560   12.7876
    4.575    5.6929
    4.590    2.8571
    4.605    1.8941
    4.620    1.4446
    4.635    1.2627
    4.650    0.9845
    4.665    0.9203
    4.680    0.7277
    4.695    0.8561
    4.710    0.8775
    4.725    0.8026
    4.740    0.7598
    4.755    0.7170
    4.770    0.7063
    4.785    0.5886
    4.800    0.6635
    4.815    0.7277
    4.830    0.7170
    4.845    0.6635
    4.860    0.6528
    4.875    0.5886
    4.890    0.5993
    4.905    0.6100
    4.920    0.5350
    4.935    0.5993
    4.950    0.5029
    4.965    0.6100
    4.980    0.5993
    4.995    0.6742
    5.010    0.4494
    5.025    0.5136
    5.040    0.4708
    5.055    0.5243
    5.070    0.6528
    5.085    0.5457
    5.100    0.5993
    5.115    0.6635
    5.130    0.5778
    5.145    0.4387
    5.160    0.4280
    5.175    0.6421
    5.190    0.5457
    5.205    0.6421
    5.220    0.6314
    5.235    0.6100
    5.250    0.4708
    5.265    0.4280
    5.280    0.5029
    5.295    0.6100
    5.310    0.5993
    5.325    0.4922
    5.340    0.5564
    5.355    0.5886
    5.370    0.4922
    5.385    0.5886
    5.400    0.5993
    5.415    0.5457
    5.430    0.6100
    5.445    0.5886
    5.460    0.6635
    5.475    0.5564
    5.490    0.5029
    5.505    0.4494
    5.520    0.5457
    5.535    0.6207
    5.550    0.5457
    5.565    0.5564
    5.580    0.5993
    5.595    0.5993
    5.610    0.5778
    5.625    0.5671
    5.640    0.5029
    5.655    0.4708
    5.670    0.5671
    5.685    0.6207
    5.700    0.5136
    5.715    0.5457
    5.730    0.5243
    5.745    0.5564
    5.760    0.4601
    5.775    0.4708
    5.790    0.5457
    5.805    0.6849
    5.820    0.6956
    5.835    0.5350
    5.850    0.5564
    5.865    0.4494
    5.880    0.5457
    5.895    0.4387
    5.910    0.6100
    5.925    0.6635
    5.940    0.6421
    5.955    0.6635
    5.970    0.5564
    5.985    0.5778
    6.000    0.6742
    6.015    0.5886
    6.030    0.7170
    6.045    0.5886
    6.060    0.5350
    6.075    0.5993
    6.090    0.6421
    6.105    0.6742
    6.120    0.8561
    6.135    0.7705
    6.150    0.8882
    6.165    0.8989
    6.180    0.8561
    6.195    0.8454
    6.210    0.9631
    6.225    1.0380
    6.240    1.1664
    6.255    1.3911
    6.270    1.3804
    6.285    1.4232
    6.300    1.5516
    6.315    1.8406
    6.330    1.9369
    6.345    2.5254
    6.360    2.7715
    6.375    3.1247
    6.390    4.1734
    6.405    4.3446
    6.420    4.2697
    6.435    2.9963
    6.450    1.5516
    6.465    0.8989
    6.480    0.6849
    6.495    0.6635
    6.510    0.5350
    6.525    0.5136
    6.540    0.5457
    6.555    0.5671
    6.570    0.6956
    6.585    0.4708
    6.600    0.4494
    6.615    0.5457
    6.630    0.5136
    6.645    0.4922
    6.660    0.5886
    6.675    0.5029
    6.690    0.5029
    6.705    0.4601
    6.720    0.3959
    6.735    0.5778
    6.750    0.5136
    6.765    0.5029
    6.780    0.4922
    6.795    0.4387
    6.810    0.5778
    6.825    0.5457
    6.840    0.4173
    6.855    0.4173
    6.870    0.4815
    6.885    0.5993
    6.900    0.4708
    6.915    0.4815
    6.930    0.6421
    6.945    0.6635
    6.960    0.4601
    6.975    0.5350
    6.990    0.5778
    7.005    0.5457
    7.020    0.5778
    7.035    0.5136
    7.050    0.4494
    7.065    0.5136
    7.080    0.5457
    7.095    0.6421
    7.110    0.5350
    7.125    0.4601
    7.140    0.5564
    7.155    0.5243
    7.170    0.3959
    7.185    0.4280
    7.200    0.4708
    7.215    0.4922
    7.230    0.4815
    7.245    0.5350
    7.260    0.4708
    7.275    0.5886
    7.290    0.4601
    7.305    0.4708
    7.320    0.5136
    7.335    0.5136
    7.350    0.4922
    7.365    0.5886
    7.380    0.5029
    7.395    0.5457
    7.410    0.5886
    7.425    0.5243
    7.440    0.4708
    7.455    0.4494
    7.470    0.5778
    7.485    0.5886
    7.500    0.5350
    7.515    0.4922
    7.530    0.5029
    7.545    0.5457
    7.560    0.5671
    7.575    0.6207
    7.590    0.5886
    7.605    0.6528
    7.620    0.5457
    7.635    0.6528
    7.650    0.7491
    7.665    0.5778
    7.680    0.7384
    7.695    0.8240
    7.710    0.7812
    7.725    0.8026
    7.740    1.0808
    7.755    0.8882
    7.770    1.0701
    7.785    1.4446
    7.800    1.4981
    7.815    1.9155
    7.830    1.9797
    7.845    2.3649
    7.860    2.4077
    7.875    1.9904
    7.890    1.3911
    7.905    1.1022
    7.920    0.8347
    7.935    0.6314
    7.950    0.6421
    7.965    0.6421
    7.980    0.5029
    7.995    0.5564
    8.010    0.5029
    8.025    0.5886
    8.040    0.4815
    8.055    0.4708
    8.070    0.4173
    8.085    0.5243
    8.100    0.5029
    8.115    0.4708
    8.130    0.5136
    8.145    0.5564
    8.160    0.5243
    8.175    0.4922
    8.190    0.4173
    8.205    0.4387
    8.220    0.5778
    8.235    0.4280
    8.250    0.4173
    8.265    0.3745
    8.280    0.5243
    8.295    0.4387
    8.310    0.5029
    8.325    0.4601
    8.340    0.3959
    8.355    0.4066
    8.370    0.4494
    8.385    0.4922
    8.400    0.4387
    8.415    0.4494
    8.430    0.4066
    8.445    0.4494
    8.460    0.4280
    8.475    0.3959
    8.490    0.4066
    8.505    0.5243
    8.520    0.5350
    8.535    0.5029
    8.550    0.4280
    8.565    0.6207
    8.580    0.5564
    8.595    0.5350
    8.610    0.5243
    8.625    0.6207
    8.640    0.5243
    8.655    0.5029
    8.670    0.4173
    8.685    0.4708
    8.700    0.4601
    8.715    0.4173
    8.730    0.5029
    8.745    0.4922
    8.760    0.5136
    8.775    0.4280
    8.790    0.4815
    8.805    0.4494
    8.820    0.4922
    8.835    0.5029
    8.850    0.4280
    8.865    0.5029
    8.880    0.5671
    8.895    0.6421
    8.910    0.5778
    8.925    0.7170
    8.940    0.7598
    8.955    0.7598
    8.970    0.8882
    8.985    0.9631
    9.000    1.1236
    9.015    1.3590
    9.030    1.4660
    9.045    1.6265
    9.060    1.9690
    9.075    2.1188
    9.090    1.7657
    9.105    1.3804
    9.120    0.9203
    9.135    0.5993
    9.150    0.5457
    9.165    0.4708
    9.180    0.5457
    9.195    0.5457
    9.210    0.5243
    9.225    0.4387
    9.240    0.5564
    9.255    0.4494
    9.270    0.4280
    9.285    0.3638
    9.300    0.3959
    9.315    0.4066
    9.330    0.4494
    9.345    0.4280
    9.360    0.4173
    9.375    0.4387
    9.390    0.6207
    9.405    0.4815
    9.420    0.4173
    9.435    0.4280
    9.450    0.4066
    9.465    0.5029
    9.480    0.4280
    9.495    0.4173
    9.510    0.3638
    9.525    0.4601
    9.540    0.4494
    9.555    0.4280
    9.570    0.5136
    9.585    0.4280
    9.600    0.5029
    9.615    0.4173
    9.630    0.3638
    9.645    0.4708
    9.660    0.5564
    9.675    0.5243
    9.690    0.5243
    9.705    0.4708
    9.720    0.4708
    9.735    0.5136
    9.750    0.4280
    9.765    0.3959
    9.780    0.4280
    9.795    0.3852
    9.810    0.4815
    9.825    0.4815
    9.840    0.5886
    9.855    0.4922
    9.870    0.4601
    9.885    0.5457
    9.900    0.5350
    9.915    0.5350
    9.930    0.4387
    9.945    0.4066
    9.960    0.3852
    9.975    0.4815
    9.990    0.5778
   10.005    0.4922
   10.020    0.4815
   10.035    0.5457
   10.050    0.7170
   10.065    0.7277
   10.080    0.5886
   10.095    0.5564
   10.110    0.7705
   10.125    0.7705
   10.140    0.8240
   10.155    0.8026
   10.170    0.7598
   10.185    0.7063
   10.200    0.6100
   10.215    0.6314
   10.230    0.4708
   10.245    0.5350
   10.260    0.2889
   10.275    0.4280
   10.290    0.4494
   10.305    0.5136
   10.320    0.5243
   10.335    0.4066
   10.350    0.5350
   10.365    0.3959
   10.380    0.4066
   10.395    0.4066
   10.410    0.5243
   10.425    0.4173
   10.440    0.4708
   10.455    0.5457
   10.470    0.4387
   10.485    0.4280
   10.500    0.4815
   10.515    0.4173
   10.530    0.3745
   10.545    0.4601
   10.560    0.5029
   10.575    0.5778
   10.590    0.4280
   10.605    0.5564
   10.620    0.4494
   10.635    0.4173
   10.650    0.4922
   10.665    0.4387
   10.680    0.5350
   10.695    0.4066
   10.710    0.4494
   10.725    0.4494
   10.740    0.5243
   10.755    0.4066
   10.770    0.4708
   10.785    0.5457
   10.800    0.5029
   10.815    0.4708
   10.830    0.4601
   10.845    0.5350
   10.860    0.5778
   10.875    0.4708
   10.890    0.4387
   10.905    0.6528
   10.920    0.7812
   10.935    0.6528
   10.950    0.5993
   10.965    0.6742
   10.980    0.8454
   10.995    0.9203
   11.010    1.0701
   11.025    1.1236
   11.040    1.7121
   11.055    1.9048
   11.070    2.2686
   11.085    2.8464
   11.100    3.4350
   11.115    4.0235
   11.130    4.3981
   11.145    3.4350
   11.160    2.8464
   11.175    1.6051
   11.190    1.0594
   11.205    0.6528
   11.220    0.5993
   11.235    0.5243
   11.250    0.5564
   11.265    0.5671
   11.280    0.4280
   11.295    0.5136
   11.310    0.4815
   11.325    0.3745
   11.340    0.4494
   11.355    0.6100
   11.370    0.5029
   11.385    0.4387
   11.400    0.4708
   11.415    0.5029
   11.430    0.3103
   11.445    0.3852
   11.460    0.4280
   11.475    0.4173
   11.490    0.4387
   11.505    0.5993
   11.520    0.5243
   11.535    0.4708
   11.550    0.4601
   11.565    0.3638
   11.580    0.4922
   11.595    0.5778
   11.610    0.5243
   11.625    0.4601
   11.640    0.3745
   11.655    0.3852
   11.670    0.4922
   11.685    0.4173
   11.700    0.4708
   11.715    0.4280
   11.730    0.3210
   11.745    0.5457
   11.760    0.5778
   11.775    0.4601
   11.790    0.5243
   11.805    0.5243
   11.820    0.4601
   11.835    0.5136
   11.850    0.4922
   11.865    0.6100
   11.880    0.7919
   11.895    0.8989
   11.910    0.9631
   11.925    0.9524
   11.940    0.9845
   11.955    1.1450
   11.970    1.3376
   11.985    1.8085
   12.000    2.1616
   12.015    2.4184
   12.030    2.2258
   12.045    1.8834
   12.060    1.4125
   12.075    1.0380
   12.090    0.6849
   12.105    0.5778
   12.120    0.5350
   12.135    0.5778
   12.150    0.4494
   12.165    0.4601
   12.180    0.5350
   12.195    0.4494
   12.210    0.4922
   12.225    0.4494
   12.240    0.3959
   12.255    0.3852
   12.270    0.4280
   12.285    0.4387
   12.300    0.5029
   12.315    0.5243
   12.330    0.5136
   12.345    0.4387
   12.360    0.5136
   12.375    0.4815
   12.390    0.4494
   12.405    0.4387
   12.420    0.4173
   12.435    0.4922
   12.450    0.4494
   12.465    0.4280
   12.480    0.5778
   12.495    0.5243
   12.510    0.4387
   12.525    0.3959
   12.540    0.3959
   12.555    0.4922
   12.570    0.4708
   12.585    0.5136
   12.600    0.5029
   12.615    0.4601
   12.630    0.4066
   12.645    0.4601
   12.660    0.4173
   12.675    0.4922
   12.690    0.4708
   12.705    0.5564
   12.720    0.5778
   12.735    0.4815
   12.750    0.5671
   12.765    0.7384
   12.780    0.9310
   12.795    0.9417
   12.810    1.2520
   12.825    1.5409
   12.840    1.7764
   12.855    1.7228
   12.870    1.7442
   12.885    1.2948
   12.900    1.0380
   12.915    0.7384
   12.930    0.6421
   12.945    0.5457
   12.960    0.4708
   12.975    0.3852
   12.990    0.4173
   13.005    0.4173
   13.020    0.4173
   13.035    0.4708
   13.050    0.4922
   13.065    0.3103
   13.080    0.3852
   13.095    0.4173
   13.110    0.5243
   13.125    0.3745
   13.140    0.3959
   13.155    0.5029
   13.170    0.5350
   13.185    0.3638
   13.200    0.3317
   13.215    0.4280
   13.230    0.4708
   13.245    0.4922
   13.260    0.2782
   13.275    0.4280
   13.290    0.4708
   13.305    0.4280
   13.320    0.4708
   13.335    0.4173
   13.350    0.4280
   13.365    0.3852
   13.380    0.4280
   13.395    0.5029
   13.410    0.5564
   13.425    0.4815
   13.440    0.4387
   13.455    0.4708
   13.470    0.5029
   13.485    0.5457
   13.500    0.5350
   13.515    0.6314
   13.530    0.6956
   13.545    0.6742
   13.560    0.7277
   13.575    0.9845
   13.590    1.3697
   13.605    1.6051
   13.620    1.8941
   13.635    1.9262
   13.650    1.8299
   13.665    1.6800
   13.680    1.0915
   13.695    0.9952
   13.710    0.6528
   13.725    0.5564
   13.740    0.5564
   13.755    0.5457
   13.770    0.4815
   13.785    0.4173
   13.800    0.3852
   13.815    0.4066
   13.830    0.4280
   13.845    0.4066
   13.860    0.3959
   13.875    0.4494
   13.890    0.4708
   13.905    0.3531
   13.920    0.3852
   13.935    0.3424
   13.950    0.3745
   13.965    0.3745
   13.980    0.3317
   13.995    0.4601
   14.010    0.4922
   14.025    0.3745
   14.040    0.3852
   14.055    0.4280
   14.070    0.4280
   14.085    0.4280
   14.100    0.4815
   14.115    0.4601
   14.130    0.3959
   14.145    0.3531
   14.160    0.3745
   14.175    0.5136
   14.190    0.4601
   14.205    0.4601
   14.220    0.4280
   14.235    0.3959
   14.250    0.3852
   14.265    0.5029
   14.280    0.4387
   14.295    0.5457
   14.310    0.5243
   14.325    0.4601
   14.340    0.5671
   14.355    0.5243
   14.370    0.6421
   14.385    0.6100
   14.400    0.5136
   14.415    0.5243
   14.430    0.4922
   14.445    0.4922
   14.460    0.4173
   14.475    0.4066
   14.490    0.3531
   14.505    0.2996
   14.520    0.3959
   14.535    0.4601
   14.550    0.4173
   14.565    0.3317
   14.580    0.3745
   14.595    0.3210
   14.610    0.4173
   14.625    0.3638
   14.640    0.4173
   14.655    0.3531
   14.670    0.5350
   14.685    0.4601
   14.700    0.3638
   14.715    0.3745
   14.730    0.3424
   14.745    0.4708
   14.760    0.5029
   14.775    0.4922
   14.790    0.4601
   14.805    0.4708
   14.820    0.4173
   14.835    0.4280
   14.850    0.3745
   14.865    0.4173
   14.880    0.3210
   14.895    0.4280
   14.910    0.4066
   14.925    0.5136
   14.940    0.5243
   14.955    0.5350
   14.970    0.5350
   14.985    0.5243
   15.000    0.7170
   15.015    0.8989
   15.030    0.9310
   15.045    1.2627
   15.060    1.5088
   15.075    1.4553
   15.090    1.6265
   15.105    1.2948
   15.120    1.2306
   15.135    0.9417
   15.150    0.7384
   15.165    0.6956
   15.180    0.4708
   15.195    0.3531
   15.210    0.3959
   15.225    0.5243
   15.240    0.4280
   15.255    0.4708
   15.270    0.5350
   15.285    0.4708
   15.300    0.4601
   15.315    0.4601
   15.330    0.5243
   15.345    0.4387
   15.360    0.4280
   15.375    0.3638
   15.390    0.3745
   15.405    0.3745
   15.420    0.3745
   15.435    0.3638
   15.450    0.3852
   15.465    0.3959
   15.480    0.3424
   15.495    0.3210
   15.510    0.4922
   15.525    0.4494
   15.540    0.4601
   15.555    0.4387
   15.570    0.2996
   15.585    0.4173
   15.600    0.3959
   15.615    0.3103
   15.630    0.3317
   15.645    0.4280
   15.660    0.5029
   15.675    0.4815
   15.690    0.6742
   15.705    0.6314
   15.720    0.7277
   15.735    0.9417
   15.750    0.9417
   15.765    0.8989
   15.780    0.8133
   15.795    0.7063
   15.810    0.6956
   15.825    0.7277
   15.840    0.5029
   15.855    0.3531
   15.870    0.5564
   15.885    0.3852
   15.900    0.3959
   15.915    0.3852
   15.930    0.4601
   15.945    0.4815
   15.960    0.3638
   15.975    0.3959
   15.990    0.4066
   16.005    0.4280
   16.020    0.4173
   16.035    0.4173
   16.050    0.5136
   16.065    0.4173
   16.080    0.4280
   16.095    0.4708
   16.110    0.3424
   16.125    0.2996
   16.140    0.3959
   16.155    0.3210
   16.170    0.4280
   16.185    0.3852
   16.200    0.3531
   16.215    0.3852
   16.230    0.4708
   16.245    0.3638
   16.260    0.3852
   16.275    0.4173
   16.290    0.4173
   16.305    0.4708
   16.320    0.5029
   16.335    0.5457
   16.350    0.6956
   16.365    0.9096
   16.380    1.0166
   16.395    1.2413
   16.410    0.9524
   16.425    0.9203
   16.440    0.9417
   16.455    0.7919
   16.470    0.6314
   16.485    0.5243
   16.500    0.4066
   16.515    0.3638
   16.530    0.3852
   16.545    0.3852
   16.560    0.5350
   16.575    0.4708
   16.590    0.4066
   16.605    0.4066
   16.620    0.3959
   16.635    0.4066
   16.650    0.4601
   16.665    0.4494
   16.680    0.4280
   16.695    0.4601
   16.710    0.3745
   16.725    0.4387
   16.740    0.4280
   16.755    0.3531
   16.770    0.3852
   16.785    0.4173
   16.800    0.4280
   16.815    0.4387
   16.830    0.3745
   16.845    0.4387
   16.860    0.5136
   16.875    0.3852
   16.890    0.2782
   16.905    0.4066
   16.920    0.2889
   16.935    0.3852
   16.950    0.3852
   16.965    0.3959
   16.980    0.3531
   16.995    0.3424
   17.010    0.3959
   17.025    0.4815
   17.040    0.5136
   17.055    0.4387
   17.070    0.3424
   17.085    0.5457
   17.100    0.4922
   17.115    0.4815
   17.130    0.5136
   17.145    0.4494
   17.160    0.3745
   17.175    0.3210
   17.190    0.4601
   17.205    0.4173
   17.220    0.4280
   17.235    0.3745
   17.250    0.4494
   17.265    0.4173
   17.280    0.4173
   17.295    0.3745
   17.310    0.4387
   17.325    0.4922
   17.340    0.5136
   17.355    0.3531
   17.370    0.3638
   17.385    0.3959
   17.400    0.4280
   17.415    0.4708
   17.430    0.5243
   17.445    0.4708
   17.460    0.3531
   17.475    0.4173
   17.490    0.4280
   17.505    0.4066
   17.520    0.5029
   17.535    0.4173
   17.550    0.5029
   17.565    0.4708
   17.580    0.5993
   17.595    0.5457
   17.610    0.7598
   17.625    0.6849
   17.640    0.5564
   17.655    0.6528
   17.670    0.7277
   17.685    0.5350
   17.700    0.4387
   17.715    0.4387
   17.730    0.4494
   17.745    0.4173
   17.760    0.4708
   17.775    0.4601
   17.790    0.5671
   17.805    0.4387
   17.820    0.4387
   17.835    0.4494
   17.850    0.4387
   17.865    0.4708
   17.880    0.3852
   17.895    0.3745
   17.910    0.3317
   17.925    0.3531
   17.940    0.3638
   17.955    0.3317
   17.970    0.4173
   17.985    0.3745
   18.000    0.3852
   18.015    0.5350
   18.030    0.4708
   18.045    0.4066
   18.060    0.3103
   18.075    0.3638
   18.090    0.3745
   18.105    0.2568
   18.120    0.3638
   18.135    0.3317
   18.150    0.3959
   18.165    0.4494
   18.180    0.5136
   18.195    0.3852
   18.210    0.4387
   18.225    0.3317
   18.240    0.3638
   18.255    0.4173
   18.270    0.2996
   18.285    0.3638
   18.300    0.4708
   18.315    0.4066
   18.330    0.3424
   18.345    0.4601
   18.360    0.4601
   18.375    0.3852
   18.390    0.4387
   18.405    0.4066
   18.420    0.2996
   18.435    0.3959
   18.450    0.4387
   18.465    0.3959
   18.480    0.4494
   18.495    0.3638
   18.510    0.3210
   18.525    0.4173
   18.540    0.4708
   18.555    0.4280
   18.570    0.4280
   18.585    0.4280
   18.600    0.4066
   18.615    0.3959
   18.630    0.3424
   18.645    0.4494
   18.660    0.4173
   18.675    0.4708
   18.690    0.4922
   18.705    0.4494
   18.720    0.4708
   18.735    0.6207
   18.750    0.5671
   18.765    0.7598
   18.780    0.8026
   18.795    0.6528
   18.810    0.6742
   18.825    0.5886
   18.840    0.5243
   18.855    0.4387
   18.870    0.5457
   18.885    0.5029
   18.900    0.4815
   18.915    0.3424
   18.930    0.4280
   18.945    0.4066
   18.960    0.3638
   18.975    0.4066
   18.990    0.3852
   19.005    0.3959
   19.020    0.4387
   19.035    0.3638
   19.050    0.4387
   19.065    0.4280
   19.080    0.3852
   19.095    0.4601
   19.110    0.2889
   19.125    0.4494
   19.140    0.4387
   19.155    0.4708
   19.170    0.4280
   19.185    0.4922
   19.200    0.5993
   19.215    0.4280
   19.230    0.4708
   19.245    0.4066
   19.260    0.4708
   19.275    0.5671
   19.290    0.5993
   19.305    0.7384
   19.320    0.8668
   19.335    0.8989
   19.350    0.8454
   19.365    0.8775
   19.380    0.6100
   19.395    0.5993
   19.410    0.4494
   19.425    0.4066
   19.440    0.4601
   19.455    0.5029
   19.470    0.3531
   19.485    0.3959
   19.500    0.3745
   19.515    0.3531
   19.530    0.4280
   19.545    0.5136
   19.560    0.4280
   19.575    0.4494
   19.590    0.4494
   19.605    0.3638
   19.620    0.3531
   19.635    0.3638
   19.650    0.3424
   19.665    0.4601
   19.680    0.4173
   19.695    0.3424
   19.710    0.4280
   19.725    0.3852
   19.740    0.4387
   19.755    0.5457
   19.770    0.5136
   19.785    0.5564
   19.800    0.5243
   19.815    0.7919
   19.830    0.8775
   19.845    0.8347
   19.860    1.0380
   19.875    1.0380
   19.890    1.0915
   19.905    0.8454
   19.920    0.8133
   19.935    0.7705
   19.950    0.6100
   19.965    0.6100
   19.980    0.4601
   19.995    0.4815
   20.010    0.6100
   20.025    0.4601
   20.040    0.4708
   20.055    0.5243
   20.070    0.3959
   20.085    0.3638
   20.100    0.4708
   20.115    0.4494
   20.130    0.4387
   20.145    0.3638
   20.160    0.3745
   20.175    0.3852
   20.190    0.4708
   20.205    0.3852
   20.220    0.4922
   20.235    0.4922
   20.250    0.4815
   20.265    0.3638
   20.280    0.5029
   20.295    0.4066
   20.310    0.3103
   20.325    0.3959
   20.340    0.4922
   20.355    0.3852
   20.370    0.4815
   20.385    0.5350
   20.400    0.3424
   20.415    0.4922
   20.430    0.4173
   20.445    0.3959
   20.460    0.4601
   20.475    0.5029
   20.490    0.4066
   20.505    0.4494
   20.520    0.4280
   20.535    0.3852
   20.550    0.5457
   20.565    0.4601
   20.580    0.3745
   20.595    0.3531
   20.610    0.3424
   20.625    0.3531
   20.640    0.4708
   20.655    0.4387
   20.670    0.3103
   20.685    0.3959
   20.700    0.3317
   20.715    0.4173
   20.730    0.5029
   20.745    0.4387
   20.760    0.3852
   20.775    0.3852
   20.790    0.3852
   20.805    0.4173
   20.820    0.5350
   20.835    0.4280
   20.850    0.4387
   20.865    0.5778
   20.880    0.5350
   20.895    0.6635
   20.910    0.5778
   20.925    0.5671
   20.940    0.5350
   20.955    0.5243
   20.970    0.5136
   20.985    0.4494
   21.000    0.4173
   21.015    0.5886
   21.030    0.4066
   21.045    0.2782
   21.060    0.4066
   21.075    0.4815
   21.090    0.3745
   21.105    0.3745
   21.120    0.5350
   21.135    0.4387
   21.150    0.4173
   21.165    0.3852
   21.180    0.4815
   21.195    0.3210
   21.210    0.4173
   21.225    0.4815
   21.240    0.3745
   21.255    0.4066
   21.270    0.4280
   21.285    0.3638
   21.300    0.4708
   21.315    0.4922
   21.330    0.5136
   21.345    0.5564
   21.360    0.5457
   21.375    0.6314
   21.390    0.6100
   21.405    0.6421
   21.420    0.6528
   21.435    0.7491
   21.450    0.6742
   21.465    0.5457
   21.480    0.5564
   21.495    0.3959
   21.510    0.3959
   21.525    0.4815
   21.540    0.4601
   21.555    0.4173
   21.570    0.4173
   21.585    0.4173
   21.600    0.4066
   21.615    0.4066
   21.630    0.4173
   21.645    0.4494
   21.660    0.3424
   21.675    0.4066
   21.690    0.4280
   21.705    0.3959
   21.720    0.4601
   21.735    0.4280
   21.750    0.3852
   21.765    0.3531
   21.780    0.3317
   21.795    0.3103
   21.810    0.4280
   21.825    0.4494
   21.840    0.5993
   21.855    0.4601
   21.870    0.5671
   21.885    0.5350
   21.900    0.5350
   21.915    0.4708
   21.930    0.3531
   21.945    0.4173
   21.960    0.4066
   21.975    0.3424
   21.990    0.4387
   22.005    0.4173
   22.020    0.4601
   22.035    0.3745
   22.050    0.4173
   22.065    0.4173
   22.080    0.4280
   22.095    0.4280
   22.110    0.4280
   22.125    0.4708
   22.140    0.3531
   22.155    0.4280
   22.170    0.4708
   22.185    0.4494
   22.200    0.3959
   22.215    0.4601
   22.230    0.4066
   22.245    0.4387
   22.260    0.3852
   22.275    0.4815
   22.290    0.3638
   22.305    0.4280
   22.320    0.5243
   22.335    0.4815
   22.350    0.4815
   22.365    0.5564
   22.380    0.6314
   22.395    0.5457
   22.410    0.4708
   22.425    0.4708
   22.440    0.5029
   22.455    0.4815
   22.470    0.4922
   22.485    0.5029
   22.500    0.4494
   22.515    0.3103
   22.530    0.3745
   22.545    0.3959
   22.560    0.3638
   22.575    0.3745
   22.590    0.3531
   22.605    0.4494
   22.620    0.5243
   22.635    0.3852
   22.650    0.3745
   22.665    0.4066
   22.680    0.5457
   22.695    0.5243
   22.710    0.4601
   22.725    0.4922
   22.740    0.5564
   22.755    0.5350
   22.770    0.6207
   22.785    0.7491
   22.800    0.8240
   22.815    0.8240
   22.830    0.7705
   22.845    0.7277
   22.860    0.8026
   22.875    0.6421
   22.890    0.7598
   22.905    0.5993
   22.920    0.7063
   22.935    0.5136
   22.950    0.5350
   22.965    0.4494
   22.980    0.4708
   22.995    0.4280
   23.010    0.3210
   23.025    0.4066
   23.040    0.3424
   23.055    0.4494
   23.070    0.6207
   23.085    0.4494
   23.100    0.3852
   23.115    0.4922
   23.130    0.4601
   23.145    0.3531
   23.160    0.4922
   23.175    0.3959
   23.190    0.4494
   23.205    0.4280
   23.220    0.3210
   23.235    0.3210
   23.250    0.3210
   23.265    0.3531
   23.280    0.4601
   23.295    0.5350
   23.310    0.4922
   23.325    0.5671
   23.340    0.4815
   23.355    0.4387
   23.370    0.5029
   23.385    0.4280
   23.400    0.4708
   23.415    0.3745
   23.430    0.5350
   23.445    0.4173
   23.460    0.4173
   23.475    0.5029
   23.490    0.4922
   23.505    0.5564
   23.520    0.5136
   23.535    0.4708
   23.550    0.5136
   23.565    0.3959
   23.580    0.3424
   23.595    0.5671
   23.610    0.5564
   23.625    0.5136
   23.640    0.3531
   23.655    0.5993
   23.670    0.5136
   23.685    0.7384
   23.700    0.7491
   23.715    1.1236
   23.730    1.1236
   23.745    1.0594
   23.760    1.1129
   23.775    0.9203
   23.790    0.9524
   23.805    0.9738
   23.820    0.8454
   23.835    0.6849
   23.850    0.5350
   23.865    0.4387
   23.880    0.4922
   23.895    0.4601
   23.910    0.3852
   23.925    0.3852
   23.940    0.4601
   23.955    0.5350
   23.970    0.4601
   23.985    0.4280
   24.000    0.5350
   24.015    0.5350
   24.030    0.4708
   24.045    0.3531
   24.060    0.3852
   24.075    0.4815
   24.090    0.4280
   24.105    0.4601
   24.120    0.4280
   24.135    0.4387
   24.150    0.5671
   24.165    0.5778
   24.180    0.5136
   24.195    0.4922
   24.210    0.5778
   24.225    0.6100
   24.240    0.4708
   24.255    0.4387
   24.270    0.4922
   24.285    0.4922
   24.300    0.4601
   24.315    0.4922
   24.330    0.4387
   24.345    0.3638
   24.360    0.3745
   24.375    0.4494
   24.390    0.6314
   24.405    0.4815
   24.420    0.4708
   24.435    0.5029
   24.450    0.4708
   24.465    0.5457
   24.480    0.4387
   24.495    0.4601
   24.510    0.4708
   24.525    0.4708
   24.540    0.4494
   24.555    0.3745
   24.570    0.4708
   24.585    0.3745
   24.600    0.3959
   24.615    0.4387
   24.630    0.4815
   24.645    0.5457
   24.660    0.4280
   24.675    0.4387
   24.690    0.3745
   24.705    0.5136
   24.720    0.4922
   24.735    0.3531
   24.750    0.4815
   24.765    0.5564
   24.780    0.4815
   24.795    0.6314
   24.810    0.4494
   24.825    0.4173
   24.840    0.3959
   24.855    0.4815
   24.870    0.4815
   24.885    0.4066
   24.900    0.4494
   24.915    0.4494
   24.930    0.4387
   24.945    0.5029
   24.960    0.4173
   24.975    0.3210
   24.990    0.4494
   25.005    0.3424
   25.020    0.4173
   25.035    0.4815
   25.050    0.4494
   25.065    0.5243
   25.080    0.4494
   25.095    0.4815
   25.110    0.4387
   25.125    0.5243
   25.140    0.4066
   25.155    0.3638
   25.170    0.5243
   25.185    0.4280
   25.200    0.4494
   25.215    0.4815
   25.230    0.5457
   25.245    0.5029
   25.260    0.5350
   25.275    0.5350
   25.290    0.5886
   25.305    0.4922
   25.320    0.4173
   25.335    0.4815
   25.350    0.3531
   25.365    0.5029
   25.380    0.6100
   25.395    0.4815
   25.410    0.5564
   25.425    0.5350
   25.440    0.5564
   25.455    0.6956
   25.470    0.7812
   25.485    0.7812
   25.500    0.6314
   25.515    0.7705
   25.530    0.7491
   25.545    0.6100
   25.560    0.5993
   25.575    0.5564
   25.590    0.5778
   25.605    0.5243
   25.620    0.3852
   25.635    0.4922
   25.650    0.3424
   25.665    0.3638
   25.680    0.3531
   25.695    0.4387
   25.710    0.4601
   25.725    0.5243
   25.740    0.5564
   25.755    0.5564
   25.770    0.4708
   25.785    0.4922
   25.800    0.6421
   25.815    0.6207
   25.830    0.5350
   25.845    0.5886
   25.860    0.6742
   25.875    0.7491
   25.890    0.5671
   25.905    0.5886
   25.920    0.5671
   25.935    0.6207
   25.950    0.5457
   25.965    0.5029
   25.980    0.4387
   25.995    0.4922
   26.010    0.4280
   26.025    0.5136
   26.040    0.4708
   26.055    0.3638
   26.070    0.5243
   26.085    0.5457
   26.100    0.4922
   26.115    0.4494
   26.130    0.4922
   26.145    0.5029
   26.160    0.5350
   26.175    0.5136
   26.190    0.5778
   26.205    0.7170
   26.220    0.7491
   26.235    0.6635
   26.250    1.0487
   26.265    1.2520
   26.280    1.2306
   26.295    1.0915
   26.310    0.9631
   26.325    1.1771
   26.340    1.1878
   26.355    1.1878
   26.370    1.0273
   26.385    0.7598
   26.400    0.5993
   26.415    0.6314
   26.430    0.6207
   26.445    0.5564
   26.460    0.5029
   26.475    0.6421
   26.490    0.5886
   26.505    0.5243
   26.520    0.5029
   26.535    0.5243
   26.550    0.4494
   26.565    0.5671
   26.580    0.5029
   26.595    0.6100
   26.610    0.6100
   26.625    0.6956
   26.640    0.7919
   26.655    0.9524
   26.670    0.9524
   26.685    1.2413
   26.700    1.2948
   26.715    1.0808
   26.730    1.0915
   26.745    1.1450
   26.760    1.1129
   26.775    0.8347
   26.790    0.7491
   26.805    0.6528
   26.820    0.5671
   26.835    0.5671
   26.850    0.5778
   26.865    0.5029
   26.880    0.5778
   26.895    0.5243
   26.910    0.5778
   26.925    0.3103
   26.940    0.5029
   26.955    0.5136
   26.970    0.5457
   26.985    0.3852
   27.000    0.4173
   27.015    0.6100
   27.030    0.6742
   27.045    0.6956
   27.060    0.6635
   27.075    0.8454
   27.090    0.7919
   27.105    0.6742
   27.120    0.7384
   27.135    0.7598
   27.150    0.6421
   27.165    0.6849
   27.180    0.6635
   27.195    0.5350
   27.210    0.4815
   27.225    0.5243
   27.240    0.4601
   27.255    0.4601
   27.270    0.4815
   27.285    0.4173
   27.300    0.5243
   27.315    0.4601
   27.330    0.3959
   27.345    0.5243
   27.360    0.5136
   27.375    0.4708
   27.390    0.5350
   27.405    0.3852
   27.420    0.4494
   27.435    0.4815
   27.450    0.6100
   27.465    0.6207
   27.480    0.4815
   27.495    0.5564
   27.510    0.6100
   27.525    0.4922
   27.540    0.4066
   27.555    0.5029
   27.570    0.5350
   27.585    0.4601
   27.600    0.6635
   27.615    0.4601
   27.630    0.5243
   27.645    0.5778
   27.660    0.3959
   27.675    0.4387
   27.690    0.4494
   27.705    0.4387
   27.720    0.5778
   27.735    0.4387
   27.750    0.4280
   27.765    0.5350
   27.780    0.5243
   27.795    0.5671
   27.810    0.6314
   27.825    0.6742
   27.840    0.7277
   27.855    0.6849
   27.870    0.6100
   27.885    0.6528
   27.900    0.6314
   27.915    0.6742
   27.930    0.7705
   27.945    0.7491
   27.960    0.6849
   27.975    0.6100
   27.990    0.5243
   28.005    0.4708
   28.020    0.3959
   28.035    0.5778
   28.050    0.4815
   28.065    0.3852
   28.080    0.5136
   28.095    0.5029
   28.110    0.3959
   28.125    0.3852
   28.140    0.4173
   28.155    0.4173
   28.170    0.4601
   28.185    0.4922
   28.200    0.5564
   28.215    0.4708
   28.230    0.5029
   28.245    0.5136
   28.260    0.5886
   28.275    0.5993
   28.290    0.5029
   28.305    0.4387
   28.320    0.4066
   28.335    0.5029
   28.350    0.4815
   28.365    0.5350
   28.380    0.4066
   28.395    0.3959
   28.410    0.4066
   28.425    0.4494
   28.440    0.3745
   28.455    0.4815
   28.470    0.3852
   28.485    0.4280
   28.500    0.4173
   28.515    0.4815
   28.530    0.5457
   28.545    0.4173
   28.560    0.2782
   28.575    0.4494
   28.590    0.5778
   28.605    0.5564
   28.620    0.5993
   28.635    0.5457
   28.650    0.5136
   28.665    0.4922
   28.680    0.4494
   28.695    0.4601
   28.710    0.5350
   28.725    0.4173
   28.740    0.4173
   28.755    0.4173
   28.770    0.4601
   28.785    0.5350
   28.800    0.5350
   28.815    0.5350
   28.830    0.4601
   28.845    0.5350
   28.860    0.4815
   28.875    0.5778
   28.890    0.3424
   28.905    0.4173
   28.920    0.4708
   28.935    0.4066
   28.950    0.4280
   28.965    0.3638
   28.980    0.4494
   28.995    0.5457
   29.010    0.4387
   29.025    0.4280
   29.040    0.5136
   29.055    0.5029
   29.070    0.5564
   29.085    0.3745
   29.100    0.4066
   29.115    0.3317
   29.130    0.4708
   29.145    0.4066
   29.160    0.4815
   29.175    0.5243
   29.190    0.4494
   29.205    0.5029
   29.220    0.4815
   29.235    0.3852
   29.250    0.5350
   29.265    0.4387
   29.280    0.3317
   29.295    0.4815
   29.310    0.5029
   29.325    0.6635
   29.340    0.5350
   29.355    0.5993
   29.370    0.4922
   29.385    0.5564
   29.400    0.5886
   29.415    0.5457
   29.430    0.5350
   29.445    0.4922
   29.460    0.6314
   29.475    0.5564
   29.490    0.4280
   29.505    0.3424
   29.520    0.3959
   29.535    0.4387
   29.550    0.4280
   29.565    0.4922
   29.580    0.5671
   29.595    0.4815
   29.610    0.4494
   29.625    0.4494
   29.640    0.4815
   29.655    0.4066
   29.670    0.4387
   29.685    0.4922
   29.700    0.5993
   29.715    0.6207
   29.730    0.5993
   29.745    0.5993
   29.760    0.5564
   29.775    0.5564
   29.790    0.6956
   29.805    0.5671
   29.820    0.4066
   29.835    0.5136
   29.850    0.4922
   29.865    0.4494
   29.880    0.4708
   29.895    0.5350
   29.910    0.3317
   29.925    0.2889
   29.940    0.3424
   29.955    0.5778
   29.970    0.5243
   29.985    0.5778
   30.000    0.5243
   30.015    0.5993
   30.030    0.4815
   30.045    0.6421
   30.060    0.8026
   30.075    0.8882
   30.090    0.8026
   30.105    0.8561
   30.120    0.8989
   30.135    1.0273
   30.150    0.8133
   30.165    0.9738
   30.180    0.9524
   30.195    0.7063
   30.210    0.6207
   30.225    0.4922
   30.240    0.3852
   30.255    0.5457
   30.270    0.4922
   30.285    0.5350
   30.300    0.4922
   30.315    0.4173
   30.330    0.5350
   30.345    0.5564
   30.360    0.5243
   30.375    0.4494
   30.390    0.4815
   30.405    0.4815
   30.420    0.4601
   30.435    0.4280
   30.450    0.4387
   30.465    0.4280
   30.480    0.4708
   30.495    0.5136
   30.510    0.4280
   30.525    0.4815
   30.540    0.4494
   30.555    0.5029
   30.570    0.4280
   30.585    0.5029
   30.600    0.4601
   30.615    0.4815
   30.630    0.4708
   30.645    0.4066
   30.660    0.3424
   30.675    0.4280
   30.690    0.4815
   30.705    0.4387
   30.720    0.4494
   30.735    0.5136
   30.750    0.4387
   30.765    0.4066
   30.780    0.5350
   30.795    0.5671
   30.810    0.5029
   30.825    0.5993
   30.840    0.5457
   30.855    0.5136
   30.870    0.5886
   30.885    0.5457
   30.900    0.6421
   30.915    0.5136
   30.930    0.4494
   30.945    0.3638
   30.960    0.3317
   30.975    0.3103
   30.990    0.3959
   31.005    0.3959
   31.020    0.4387
   31.035    0.5029
   31.050    0.4494
   31.065    0.3531
   31.080    0.4387
   31.095    0.4387
   31.110    0.5993
   31.125    0.4708
   31.140    0.4494
   31.155    0.3745
   31.170    0.2996
   31.185    0.3424
   31.200    0.3959
   31.215    0.4601
   31.230    0.3531
   31.245    0.3745
   31.260    0.3745
   31.275    0.3959
   31.290    0.3424
   31.305    0.4280
   31.320    0.4601
   31.335    0.4708
   31.350    0.4280
   31.365    0.4066
   31.380    0.4387
   31.395    0.4280
   31.410    0.4494
   31.425    0.4066
   31.440    0.5243
   31.455    0.6314
   31.470    0.5886
   31.485    0.5029
   31.500    0.5564
   31.515    0.6528
   31.530    0.5564
   31.545    0.6207
   31.560    0.7170
   31.575    0.6635
   31.590    0.5993
   31.605    0.5564
   31.620    0.6100
   31.635    0.3745
   31.650    0.4280
   31.665    0.4708
   31.680    0.3424
   31.695    0.3638
   31.710    0.3638
   31.725    0.4066
   31.740    0.3317
   31.755    0.4922
   31.770    0.4494
   31.785    0.3317
   31.800    0.4387
   31.815    0.4066
   31.830    0.3852
   31.845    0.3424
   31.860    0.3424
   31.875    0.3745
   31.890    0.5243
   31.905    0.4280
   31.920    0.4173
   31.935    0.4494
   31.950    0.2140
   31.965    0.3959
   31.980    0.3852
   31.995    0.4708
   32.010    0.4922
   32.025    0.4922
   32.040    0.4494
   32.055    0.3959
   32.070    0.4173
   32.085    0.3745
   32.100    0.2996
   32.115    0.4173
   32.130    0.4601
   32.145    0.4280
   32.160    0.4387
   32.175    0.5993
   32.190    0.5457
   32.205    0.5457
   32.220    0.5243
   32.235    0.6207
   32.250    0.5136
   32.265    0.5993
   32.280    0.5778
   32.295    0.4708
   32.310    0.4387
   32.325    0.2889
   32.340    0.4173
   32.355    0.4708
   32.370    0.4601
   32.385    0.4173
   32.400    0.4173
   32.415    0.4601
   32.430    0.3424
   32.445    0.4173
   32.460    0.3638
   32.475    0.4280
   32.490    0.5243
   32.505    0.4387
   32.520    0.4815
   32.535    0.5564
   32.550    0.5029
   32.565    0.5564
   32.580    0.4494
   32.595    0.5029
   32.610    0.4066
   32.625    0.3959
   32.640    0.4066
   32.655    0.4387
   32.670    0.3959
   32.685    0.4280
   32.700    0.4280
   32.715    0.4387
   32.730    0.3745
   32.745    0.3852
   32.760    0.4708
   32.775    0.6314
   32.790    0.5029
   32.805    0.5564
   32.820    0.5778
   32.835    0.5886
   32.850    0.6635
   32.865    0.6742
   32.880    0.7384
   32.895    0.5886
   32.910    0.5136
   32.925    0.7598
   32.940    0.6207
   32.955    0.4173
   32.970    0.5029
   32.985    0.3959
   33.000    0.4280
   33.015    0.4280
   33.030    0.3745
   33.045    0.3638
   33.060    0.4494
   33.075    0.4815
   33.090    0.4387
   33.105    0.5136
   33.120    0.5243
   33.135    0.5029
   33.150    0.5457
   33.165    0.5243
   33.180    0.4173
   33.195    0.5993
   33.210    0.4494
   33.225    0.4708
   33.240    0.5350
   33.255    0.5993
   33.270    0.5029
   33.285    0.5993
   33.300    0.5136
   33.315    0.3531
   33.330    0.4066
   33.345    0.4173
   33.360    0.4280
   33.375    0.4601
   33.390    0.4815
   33.405    0.3959
   33.420    0.3424
   33.435    0.3531
   33.450    0.3745
   33.465    0.5136
   33.480    0.4280
   33.495    0.5029
   33.510    0.4708
   33.525    0.4066
   33.540    0.3852
   33.555    0.5243
   33.570    0.3638
   33.585    0.3745
   33.600    0.4494
   33.615    0.3852
   33.630    0.3852
   33.645    0.3852
   33.660    0.4922
   33.675    0.5029
   33.690    0.3959
   33.705    0.3852
   33.720    0.3424
   33.735    0.3959
   33.750    0.4173
   33.765    0.3210
   33.780    0.3852
   33.795    0.5029
   33.810    0.3852
   33.825    0.3531
   33.840    0.4280
   33.855    0.4066
   33.870    0.4601
   33.885    0.4708
   33.900    0.4601
   33.915    0.3531
   33.930    0.4173
   33.945    0.4494
   33.960    0.4708
   33.975    0.3210
   33.990    0.4280
   34.005    0.5350
   34.020    0.4280
   34.035    0.4280
   34.050    0.4066
   34.065    0.3959
   34.080    0.4815
   34.095    0.4280
   34.110    0.4601
   34.125    0.5029
   34.140    0.3959
   34.155    0.6314
   34.170    0.5778
   34.185    0.6207
   34.200    0.5671
   34.215    0.5243
   34.230    0.4815
   34.245    0.5457
   34.260    0.5350
   34.275    0.4494
   34.290    0.3531
   34.305    0.4066
   34.320    0.3317
   34.335    0.3317
   34.350    0.2568
   34.365    0.4387
   34.380    0.4387
   34.395    0.3424
   34.410    0.3745
   34.425    0.3103
   34.440    0.3959
   34.455    0.3852
   34.470    0.3317
   34.485    0.3531
   34.500    0.3852
   34.515    0.3531
   34.530    0.4708
   34.545    0.3210
   34.560    0.2996
   34.575    0.3424
   34.590    0.3210
   34.605    0.3317
   34.620    0.2354
   34.635    0.2782
   34.650    0.3959
   34.665    0.3638
   34.680    0.4922
   34.695    0.4173
   34.710    0.3210
   34.725    0.4280
   34.740    0.4708
   34.755    0.5136
   34.770    0.5350
   34.785    0.5886
   34.800    0.5136
   34.815    0.4815
   34.830    0.4066
   34.845    0.4601
   34.860    0.4387
   34.875    0.3424
   34.890    0.3852
   34.905    0.4494
   34.920    0.4494
   34.935    0.4708
   34.950    0.4280
   34.965    0.4387
   34.980    0.5243
   34.995    0.4280
   35.010    0.3424
   35.025    0.3210
   35.040    0.3531
   35.055    0.3317
   35.070    0.3638
   35.085    0.4280
   35.100    0.2996
   35.115    0.4280
   35.130    0.3852
   35.145    0.3531
   35.160    0.2568
   35.175    0.3424
   35.190    0.3317
   35.205    0.4280
   35.220    0.3210
   35.235    0.3638
   35.250    0.4066
   35.265    0.4601
   35.280    0.3638
   35.295    0.3424
   35.310    0.2461
   35.325    0.3210
   35.340    0.3424
   35.355    0.2889
   35.370    0.3959
   35.385    0.3745
   35.400    0.3531
   35.415    0.4066
   35.430    0.3959
   35.445    0.4494
   35.460    0.4494
   35.475    0.3745
   35.490    0.3317
   35.505    0.3852
   35.520    0.3852
   35.535    0.4387
   35.550    0.3959
   35.565    0.3531
   35.580    0.3103
   35.595    0.2782
   35.610    0.3745
   35.625    0.2996
   35.640    0.2889
   35.655    0.2568
   35.670    0.2782
   35.685    0.3317
   35.700    0.4708
   35.715    0.3638
   35.730    0.4601
   35.745    0.4494
   35.760    0.4494
   35.775    0.3959
   35.790    0.4922
   35.805    0.4708
   35.820    0.4173
   35.835    0.3959
   35.850    0.3317
   35.865    0.2996
   35.880    0.3745
   35.895    0.3852
   35.910    0.3745
   35.925    0.2675
   35.940    0.2568
   35.955    0.3959
   35.970    0.3210
   35.985    0.3424
   36.000    0.3531
   36.015    0.2996
   36.030    0.2782
   36.045    0.2996
   36.060    0.3638
   36.075    0.3745
   36.090    0.4280
   36.105    0.3424
   36.120    0.4066
   36.135    0.3317
   36.150    0.2461
   36.165    0.3103
   36.180    0.3210
   36.195    0.3959
   36.210    0.2782
   36.225    0.3424
   36.240    0.3210
   36.255    0.2568
   36.270    0.3745
   36.285    0.2568
   36.300    0.2996
   36.315    0.3210
   36.330    0.2782
   36.345    0.2782
   36.360    0.3317
   36.375    0.3424
   36.390    0.3103
   36.405    0.2889
   36.420    0.3210
   36.435    0.3317
   36.450    0.2675
   36.465    0.2889
   36.480    0.3210
   36.495    0.3317
   36.510    0.3424
   36.525    0.3103
   36.540    0.2996
   36.555    0.2782
   36.570    0.2782
   36.585    0.3210
   36.600    0.3317
   36.615    0.3531
   36.630    0.4173
   36.645    0.3852
   36.660    0.3424
   36.675    0.3424
   36.690    0.4280
   36.705    0.3210
   36.720    0.2675
   36.735    0.4387
   36.750    0.3103
   36.765    0.3531
   36.780    0.2996
   36.795    0.2889
   36.810    0.2889
   36.825    0.2996
   36.840    0.3317
   36.855    0.2782
   36.870    0.2889
   36.885    0.2675
   36.900    0.2782
   36.915    0.4066
   36.930    0.3103
   36.945    0.2889
   36.960    0.3424
   36.975    0.3852
   36.990    0.3959
   37.005    0.3103
   37.020    0.2889
   37.035    0.2568
   37.050    0.3210
   37.065    0.2782
   37.080    0.3103
   37.095    0.3745
   37.110    0.3103
   37.125    0.3531
   37.140    0.2996
   37.155    0.2675
   37.170    0.3638
   37.185    0.3959
   37.200    0.4066
   37.215    0.3638
   37.230    0.3745
   37.245    0.4066
   37.260    0.3745
   37.275    0.3959
   37.290    0.3210
   37.305    0.3103
   37.320    0.2889
   37.335    0.2354
   37.350    0.3424
   37.365    0.2889
   37.380    0.2996
   37.395    0.2996
   37.410    0.2461
   37.425    0.2247
   37.440    0.2996
   37.455    0.3638
   37.470    0.2996
   37.485    0.3745
   37.500    0.2247
   37.515    0.3317
   37.530    0.2889
   37.545    0.2675
   37.560    0.2782
   37.575    0.3103
   37.590    0.2568
   37.605    0.3317
   37.620    0.3103
   37.635    0.3317
   37.650    0.2889
   37.665    0.2889
   37.680    0.2889
   37.695    0.2461
   37.710    0.2996
   37.725    0.3638
   37.740    0.2568
   37.755    0.2675
   37.770    0.3103
   37.785    0.2354
   37.800    0.2247
   37.815    0.2354
   37.830    0.2675
   37.845    0.2568
   37.860    0.2782
   37.875    0.3103
   37.890    0.3210
   37.905    0.2889
   37.920    0.2461
   37.935    0.3531
   37.950    0.2675
   37.965    0.2996
   37.980    0.3424
   37.995    0.3638
   38.010    0.2996
   38.025    0.3210
   38.040    0.3210
   38.055    0.3210
   38.070    0.2889
   38.085    0.2889
   38.100    0.1819
   38.115    0.3210
   38.130    0.3210
   38.145    0.2782
   38.160    0.3317
   38.175    0.3531
   38.190    0.2782
   38.205    0.2461
   38.220    0.2889
   38.235    0.3103
   38.250    0.2996
   38.265    0.2568
   38.280    0.2889
   38.295    0.3210
   38.310    0.3638
   38.325    0.3638
   38.340    0.3531
   38.355    0.3424
   38.370    0.4280
   38.385    0.3959
   38.400    0.3531
   38.415    0.3531
   38.430    0.2675
   38.445    0.2996
   38.460    0.4494
   38.475    0.4066
   38.490    0.3531
   38.505    0.3424
   38.520    0.2782
   38.535    0.3103
   38.550    0.4387
   38.565    0.3317
   38.580    0.2996
   38.595    0.3638
   38.610    0.3424
   38.625    0.2782
   38.640    0.2461
   38.655    0.3317
   38.670    0.2996
   38.685    0.2675
   38.700    0.2461
   38.715    0.2889
   38.730    0.3103
   38.745    0.3103
   38.760    0.2996
   38.775    0.2140
   38.790    0.2675
   38.805    0.2675
   38.820    0.2247
   38.835    0.2568
   38.850    0.2461
   38.865    0.3317
   38.880    0.2033
   38.895    0.2354
   38.910    0.2568
   38.925    0.2461
   38.940    0.2568
   38.955    0.1926
   38.970    0.2782
   38.985    0.3210
   39.000    0.2568
   39.015    0.2568
   39.030    0.3531
   39.045    0.2996
   39.060    0.2354
   39.075    0.2461
   39.090    0.2996
   39.105    0.2889
   39.120    0.2889
   39.135    0.2461
   39.150    0.3103
   39.165    0.1926
   39.180    0.2889
   39.195    0.2782
   39.210    0.3210
   39.225    0.2461
   39.240    0.2568
   39.255    0.2675
   39.270    0.2354
   39.285    0.2568
   39.300    0.2889
   39.315    0.3103
   39.330    0.2889
   39.345    0.2782
   39.360    0.3103
   39.375    0.2247
   39.390    0.2675
   39.405    0.2568
   39.420    0.3745
   39.435    0.3531
   39.450    0.3210
   39.465    0.3103
   39.480    0.2461
   39.495    0.2889
   39.510    0.3210
   39.525    0.2568
   39.540    0.2461
   39.555    0.2782
   39.570    0.3531
   39.585    0.3959
   39.600    0.2461
   39.615    0.2568
   39.630    0.3210
   39.645    0.4066
   39.660    0.3531
   39.675    0.2675
   39.690    0.2461
   39.705    0.3103
   39.720    0.2996
   39.735    0.2782
   39.750    0.2461
   39.765    0.2889
   39.780    0.2889
   39.795    0.3317
   39.810    0.1926
   39.825    0.3103
   39.840    0.3210
   39.855    0.3317
   39.870    0.3103
   39.885    0.2354
   39.900    0.1926
   39.915    0.2140
   39.930    0.2568
   39.945    0.2461
   39.960    0.2140
   39.975    0.2033
   39.990    0.2461
