    1.500   38.0902
    1.515   39.1259
    1.530   37.0546
    1.545   35.2115
    1.560   35.1589
    1.575   34.9833
    1.590   33.4913
    1.605   32.0695
    1.620   32.1397
    1.635   31.2270
    1.650   30.0509
    1.665   29.3663
    1.680   26.9265
    1.695   26.4876
    1.710   26.5403
    1.725   25.1360
    1.740   26.0839
    1.755   25.9084
    1.770   24.7499
    1.785   23.4158
    1.800   23.0472
    1.815   22.7664
    1.830   23.0999
    1.845   21.8887
    1.860   21.2744
    1.875   21.5025
    1.890   21.6956
    1.905   21.2217
    1.920   20.9057
    1.935   19.9754
    1.950   18.6238
    1.965   19.0276
    1.980   19.1680
    1.995   18.1148
    2.010   18.3430
    2.025   17.6584
    2.040   17.4829
    2.055   17.5180
    2.070   17.2196
    2.085   17.0265
    2.100   16.7457
    2.115   16.6930
    2.130   16.3244
    2.145   15.6223
    2.160   16.2542
    2.175   15.7276
    2.190   15.0430
    2.205   15.2010
    2.220   15.4643
    2.235   15.0781
    2.250   14.4111
    2.265   14.0776
    2.280   13.5510
    2.295   14.0425
    2.310   13.3755
    2.325   13.7616
    2.340   13.8494
    2.355   13.1999
    2.370   12.9366
    2.385   12.9542
    2.400   13.5334
    2.415   13.3579
    2.430   13.0771
    2.445   12.3925
    2.460   11.2691
    2.475   12.0414
    2.490   12.0941
    2.505   11.6728
    2.520   11.1989
    2.535   11.2164
    2.550   11.6904
    2.565   11.9888
    2.580   11.4622
    2.595   11.5499
    2.610   11.5148
    2.625   10.9531
    2.640   11.0760
    2.655   10.7249
    2.670   11.2340
    2.685   11.0936
    2.700   11.3042
    2.715   11.2515
    2.730   10.1808
    2.745   10.5670
    2.760    9.7420
    2.775   10.3212
    2.790   10.4792
    2.805   10.2159
    2.820    9.3031
    2.835   10.0228
    2.850   10.1281
    2.865   10.3212
    2.880    9.9526
    2.895    9.4962
    2.910    9.6015
    2.925    9.8473
    2.940    9.9175
    2.955    9.9526
    2.970    9.4611
    2.985    9.7069
    3.000    9.4436
    3.015    9.9526
    3.030   10.1808
    3.045   10.1457
    3.060    9.5489
    3.075    9.6367
    3.090    9.0574
    3.105    8.9170
    3.120    9.1978
    3.135    9.5664
    3.150    9.0574
    3.165    9.2154
    3.180    9.5664
    3.195    8.8994
    3.210   10.0053
    3.225    9.5664
    3.240    9.7946
    3.255    9.4260
    3.270    9.4260
    3.285    9.8297
    3.300    9.6893
    3.315    9.1452
    3.330    8.9521
    3.345    9.9877
    3.360   10.1632
    3.375    9.7420
    3.390   10.6547
    3.405   10.6723
    3.420    9.8999
    3.435   10.4441
    3.450   11.0760
    3.465   10.1106
    3.480   10.6372
    3.495   11.1462
    3.510   11.3393
    3.525   11.8483
    3.540   11.8483
    3.555   11.5499
    3.570   11.6026
    3.585   12.4627
    3.600   12.9015
    3.615   13.9372
    3.630   13.7792
    3.645   14.3935
    3.660   15.1483
    3.675   15.1483
    3.690   15.9733
    3.705   16.4648
    3.720   17.2722
    3.735   18.1148
    3.750   19.1504
    3.765   20.4318
    3.780   22.4855
    3.795   24.3813
    3.810   27.5759
    3.825   28.4536
    3.840   30.6653
    3.855   30.5775
    3.870   28.8924
    3.885   26.9440
    3.900   21.6781
    3.915   17.8164
    3.930   13.8845
    3.945   11.8659
    3.960   10.7425
    3.975    9.7420
    3.990    9.8297
    4.005    9.9702
    4.020    9.0398
    4.035    8.9872
    4.050    9.5138
    4.065    8.6361
    4.080    8.3377
    4.095    8.6888
    4.110    8.6537
    4.125    8.5484
    4.140    8.0393
    4.155    8.5659
    4.170    8.9521
    4.185    8.7590
    4.200    7.9516
    4.215    7.9164
    4.230    7.1090
    4.245    7.6356
    4.260    7.8989
    4.275    8.1622
    4.290    7.6180
    4.305    7.8111
    4.320    7.9516
    4.335    7.4601
    4.350    7.5303
    4.365    6.8282
    4.380    7.1617
    4.395    7.7234
    4.410    7.8638
    4.425    7.5303
    4.440    6.7404
    4.455    7.4776
    4.470    7.3899
    4.485    7.0563
    4.500    6.6877
    4.515    6.4244
    4.530    7.0037
    4.545    7.5127
    4.560    6.8282
    4.575    7.6356
    4.590    7.7936
    4.605    7.6005
    4.620    6.7579
    4.635    7.1968
    4.650    7.1968
    4.665    7.4250
    4.680    7.3547
    4.695    7.4425
    4.710    7.2143
    4.725    6.7228
    4.740    7.2494
    4.755    7.2143
    4.770    6.7053
    4.785    6.9686
    4.800    7.3899
    4.815    6.9510
    4.830    7.5654
    4.845    6.9861
    4.860    6.5649
    4.875    6.8457
    4.890    6.8808
    4.905    6.2665
    4.920    7.0563
    4.935    7.4074
    4.950    7.3372
    4.965    7.1266
    4.980    7.3372
    4.995    6.8106
    5.010    6.6351
    5.025    6.8984
    5.040    7.0212
    5.055    7.0212
    5.070    7.0388
    5.085    7.3723
    5.100    7.4425
    5.115    7.4250
    5.130    7.6180
    5.145    8.1446
    5.160    8.2851
    5.175    7.7585
    5.190    7.4425
    5.205    7.7936
    5.220    7.7760
    5.235    7.6883
    5.250    7.9164
    5.265    8.0920
    5.280    8.0744
    5.295    8.7063
    5.310    8.4957
    5.325    9.3382
    5.340    9.3382
    5.355    9.1978
    5.370   10.4616
    5.385   10.3914
    5.400   10.6196
    5.415   10.8303
    5.430   12.4803
    5.445   13.9372
    5.460   13.8845
    5.475   13.2701
    5.490   13.5159
    5.505   12.4803
    5.520   11.4446
    5.535   10.5670
    5.550    9.1452
    5.565    7.5829
    5.580    7.0739
    5.595    7.1968
    5.610    7.0915
    5.625    7.5478
    5.640    6.9861
    5.655    6.8282
    5.670    6.9159
    5.685    6.7404
    5.700    6.7579
    5.715    6.8106
    5.730    7.1441
    5.745    6.6877
    5.760    6.9510
    5.775    6.6877
    5.790    6.6175
    5.805    6.7404
    5.820    6.3893
    5.835    6.3893
    5.850    6.4946
    5.865    6.2138
    5.880    6.9335
    5.895    6.6702
    5.910    6.8457
    5.925    7.2845
    5.940    7.3372
    5.955    7.3372
    5.970    6.9861
    5.985    6.6526
    6.000    6.6877
    6.015    7.1441
    6.030    6.5649
    6.045    7.0388
    6.060    6.6702
    6.075    6.4771
    6.090    7.2319
    6.105    7.2494
    6.120    7.2670
    6.135    7.1792
    6.150    7.4425
    6.165    6.3191
    6.180    6.4420
    6.195    6.9335
    6.210    6.8808
    6.225    6.7755
    6.240    6.7755
    6.255    6.8633
    6.270    6.2489
    6.285    6.7228
    6.300    6.4244
    6.315    6.4244
    6.330    6.9159
    6.345    6.5649
    6.360    6.8984
    6.375    7.1617
    6.390    6.5298
    6.405    6.5649
    6.420    6.6526
    6.435    6.7930
    6.450    7.0212
    6.465    7.3196
    6.480    6.7755
    6.495    6.8633
    6.510    6.8808
    6.525    6.9686
    6.540    7.3372
    6.555    7.2494
    6.570    7.2143
    6.585    7.7585
    6.600    7.5478
    6.615    7.4952
    6.630    7.4250
    6.645    8.0393
    6.660    8.3377
    6.675    8.4957
    6.690    8.6712
    6.705    8.4606
    6.720    8.9521
    6.735    8.7765
    6.750    8.6888
    6.765    8.0569
    6.780    8.2851
    6.795    7.6883
    6.810    7.5829
    6.825    6.8633
    6.840    6.9686
    6.855    6.8633
    6.870    6.8633
    6.885    7.3723
    6.900    6.7053
    6.915    6.6351
    6.930    6.8808
    6.945    6.4069
    6.960    6.5122
    6.975    6.6877
    6.990    7.0915
    7.005    6.1436
    7.020    6.4946
    7.035    7.0212
    7.050    7.1090
    7.065    6.8457
    7.080    7.0388
    7.095    6.3893
    7.110    6.4244
    7.125    6.3542
    7.140    6.7755
    7.155    6.7755
    7.170    6.3893
    7.185    6.7228
    7.200    6.6351
    7.215    6.5649
    7.230    6.7930
    7.245    6.5473
    7.260    6.8633
    7.275    6.7930
    7.290    7.0037
    7.305    7.3723
    7.320    6.5473
    7.335    6.4946
    7.350    6.6702
    7.365    6.7404
    7.380    7.0037
    7.395    7.0037
    7.410    7.0563
    7.425    7.0388
    7.440    6.6877
    7.455    6.8633
    7.470    6.7053
    7.485    6.8282
    7.500    6.6175
    7.515    7.0563
    7.530    7.1792
    7.545    6.8808
    7.560    6.5122
    7.575    6.9510
    7.590    7.2670
    7.605    7.5654
    7.620    8.0920
    7.635    7.8111
    7.650    7.9867
    7.665    7.7234
    7.680    7.2494
    7.695    7.2494
    7.710    7.4425
    7.725    8.1622
    7.740    7.4425
    7.755    7.6356
    7.770    8.3202
    7.785    8.0393
    7.800    8.2324
    7.815    7.9164
    7.830    7.4601
    7.845    7.1792
    7.860    6.9861
    7.875    7.1441
    7.890    6.8808
    7.905    6.3191
    7.920    6.9861
    7.935    7.0388
    7.950    7.3547
    7.965    7.1792
    7.980    7.3723
    7.995    7.6005
    8.010    7.0739
    8.025    6.4244
    8.040    6.0032
    8.055    6.6175
    8.070    6.7930
    8.085    6.8457
    8.100    6.8984
    8.115    7.1266
    8.130    7.6707
    8.145    7.6180
    8.160    7.0739
    8.175    6.6175
    8.190    7.2319
    8.205    7.1441
    8.220    7.3723
    8.235    7.2494
    8.250    6.9335
    8.265    6.8633
    8.280    6.6526
    8.295    6.9686
    8.310    7.2143
    8.325    7.2319
    8.340    6.9335
    8.355    7.0563
    8.370    7.6707
    8.385    7.7409
    8.400    7.0037
    8.415    7.0915
    8.430    6.8282
    8.445    6.2313
    8.460    6.5473
    8.475    7.0739
    8.490    7.2319
    8.505    7.3899
    8.520    7.4250
    8.535    7.0915
    8.550    7.1266
    8.565    7.0739
    8.580    7.3196
    8.595    7.4952
    8.610    7.5303
    8.625    7.6356
    8.640    7.6707
    8.655    7.6180
    8.670    7.6532
    8.685    7.6707
    8.700    7.8462
    8.715    7.0739
    8.730    7.3372
    8.745    7.6180
    8.760    7.2845
    8.775    7.2670
    8.790    7.2143
    8.805    7.2845
    8.820    7.4250
    8.835    6.9686
    8.850    7.4250
    8.865    7.5829
    8.880    7.1441
    8.895    7.2494
    8.910    7.2494
    8.925    7.2494
    8.940    6.9159
    8.955    7.4074
    8.970    7.8287
    8.985    7.2845
    9.000    7.3196
    9.015    7.3899
    9.030    7.3899
    9.045    7.2670
    9.060    7.4074
    9.075    7.3899
    9.090    7.2845
    9.105    7.1617
    9.120    7.2319
    9.135    7.3372
    9.150    7.6005
    9.165    8.0569
    9.180    7.9516
    9.195    7.3899
    9.210    7.4776
    9.225    7.1441
    9.240    8.0042
    9.255    7.6532
    9.270    7.1266
    9.285    7.6532
    9.300    6.8282
    9.315    7.1792
    9.330    7.3196
    9.345    7.6005
    9.360    7.6005
    9.375    7.5127
    9.390    7.8111
    9.405    7.9691
    9.420    8.4430
    9.435    8.0569
    9.450    7.9867
    9.465    8.2500
    9.480    9.0574
    9.495    9.2680
    9.510    9.3382
    9.525    9.5664
    9.540    9.7420
    9.555   10.4616
    9.570    9.9702
    9.585    8.8643
    9.600    9.0047
    9.615    8.6186
    9.630    8.1271
    9.645    7.7234
    9.660    8.1095
    9.675    7.5478
    9.690    7.5654
    9.705    7.7409
    9.720    7.9516
    9.735    7.6707
    9.750    7.9164
    9.765    7.4250
    9.780    7.4776
    9.795    7.6180
    9.810    7.0915
    9.825    7.4952
    9.840    7.4074
    9.855    7.3899
    9.870    7.0563
    9.885    7.4601
    9.900    7.3899
    9.915    7.6180
    9.930    8.2500
    9.945    7.7058
    9.960    7.9516
    9.975    7.6883
    9.990    7.5303
   10.005    7.3547
   10.020    7.4074
   10.035    7.3021
   10.050    7.7585
   10.065    7.7585
   10.080    7.2845
   10.095    7.3372
   10.110    7.2143
   10.125    7.1968
   10.140    7.3547
   10.155    7.1792
   10.170    8.4255
   10.185    7.5829
   10.200    7.7058
   10.215    7.4952
   10.230    7.9340
   10.245    7.6356
   10.260    8.0569
   10.275    8.8643
   10.290    8.2851
   10.305    8.7063
   10.320    8.7063
   10.335    8.8117
   10.350    8.2500
   10.365    7.5127
   10.380    7.3723
   10.395    7.3547
   10.410    7.3547
   10.425    7.8989
   10.440    7.5303
   10.455    7.7936
   10.470    7.7234
   10.485    7.3899
   10.500    7.2319
   10.515    7.1441
   10.530    7.0563
   10.545    6.8282
   10.560    7.0212
   10.575    7.5654
   10.590    7.2494
   10.605    6.8984
   10.620    7.3899
   10.635    7.0563
   10.650    7.1617
   10.665    7.4425
   10.680    7.1441
   10.695    6.8457
   10.710    6.8282
   10.725    7.1090
   10.740    7.6707
   10.755    7.4952
   10.770    7.2319
   10.785    6.8633
   10.800    6.9861
   10.815    7.8111
   10.830    7.5654
   10.845    7.5127
   10.860    7.2494
   10.875    6.8984
   10.890    6.8282
   10.905    7.4601
   10.920    7.9867
   10.935    7.6356
   10.950    7.8462
   10.965    7.1090
   10.980    8.0569
   10.995    8.2675
   11.010    7.1266
   11.025    7.0915
   11.040    7.0563
   11.055    6.8808
   11.070    6.9159
   11.085    6.8106
   11.100    7.6356
   11.115    7.1792
   11.130    7.2845
   11.145    7.1617
   11.160    6.6351
   11.175    7.2670
   11.190    7.0037
   11.205    7.1441
   11.220    7.0212
   11.235    6.8984
   11.250    7.1792
   11.265    7.1792
   11.280    7.0037
   11.295    7.0563
   11.310    7.0037
   11.325    6.6526
   11.340    6.8106
   11.355    6.8457
   11.370    6.4595
   11.385    6.9159
   11.400    7.4250
   11.415    7.5654
   11.430    6.3367
   11.445    6.6351
   11.460    6.9335
   11.475    6.2840
   11.490    7.0563
   11.505    6.3893
   11.520    7.0739
   11.535    6.6351
   11.550    6.7930
   11.565    7.3372
   11.580    7.2670
   11.595    6.8106
   11.610    6.9686
   11.625    6.9159
   11.640    6.7579
   11.655    7.1617
   11.670    7.1441
   11.685    7.3547
   11.700    7.4074
   11.715    7.4776
   11.730    7.7409
   11.745    7.7058
   11.760    7.2670
   11.775    7.0212
   11.790    6.7755
   11.805    6.8808
   11.820    6.5473
   11.835    6.2840
   11.850    6.5473
   11.865    6.0032
   11.880    6.2138
   11.895    6.6702
   11.910    6.5122
   11.925    6.3542
   11.940    6.0383
   11.955    6.5824
   11.970    6.8106
   11.985    6.3016
   12.000    6.9686
   12.015    6.5122
   12.030    6.9335
   12.045    6.4069
   12.060    5.6872
   12.075    6.7053
   12.090    6.4420
   12.105    6.0032
   12.120    6.4069
   12.135    6.4946
   12.150    6.2840
   12.165    6.1260
   12.180    6.3542
   12.195    6.4771
   12.210    6.2138
   12.225    6.3893
   12.240    6.8457
   12.255    6.4595
   12.270    5.7925
   12.285    6.3191
   12.300    6.4595
   12.315    6.4420
   12.330    6.4946
   12.345    7.1968
   12.360    6.8282
   12.375    6.5298
   12.390    6.5473
   12.405    6.2313
   12.420    6.5298
   12.435    6.3542
   12.450    5.8276
   12.465    6.6175
   12.480    6.4420
   12.495    6.1787
   12.510    6.1436
   12.525    6.5298
   12.540    6.4069
   12.555    6.3718
   12.570    6.0734
   12.585    6.0909
   12.600    6.0734
   12.615    6.0032
   12.630    6.4069
   12.645    6.1787
   12.660    6.1962
   12.675    5.9329
   12.690    6.0207
   12.705    5.9681
   12.720    6.0032
   12.735    5.8627
   12.750    6.0909
   12.765    5.8803
   12.780    6.3718
   12.795    6.3893
   12.810    5.4590
   12.825    5.8101
   12.840    5.9329
   12.855    6.1787
   12.870    5.7925
   12.885    6.1787
   12.900    6.0734
   12.915    6.0383
   12.930    6.7404
   12.945    6.3367
   12.960    6.1962
   12.975    6.3191
   12.990    6.3191
   13.005    5.7750
   13.020    6.6526
   13.035    6.3718
   13.050    6.6351
   13.065    6.0734
   13.080    6.1085
   13.095    5.8978
   13.110    6.3016
   13.125    6.1436
   13.140    6.4946
   13.155    6.2840
   13.170    6.0207
   13.185    6.3893
   13.200    6.0909
   13.215    6.3718
   13.230    6.2138
   13.245    6.4069
   13.260    6.0558
   13.275    5.8101
   13.290    5.9329
   13.305    5.9329
   13.320    6.4069
   13.335    5.4766
   13.350    5.6521
   13.365    5.9154
   13.380    6.5824
   13.395    6.5473
   13.410    6.1962
   13.425    6.2138
   13.440    5.3186
   13.455    5.5468
   13.470    6.4420
   13.485    6.1611
   13.500    6.0909
   13.515    6.3191
   13.530    6.1436
   13.545    6.2840
   13.560    6.6175
   13.575    6.9159
   13.590    6.4771
   13.605    6.1085
   13.620    6.4420
   13.635    5.9856
   13.650    6.0909
   13.665    6.1260
   13.680    5.5994
   13.695    5.7750
   13.710    6.0558
   13.725    6.1436
   13.740    6.0558
   13.755    5.6521
   13.770    6.0558
   13.785    5.8803
   13.800    5.9329
   13.815    5.8803
   13.830    5.9154
   13.845    5.4766
   13.860    5.7223
   13.875    6.1611
   13.890    5.8627
   13.905    5.8101
   13.920    5.8978
   13.935    6.1436
   13.950    5.8978
   13.965    6.6526
   13.980    6.3367
   13.995    6.1436
   14.010    6.2489
   14.025    6.3191
   14.040    6.2489
   14.055    6.3367
   14.070    5.9505
   14.085    6.2489
   14.100    6.2313
   14.115    6.3191
   14.130    6.2489
   14.145    6.5122
   14.160    6.3893
   14.175    6.0909
   14.190    6.2313
   14.205    6.6175
   14.220    6.0734
   14.235    5.9505
   14.250    6.0558
   14.265    5.7925
   14.280    5.7048
   14.295    6.1260
   14.310    5.9505
   14.325    5.7399
   14.340    6.3367
   14.355    5.9505
   14.370    6.1962
   14.385    6.0207
   14.400    5.7399
   14.415    5.8803
   14.430    6.3191
   14.445    6.1962
   14.460    6.0032
   14.475    6.2840
   14.490    5.9681
   14.505    5.4941
   14.520    5.7399
   14.535    5.6345
   14.550    5.8276
   14.565    6.1260
   14.580    6.3542
   14.595    6.1260
   14.610    5.8452
   14.625    6.0383
   14.640    6.2489
   14.655    6.1962
   14.670    5.9329
   14.685    5.8978
   14.700    5.8452
   14.715    6.1085
   14.730    5.8978
   14.745    5.8101
   14.760    6.2489
   14.775    5.7925
   14.790    5.7574
   14.805    5.5292
   14.820    5.8101
   14.835    6.3367
   14.850    6.4946
   14.865    5.8276
   14.880    6.4069
   14.895    5.6872
   14.910    5.6521
   14.925    5.8101
   14.940    5.8101
   14.955    6.0734
   14.970    6.1962
   14.985    6.2138
   15.000    6.1436
   15.015    6.1611
   15.030    6.0207
   15.045    5.8452
   15.060    5.7223
   15.075    5.6697
   15.090    6.2489
   15.105    6.0383
   15.120    5.7048
   15.135    6.1962
   15.150    6.0383
   15.165    6.0383
   15.180    6.4420
   15.195    5.7750
   15.210    5.4064
   15.225    5.7048
   15.240    5.8978
   15.255    6.0909
   15.270    5.5643
   15.285    5.4415
   15.300    5.6872
   15.315    5.9856
   15.330    5.8276
   15.345    5.9681
   15.360    5.8627
   15.375    6.0383
   15.390    5.7925
   15.405    5.8978
   15.420    6.0032
   15.435    5.5117
   15.450    5.2659
   15.465    6.2313
   15.480    5.8978
   15.495    6.3542
   15.510    6.1085
   15.525    5.5468
   15.540    5.6872
   15.555    5.4941
   15.570    5.7750
   15.585    6.2138
   15.600    5.9681
   15.615    6.1787
   15.630    5.5994
   15.645    5.8978
   15.660    6.1962
   15.675    6.2489
   15.690    6.1260
   15.705    6.0207
   15.720    6.2313
   15.735    6.1787
   15.750    5.8627
   15.765    5.6697
   15.780    6.1611
   15.795    5.8452
   15.810    5.8276
   15.825    5.6521
   15.840    5.8101
   15.855    5.8101
   15.870    5.7223
   15.885    5.9154
   15.900    5.6170
   15.915    6.2138
   15.930    6.0558
   15.945    6.1436
   15.960    5.6170
   15.975    5.8276
   15.990    6.1611
   16.005    5.4766
   16.020    5.8627
   16.035    5.6345
   16.050    6.1085
   16.065    5.9681
   16.080    5.7574
   16.095    6.0207
   16.110    6.5122
   16.125    6.0734
   16.140    6.0909
   16.155    5.8627
   16.170    5.8452
   16.185    6.1962
   16.200    5.6697
   16.215    5.7750
   16.230    6.1085
   16.245    5.7223
   16.260    6.1436
   16.275    6.2665
   16.290    6.2138
   16.305    6.0734
   16.320    5.5643
   16.335    5.7750
   16.350    5.7750
   16.365    5.9329
   16.380    6.2665
   16.395    6.2665
   16.410    5.8101
   16.425    5.7399
   16.440    6.0207
   16.455    6.2138
   16.470    5.5643
   16.485    6.3016
   16.500    6.0558
   16.515    6.0909
   16.530    5.7399
   16.545    5.9856
   16.560    5.7223
   16.575    5.8803
   16.590    6.1436
   16.605    6.4771
   16.620    6.6175
   16.635    6.1260
   16.650    6.1787
   16.665    5.8803
   16.680    5.5819
   16.695    6.4244
   16.710    6.0383
   16.725    5.6170
   16.740    5.6872
   16.755    6.1436
   16.770    6.0909
   16.785    5.9856
   16.800    5.8452
   16.815    6.1611
   16.830    5.8452
   16.845    5.9329
   16.860    5.8101
   16.875    5.5117
   16.890    5.7048
   16.905    5.6170
   16.920    5.7223
   16.935    6.1260
   16.950    6.2665
   16.965    6.1787
   16.980    5.6697
   16.995    5.6521
   17.010    5.9681
   17.025    6.1436
   17.040    6.3542
   17.055    6.1260
   17.070    5.7750
   17.085    6.0032
   17.100    6.0734
   17.115    6.1611
   17.130    6.4595
   17.145    6.5473
   17.160    6.5824
   17.175    6.1962
   17.190    5.8276
   17.205    6.0734
   17.220    5.8803
   17.235    5.9505
   17.250    5.9154
   17.265    6.2840
   17.280    6.0207
   17.295    6.2840
   17.310    6.1962
   17.325    5.7750
   17.340    5.6872
   17.355    5.9681
   17.370    5.8452
   17.385    6.0558
   17.400    5.9856
   17.415    6.4069
   17.430    6.2313
   17.445    5.7223
   17.460    6.0734
   17.475    6.2138
   17.490    6.0734
   17.505    6.3016
   17.520    6.5649
   17.535    5.8978
   17.550    6.0909
   17.565    5.5292
   17.580    6.0558
   17.595    6.6526
   17.610    6.1611
   17.625    5.7750
   17.640    5.6345
   17.655    5.5292
   17.670    5.8452
   17.685    5.8452
   17.700    5.6521
   17.715    5.9154
   17.730    6.3893
   17.745    6.2138
   17.760    5.9505
   17.775    6.0207
   17.790    6.0909
   17.805    5.8452
   17.820    5.9505
   17.835    5.6345
   17.850    5.5643
   17.865    6.0032
   17.880    6.2138
   17.895    5.6345
   17.910    5.8452
   17.925    5.8803
   17.940    5.8803
   17.955    6.0909
   17.970    5.6521
   17.985    5.8803
   18.000    5.6170
   18.015    5.7223
   18.030    6.2840
   18.045    6.1436
   18.060    6.3893
   18.075    5.6345
   18.090    6.0558
   18.105    6.3542
   18.120    6.5473
   18.135    5.9856
   18.150    5.6697
   18.165    5.6872
   18.180    5.9329
   18.195    6.1787
   18.210    5.5117
   18.225    5.7750
   18.240    5.6872
   18.255    6.0207
   18.270    6.0734
   18.285    5.9856
   18.300    5.8452
   18.315    5.6872
   18.330    5.7750
   18.345    5.9329
   18.360    6.3718
   18.375    5.7750
   18.390    5.7925
   18.405    5.8978
   18.420    5.7048
   18.435    5.3361
   18.450    5.8627
   18.465    5.8627
   18.480    5.7048
   18.495    5.5643
   18.510    6.2665
   18.525    5.8101
   18.540    6.0032
   18.555    6.1085
   18.570    6.1436
   18.585    6.0383
   18.600    6.0383
   18.615    5.8276
   18.630    6.6175
   18.645    6.2138
   18.660    5.5643
   18.675    6.3542
   18.690    6.4946
   18.705    5.9154
   18.720    5.9856
   18.735    6.4420
   18.750    5.6872
   18.765    5.6521
   18.780    5.4064
   18.795    5.7574
   18.810    6.0909
   18.825    6.0558
   18.840    5.6697
   18.855    6.0734
   18.870    5.1255
   18.885    5.8978
   18.900    6.0909
   18.915    5.9856
   18.930    6.0207
   18.945    6.1085
   18.960    6.4946
   18.975    6.1962
   18.990    6.0207
   19.005    6.2313
   19.020    5.9856
   19.035    5.7048
   19.050    5.7574
   19.065    6.0207
   19.080    5.7574
   19.095    6.1962
   19.110    6.1611
   19.125    6.0207
   19.140    5.9856
   19.155    6.5298
   19.170    5.8978
   19.185    5.4590
   19.200    5.8101
   19.215    5.7399
   19.230    5.8627
   19.245    6.1085
   19.260    5.5819
   19.275    6.1085
   19.290    5.8627
   19.305    6.0032
   19.320    6.0207
   19.335    6.0558
   19.350    6.2313
   19.365    5.8978
   19.380    6.0558
   19.395    6.3718
   19.410    5.8627
   19.425    6.1436
   19.440    5.9154
   19.455    6.3542
   19.470    5.7048
   19.485    6.4946
   19.500    5.9329
   19.515    5.8101
   19.530    5.8452
   19.545    5.7223
   19.560    5.8101
   19.575    6.0207
   19.590    6.3191
   19.605    6.1436
   19.620    6.3367
   19.635    6.1436
   19.650    5.9681
   19.665    6.1260
   19.680    6.3893
   19.695    6.6702
   19.710    6.1085
   19.725    6.2665
   19.740    6.1085
   19.755    5.7750
   19.770    6.2313
   19.785    6.2665
   19.800    6.2313
   19.815    6.2138
   19.830    6.3016
   19.845    5.9505
   19.860    6.3016
   19.875    6.0032
   19.890    5.8978
   19.905    6.2313
   19.920    6.4244
   19.935    6.1085
   19.950    6.3542
   19.965    6.1962
   19.980    6.0032
   19.995    5.5643
   20.010    5.7574
   20.025    5.8978
   20.040    6.3893
   20.055    6.1085
   20.070    6.0558
   20.085    5.6345
   20.100    6.1611
   20.115    6.4244
   20.130    6.1787
   20.145    5.8627
   20.160    6.2665
   20.175    6.1085
   20.190    6.1260
   20.205    6.1260
   20.220    6.4069
   20.235    6.2840
   20.250    6.0207
   20.265    6.2138
   20.280    6.0383
   20.295    6.2840
   20.310    6.5298
   20.325    5.9329
   20.340    5.7048
   20.355    5.8627
   20.370    6.2665
   20.385    6.2138
   20.400    6.1260
   20.415    6.0207
   20.430    6.4069
   20.445    6.2665
   20.460    6.0383
   20.475    5.8101
   20.490    6.5122
   20.505    6.7053
   20.520    6.3718
   20.535    5.8978
   20.550    6.0383
   20.565    6.2313
   20.580    6.1260
   20.595    6.3016
   20.610    5.9681
   20.625    6.0734
   20.640    6.3016
   20.655    5.8978
   20.670    5.8452
   20.685    5.7223
   20.700    5.8978
   20.715    5.8101
   20.730    6.2665
   20.745    6.5298
   20.760    6.4069
   20.775    5.8803
   20.790    5.5468
   20.805    5.8101
   20.820    6.3893
   20.835    6.5122
   20.850    6.3367
   20.865    6.5122
   20.880    6.0032
   20.895    6.1085
   20.910    6.7579
   20.925    6.3367
   20.940    5.9329
   20.955    6.3718
   20.970    6.5122
   20.985    6.5298
   21.000    6.1085
   21.015    6.5298
   21.030    6.2313
   21.045    6.1611
   21.060    5.6345
   21.075    6.1085
   21.090    6.0734
   21.105    6.0558
   21.120    5.8452
   21.135    5.9856
   21.150    6.1436
   21.165    5.9681
   21.180    5.9505
   21.195    5.9856
   21.210    5.9505
   21.225    5.9681
   21.240    5.7048
   21.255    5.6697
   21.270    5.9154
   21.285    6.4595
   21.300    6.0909
   21.315    6.2489
   21.330    6.3016
   21.345    6.3016
   21.360    6.5649
   21.375    5.9329
   21.390    6.3191
   21.405    5.8978
   21.420    6.0032
   21.435    6.5298
   21.450    6.2138
   21.465    5.7574
   21.480    5.8452
   21.495    6.1962
   21.510    6.0909
   21.525    6.0909
   21.540    6.6000
   21.555    5.9856
   21.570    6.0207
   21.585    6.2665
   21.600    6.5473
   21.615    6.0032
   21.630    6.1787
   21.645    6.1962
   21.660    6.2840
   21.675    6.0734
   21.690    6.0383
   21.705    6.0734
   21.720    5.8276
   21.735    6.1436
   21.750    6.2665
   21.765    6.2665
   21.780    6.0909
   21.795    6.2665
   21.810    6.1436
   21.825    6.3718
   21.840    5.6521
   21.855    6.4595
   21.870    6.7755
   21.885    6.1085
   21.900    6.2138
   21.915    6.1260
   21.930    6.3191
   21.945    6.5473
   21.960    6.5298
   21.975    6.6000
   21.990    6.7404
   22.005    6.3367
   22.020    6.2138
   22.035    6.0909
   22.050    6.0032
   22.065    6.0734
   22.080    6.5649
   22.095    6.3191
   22.110    6.6000
   22.125    6.1787
   22.140    6.3718
   22.155    6.5298
   22.170    6.5298
   22.185    6.3542
   22.200    5.9681
   22.215    5.9681
   22.230    6.2840
   22.245    6.3542
   22.260    6.8633
   22.275    6.1611
   22.290    6.3718
   22.305    6.0032
   22.320    5.8452
   22.335    6.0558
   22.350    6.6000
   22.365    5.7750
   22.380    6.1436
   22.395    6.4069
   22.410    6.5298
   22.425    6.6526
   22.440    6.6175
   22.455    6.2840
   22.470    6.2138
   22.485    6.3893
   22.500    5.8627
   22.515    6.4244
   22.530    6.1611
   22.545    6.5824
   22.560    6.3893
   22.575    6.3016
   22.590    6.4069
   22.605    6.1962
   22.620    6.4420
   22.635    6.5298
   22.650    5.8803
   22.665    6.1787
   22.680    6.2138
   22.695    6.0383
   22.710    6.1260
   22.725    6.2313
   22.740    5.7925
   22.755    6.2840
   22.770    6.4946
   22.785    6.7579
   22.800    5.8978
   22.815    6.1085
   22.830    6.0734
   22.845    6.2489
   22.860    6.1260
   22.875    5.9856
   22.890    6.6702
   22.905    6.7228
   22.920    6.8984
   22.935    6.1436
   22.950    6.5473
   22.965    7.2319
   22.980    6.6877
   22.995    6.3542
   23.010    6.2840
   23.025    6.3893
   23.040    6.4771
   23.055    6.1085
   23.070    6.7053
   23.085    5.7574
   23.100    6.1962
   23.115    6.4069
   23.130    6.6351
   23.145    6.7930
   23.160    6.0383
   23.175    6.2313
   23.190    6.3367
   23.205    7.1792
   23.220    6.3718
   23.235    6.2489
   23.250    5.5819
   23.265    5.9681
   23.280    5.9856
   23.295    6.1962
   23.310    6.2138
   23.325    5.9856
   23.340    6.3191
   23.355    6.3542
   23.370    5.8627
   23.385    6.1962
   23.400    6.1611
   23.415    5.9154
   23.430    6.3542
   23.445    5.9154
   23.460    6.4595
   23.475    6.2840
   23.490    6.3367
   23.505    6.8457
   23.520    6.5298
   23.535    6.3893
   23.550    6.4946
   23.565    6.7755
   23.580    6.3016
   23.595    6.4946
   23.610    6.4420
   23.625    6.4420
   23.640    6.3893
   23.655    6.4069
   23.670    5.9154
   23.685    6.0734
   23.700    5.9505
   23.715    6.0207
   23.730    6.3367
   23.745    6.3191
   23.760    6.6702
   23.775    5.8276
   23.790    6.3367
   23.805    6.6877
   23.820    6.1260
   23.835    6.0383
   23.850    6.2840
   23.865    5.9681
   23.880    6.0909
   23.895    5.9505
   23.910    6.0032
   23.925    5.6697
   23.940    5.1606
   23.955    6.0909
   23.970    5.7750
   23.985    6.1436
   24.000    6.0032
   24.015    5.9856
   24.030    5.8276
   24.045    6.0909
   24.060    6.1611
   24.075    5.8101
   24.090    5.9505
   24.105    6.1436
   24.120    6.1962
   24.135    6.1436
   24.150    6.4595
   24.165    5.5468
   24.180    6.2138
   24.195    5.9505
   24.210    6.2138
   24.225    5.8978
   24.240    5.5819
   24.255    6.2138
   24.270    5.8978
   24.285    5.7399
   24.300    6.5649
   24.315    6.3367
   24.330    5.5994
   24.345    5.5994
   24.360    6.1085
   24.375    6.0558
   24.390    6.0909
   24.405    6.1436
   24.420    6.0734
   24.435    6.1436
   24.450    5.7574
   24.465    5.7048
   24.480    5.7574
   24.495    5.7574
   24.510    5.7399
   24.525    5.8101
   24.540    5.8452
   24.555    5.6345
   24.570    5.8627
   24.585    6.0909
   24.600    6.0383
   24.615    6.2840
   24.630    5.8101
   24.645    5.8627
   24.660    5.5292
   24.675    6.0032
   24.690    5.9681
   24.705    6.0734
   24.720    6.4244
   24.735    5.8627
   24.750    6.3367
   24.765    6.3367
   24.780    6.0207
   24.795    6.0207
   24.810    5.9856
   24.825    5.8101
   24.840    5.8452
   24.855    6.0558
   24.870    5.7223
   24.885    5.9329
   24.900    6.3016
   24.915    6.0909
   24.930    5.7399
   24.945    5.7223
   24.960    5.5643
   24.975    6.1787
   24.990    6.6526
   25.005    6.4946
   25.020    5.9154
   25.035    6.1611
   25.050    6.1436
   25.065    5.8803
   25.080    5.3712
   25.095    5.8276
   25.110    6.2489
   25.125    6.2313
   25.140    5.7223
   25.155    5.7048
   25.170    5.7574
   25.185    6.1436
   25.200    5.9154
   25.215    5.6521
   25.230    6.4946
   25.245    5.8627
   25.260    6.4244
   25.275    5.7399
   25.290    5.5468
   25.305    5.9505
   25.320    5.9505
   25.335    6.0734
   25.350    5.9505
   25.365    6.0032
   25.380    6.3718
   25.395    6.0558
   25.410    5.5117
   25.425    5.8978
   25.440    6.1260
   25.455    5.8627
   25.470    5.9681
   25.485    5.4941
   25.500    6.1085
   25.515    6.2138
   25.530    5.7750
   25.545    5.6170
   25.560    5.9856
   25.575    5.8276
   25.590    5.8101
   25.605    5.9329
   25.620    5.3010
   25.635    5.7925
   25.650    5.7574
   25.665    6.0558
   25.680    6.1436
   25.695    5.7750
   25.710    5.9329
   25.725    5.7399
   25.740    6.1787
   25.755    5.7399
   25.770    5.8452
   25.785    5.4766
   25.800    5.3888
   25.815    5.9329
   25.830    5.9329
   25.845    5.5643
   25.860    5.6521
   25.875    6.1260
   25.890    6.2665
   25.905    5.5468
   25.920    6.0032
   25.935    6.3893
   25.950    6.2489
   25.965    6.2840
   25.980    5.8978
   25.995    5.9505
   26.010    5.7750
   26.025    5.7048
   26.040    5.7925
   26.055    5.4239
   26.070    5.3712
   26.085    6.0734
   26.100    6.1260
   26.115    5.5819
   26.130    6.2138
   26.145    6.2489
   26.160    5.9681
   26.175    5.8276
   26.190    5.3888
   26.205    5.7048
   26.220    5.9154
   26.235    6.1787
   26.250    5.5468
   26.265    5.3186
   26.280    5.5643
   26.295    5.9329
   26.310    6.0558
   26.325    5.6697
   26.340    5.6170
   26.355    5.8101
   26.370    5.6345
   26.385    5.7750
   26.400    5.7925
   26.415    5.6345
   26.430    5.6521
   26.445    5.5643
   26.460    5.5819
   26.475    5.8803
   26.490    5.7048
   26.505    5.2484
   26.520    5.6872
   26.535    5.8101
   26.550    5.7048
   26.565    5.7574
   26.580    5.8627
   26.595    5.5994
   26.610    5.2835
   26.625    5.7574
   26.640    5.7925
   26.655    5.7223
   26.670    5.7574
   26.685    6.4771
   26.700    6.1436
   26.715    5.4239
   26.730    5.2308
   26.745    5.6697
   26.760    5.3537
   26.775    5.5292
   26.790    5.5117
   26.805    5.3537
   26.820    5.6345
   26.835    5.3361
   26.850    5.8101
   26.865    6.2665
   26.880    5.6521
   26.895    5.8276
   26.910    5.4415
   26.925    5.7750
   26.940    5.8978
   26.955    5.6697
   26.970    5.6345
   26.985    6.1436
   27.000    5.6521
   27.015    5.8803
   27.030    5.8627
   27.045    5.6697
   27.060    5.2659
   27.075    5.7048
   27.090    5.7750
   27.105    5.7574
   27.120    5.7048
   27.135    5.7750
   27.150    5.8276
   27.165    5.4941
   27.180    5.5994
   27.195    5.5819
   27.210    5.6697
   27.225    5.6521
   27.240    5.6872
   27.255    5.5819
   27.270    5.7925
   27.285    5.8101
   27.300    5.7048
   27.315    5.4239
   27.330    5.5117
   27.345    5.8276
   27.360    5.6521
   27.375    5.3010
   27.390    5.9505
   27.405    5.4590
   27.420    5.4941
   27.435    5.2484
   27.450    5.5468
   27.465    5.5643
   27.480    5.2308
   27.495    5.2484
   27.510    5.8452
   27.525    5.8627
   27.540    5.6521
   27.555    5.6697
   27.570    5.6697
   27.585    6.2313
   27.600    6.0383
   27.615    5.5994
   27.630    5.4941
   27.645    5.9154
   27.660    6.1787
   27.675    5.7048
   27.690    5.5643
   27.705    5.4415
   27.720    5.3361
   27.735    5.8101
   27.750    5.3010
   27.765    5.5643
   27.780    5.7399
   27.795    5.0026
   27.810    5.4766
   27.825    5.3010
   27.840    5.5468
   27.855    5.4766
   27.870    5.8978
   27.885    5.3010
   27.900    5.4590
   27.915    5.7399
   27.930    5.6521
   27.945    5.7750
   27.960    5.5643
   27.975    5.3186
   27.990    5.3712
   28.005    5.1606
   28.020    5.7399
   28.035    5.5643
   28.050    6.0207
   28.065    5.5994
   28.080    5.4766
   28.095    5.6697
   28.110    5.4941
   28.125    5.7574
   28.140    5.7048
   28.155    5.6697
   28.170    5.5643
   28.185    5.3537
   28.200    5.3361
   28.215    5.4590
   28.230    5.6521
   28.245    5.6345
   28.260    5.6170
   28.275    5.7399
   28.290    5.6521
   28.305    5.5994
   28.320    5.3361
   28.335    5.3888
   28.350    5.8452
   28.365    5.8803
   28.380    5.5994
   28.395    5.8452
   28.410    5.0904
   28.425    5.3537
   28.440    5.5292
   28.455    5.4415
   28.470    5.6697
   28.485    5.5819
   28.500    5.2835
   28.515    4.8798
   28.530    5.3361
   28.545    5.7223
   28.560    5.5117
   28.575    5.6697
   28.590    5.0553
   28.605    5.1782
   28.620    5.4415
   28.635    5.7223
   28.650    5.6521
   28.665    5.7399
   28.680    5.6521
   28.695    5.1606
   28.710    5.6521
   28.725    5.8627
   28.740    5.3712
   28.755    5.3010
   28.770    5.3888
   28.785    5.3537
   28.800    5.7399
   28.815    5.6697
   28.830    5.5819
   28.845    5.3361
   28.860    5.8101
   28.875    5.6170
   28.890    5.6697
   28.905    5.8627
   28.920    5.7925
   28.935    5.6697
   28.950    5.6872
   28.965    5.6170
   28.980    5.5117
   28.995    5.7750
   29.010    5.9329
   29.025    4.9675
   29.040    5.2308
   29.055    5.6697
   29.070    4.9324
   29.085    5.0202
   29.100    5.5819
   29.115    5.5468
   29.130    5.4941
   29.145    5.4064
   29.160    5.5117
   29.175    5.4239
   29.190    5.3186
   29.205    5.3712
   29.220    5.8978
   29.235    5.6170
   29.250    5.4766
   29.265    5.1431
   29.280    5.2835
   29.295    5.8101
   29.310    5.6170
   29.325    5.8101
   29.340    5.4239
   29.355    5.4590
   29.370    5.1431
   29.385    5.4766
   29.400    5.1782
   29.415    4.9851
   29.430    5.2133
   29.445    5.2133
   29.460    5.2659
   29.475    5.0377
   29.490    5.0377
   29.505    5.1431
   29.520    5.4239
   29.535    5.1957
   29.550    5.4415
   29.565    5.5117
   29.580    5.3537
   29.595    5.4766
   29.610    5.4064
   29.625    5.1782
   29.640    4.9851
   29.655    5.5468
   29.670    5.2308
   29.685    5.3888
   29.700    5.4239
   29.715    5.4415
   29.730    5.5117
   29.745    5.4064
   29.760    5.3010
   29.775    5.4064
   29.790    5.2835
   29.805    5.3361
   29.820    5.2835
   29.835    5.0728
   29.850    5.1782
   29.865    5.3186
   29.880    5.2484
   29.895    5.2133
   29.910    5.7399
   29.925    5.3361
   29.940    5.4415
   29.955    5.2835
   29.970    5.1606
   29.985    5.4064
   30.000    5.2133
   30.015    5.1957
   30.030    5.2308
   30.045    5.4415
   30.060    5.4941
   30.075    5.2308
   30.090    5.1957
   30.105    5.3712
   30.120    5.3010
   30.135    5.2133
   30.150    5.7399
   30.165    5.8978
   30.180    5.5468
   30.195    4.7569
   30.210    5.4941
   30.225    5.1957
   30.240    5.2133
   30.255    5.4766
   30.270    5.0202
   30.285    5.0728
   30.300    5.4064
   30.315    5.3186
   30.330    5.4064
   30.345    5.3888
   30.360    5.1782
   30.375    5.0553
   30.390    5.4239
   30.405    5.2133
   30.420    5.0904
   30.435    5.3361
   30.450    5.0728
   30.465    4.9675
   30.480    5.2659
   30.495    5.2484
   30.510    5.3888
   30.525    5.2659
   30.540    5.2133
   30.555    5.1957
   30.570    4.8798
   30.585    5.7574
   30.600    5.3186
   30.615    5.3186
   30.630    5.4941
   30.645    5.1957
   30.660    5.1606
   30.675    5.3186
   30.690    5.3010
   30.705    5.4415
   30.720    5.8276
   30.735    5.1080
   30.750    5.1957
   30.765    5.2484
   30.780    5.4239
   30.795    5.5292
   30.810    4.9675
   30.825    4.9149
   30.840    5.4415
   30.855    5.1606
   30.870    5.0728
   30.885    5.6345
   30.900    5.2308
   30.915    5.1080
   30.930    5.4766
   30.945    5.3537
   30.960    5.4941
   30.975    5.5117
   30.990    5.2484
   31.005    5.2484
   31.020    4.9324
   31.035    4.8973
   31.050    4.7920
   31.065    4.7744
   31.080    5.4766
   31.095    5.4941
   31.110    5.0553
   31.125    5.2659
   31.140    5.1782
   31.155    5.2308
   31.170    5.1431
   31.185    5.0728
   31.200    5.0202
   31.215    5.4766
   31.230    5.5468
   31.245    5.2659
   31.260    5.0377
   31.275    5.0026
   31.290    5.1606
   31.305    5.3537
   31.320    5.0202
   31.335    5.5117
   31.350    4.8271
   31.365    5.2659
   31.380    5.1080
   31.395    4.9675
   31.410    5.1431
   31.425    4.8798
   31.440    4.8447
   31.455    4.7042
   31.470    5.3186
   31.485    5.0553
   31.500    5.4415
   31.515    5.4941
   31.530    5.2308
   31.545    5.0904
   31.560    5.0202
   31.575    4.7393
   31.590    5.4590
   31.605    5.3888
   31.620    5.7399
   31.635    5.3010
   31.650    5.0202
   31.665    5.1080
   31.680    5.0202
   31.695    5.2835
   31.710    5.5117
   31.725    5.0553
   31.740    4.8622
   31.755    5.0728
   31.770    5.0553
   31.785    5.3712
   31.800    5.0553
   31.815    5.1782
   31.830    5.3010
   31.845    5.4590
   31.860    5.7750
   31.875    5.2835
   31.890    5.2835
   31.905    4.4585
   31.920    4.8095
   31.935    5.4064
   31.950    5.0377
   31.965    4.9149
   31.980    5.1957
   31.995    5.3010
   32.010    4.7569
   32.025    5.1080
   32.040    5.2308
   32.055    5.3361
   32.070    5.1606
   32.085    5.0553
   32.100    4.8622
   32.115    4.7042
   32.130    5.9329
   32.145    5.4239
   32.160    5.5117
   32.175    4.9324
   32.190    4.8798
   32.205    4.9851
   32.220    5.0904
   32.235    5.0202
   32.250    5.2484
   32.265    5.1957
   32.280    5.0553
   32.295    5.2308
   32.310    4.9851
   32.325    4.7569
   32.340    5.0202
   32.355    5.1957
   32.370    4.9500
   32.385    4.9149
   32.400    5.0904
   32.415    5.2659
   32.430    4.9675
   32.445    5.0553
   32.460    5.5994
   32.475    5.1431
   32.490    4.7744
   32.505    5.0904
   32.520    5.3712
   32.535    5.2133
   32.550    4.7569
   32.565    5.3537
   32.580    5.4415
   32.595    4.8798
   32.610    5.0377
   32.625    4.7393
   32.640    4.9851
   32.655    5.0377
   32.670    5.3186
   32.685    5.4766
   32.700    5.5643
   32.715    4.7042
   32.730    5.1606
   32.745    5.1782
   32.760    4.4409
   32.775    4.3005
   32.790    4.5989
   32.805    4.8271
   32.820    5.1255
   32.835    5.0728
   32.850    4.8622
   32.865    5.2308
   32.880    4.8271
   32.895    4.6867
   32.910    4.4760
   32.925    4.9851
   32.940    4.9324
   32.955    4.5638
   32.970    4.9149
   32.985    5.1782
   33.000    5.0202
   33.015    4.8447
   33.030    4.5814
   33.045    4.9500
   33.060    5.0202
   33.075    5.0904
   33.090    5.4766
   33.105    5.3361
   33.120    5.3888
   33.135    4.6691
   33.150    4.6867
   33.165    4.8447
   33.180    4.8447
   33.195    5.2659
   33.210    5.0026
   33.225    5.7048
   33.240    5.0377
   33.255    4.5814
   33.270    5.1255
   33.285    5.1957
   33.300    4.9149
   33.315    5.0377
   33.330    5.0026
   33.345    4.8798
   33.360    4.8271
   33.375    5.1080
   33.390    4.8622
   33.405    4.9851
   33.420    4.7218
   33.435    5.2835
   33.450    5.3186
   33.465    5.4415
   33.480    5.1080
   33.495    4.7744
   33.510    5.0202
   33.525    5.0026
   33.540    5.3537
   33.555    4.9500
   33.570    4.9324
   33.585    4.7920
   33.600    5.1431
   33.615    5.4239
   33.630    4.9851
   33.645    4.9851
   33.660    4.8622
   33.675    4.8271
   33.690    4.6516
   33.705    5.1080
   33.720    4.9149
   33.735    5.1431
   33.750    5.4239
   33.765    4.9675
   33.780    4.3181
   33.795    4.4409
   33.810    5.1080
   33.825    4.9324
   33.840    4.6867
   33.855    4.8798
   33.870    4.8271
   33.885    4.7218
   33.900    5.0553
   33.915    5.0202
   33.930    5.2835
   33.945    4.7920
   33.960    4.9500
   33.975    5.0202
   33.990    5.0377
   34.005    5.0553
   34.020    4.5814
   34.035    4.6516
   34.050    5.1255
   34.065    5.0377
   34.080    5.3361
   34.095    5.2133
   34.110    4.5989
   34.125    4.4936
   34.140    4.9324
   34.155    5.1782
   34.170    5.3186
   34.185    4.9675
   34.200    4.8447
   34.215    5.1606
   34.230    4.4936
   34.245    4.4760
   34.260    4.8095
   34.275    4.7569
   34.290    4.7744
   34.305    5.5994
   34.320    5.2659
   34.335    4.9324
   34.350    5.2308
   34.365    4.8271
   34.380    5.5117
   34.395    4.5989
   34.410    5.0904
   34.425    5.0553
   34.440    4.8798
   34.455    4.5814
   34.470    4.4585
   34.485    5.0904
   34.500    4.9675
   34.515    5.1080
   34.530    4.9675
   34.545    4.9324
   34.560    5.1782
   34.575    5.1606
   34.590    5.2659
   34.605    5.1255
   34.620    4.9675
   34.635    4.8798
   34.650    4.6516
   34.665    4.7218
   34.680    4.6691
   34.695    4.4585
   34.710    4.9149
   34.725    5.2659
   34.740    4.5814
   34.755    4.7744
   34.770    5.2659
   34.785    4.7393
   34.800    5.4064
   34.815    5.1957
   34.830    5.0553
   34.845    4.8798
   34.860    4.9675
   34.875    4.7042
   34.890    4.8973
   34.905    4.8622
   34.920    4.8973
   34.935    4.8447
   34.950    5.3186
   34.965    5.6872
   34.980    5.2835
   34.995    4.8973
   35.010    5.0377
   35.025    4.7744
   35.040    4.5287
   35.055    4.7920
   35.070    4.3005
   35.085    5.0202
   35.100    4.8622
   35.115    4.8973
   35.130    4.9149
   35.145    4.9149
   35.160    4.6691
   35.175    4.4234
   35.190    4.6340
   35.205    5.0728
   35.220    4.5287
   35.235    5.0202
   35.250    4.7393
   35.265    4.8271
   35.280    4.8798
   35.295    4.8622
   35.310    4.9500
   35.325    5.1255
   35.340    5.2133
   35.355    4.8271
   35.370    4.7218
   35.385    4.7042
   35.400    4.6340
   35.415    4.7218
   35.430    4.6867
   35.445    4.9500
   35.460    4.5463
   35.475    4.8271
   35.490    5.0202
   35.505    4.6340
   35.520    4.6867
   35.535    4.6165
   35.550    4.9149
   35.565    5.0202
   35.580    4.8095
   35.595    4.7218
   35.610    5.0026
   35.625    4.6516
   35.640    4.6340
   35.655    4.4936
   35.670    4.2830
   35.685    4.4585
   35.700    4.8095
   35.715    4.7042
   35.730    4.5638
   35.745    4.6516
   35.760    4.6165
   35.775    5.0202
   35.790    4.6867
   35.805    4.5287
   35.820    4.8271
   35.835    4.5989
   35.850    4.8622
   35.865    4.8095
   35.880    4.8973
   35.895    5.0728
   35.910    5.1782
   35.925    5.1431
   35.940    4.6867
   35.955    4.5989
   35.970    5.0377
   35.985    4.9149
   36.000    5.1080
   36.015    5.3010
   36.030    4.9675
   36.045    4.4409
   36.060    4.8798
   36.075    4.7569
   36.090    4.9500
   36.105    4.7218
   36.120    4.9324
   36.135    5.0377
   36.150    5.3537
   36.165    5.3010
   36.180    4.9851
   36.195    4.7218
   36.210    4.7569
   36.225    5.0904
   36.240    4.8798
   36.255    4.7393
   36.270    4.8622
   36.285    5.1606
   36.300    4.8447
   36.315    5.4064
   36.330    4.4936
   36.345    4.5638
   36.360    4.7218
   36.375    4.2303
   36.390    4.6165
   36.405    4.8973
   36.420    4.9500
   36.435    4.9675
   36.450    4.6867
   36.465    4.7744
   36.480    4.7920
   36.495    4.6691
   36.510    5.0202
   36.525    5.0026
   36.540    4.7393
   36.555    5.1957
   36.570    5.2308
   36.585    4.8271
   36.600    4.7218
   36.615    4.9675
   36.630    4.7744
   36.645    5.1431
   36.660    4.9500
   36.675    4.7393
   36.690    5.1080
   36.705    4.8095
   36.720    4.8798
   36.735    5.0202
   36.750    4.6340
   36.765    4.9851
   36.780    4.9149
   36.795    4.7218
   36.810    4.8271
   36.825    4.8271
   36.840    4.8973
   36.855    4.7920
   36.870    4.8271
   36.885    5.0728
   36.900    4.5463
   36.915    4.4409
   36.930    4.6691
   36.945    5.4064
   36.960    4.8447
   36.975    4.7920
   36.990    4.8095
   37.005    4.3883
   37.020    4.4936
   37.035    4.7920
   37.050    4.5111
   37.065    4.5638
   37.080    4.7744
   37.095    4.6165
   37.110    4.9500
   37.125    5.0377
   37.140    4.8973
   37.155    4.7569
   37.170    4.6340
   37.185    5.0026
   37.200    4.5814
   37.215    4.7042
   37.230    5.0202
   37.245    5.1431
   37.260    4.9500
   37.275    4.8447
   37.290    4.9324
   37.305    5.1957
   37.320    5.1782
   37.335    4.6867
   37.350    4.5989
   37.365    4.5989
   37.380    4.8447
   37.395    4.4409
   37.410    4.8622
   37.425    4.3181
   37.440    4.5287
   37.455    4.8447
   37.470    4.7569
   37.485    4.8798
   37.500    4.6165
   37.515    4.6340
   37.530    4.5463
   37.545    4.7920
   37.560    4.8271
   37.575    4.5638
   37.590    4.7218
   37.605    4.7393
   37.620    4.6867
   37.635    4.7569
   37.650    4.7218
   37.665    4.4585
   37.680    4.2654
   37.695    4.8973
   37.710    4.7042
   37.725    5.1782
   37.740    5.2659
   37.755    4.6867
   37.770    4.5638
   37.785    4.0899
   37.800    4.6165
   37.815    4.8095
   37.830    4.8973
   37.845    4.4936
   37.860    5.2659
   37.875    4.8798
   37.890    4.5638
   37.905    4.5287
   37.920    4.4936
   37.935    4.4936
   37.950    5.1606
   37.965    5.1255
   37.980    4.7393
   37.995    4.7920
   38.010    4.8447
   38.025    4.5287
   38.040    4.5638
   38.055    4.5463
   38.070    4.7744
   38.085    4.7042
   38.100    4.5463
   38.115    4.5463
   38.130    4.8447
   38.145    5.0202
   38.160    5.0904
   38.175    4.8447
   38.190    5.0728
   38.205    5.0377
   38.220    4.7218
   38.235    5.1957
   38.250    5.0904
   38.265    4.5638
   38.280    4.9149
   38.295    4.9851
   38.310    5.0553
   38.325    4.6340
   38.340    4.6516
   38.355    4.8798
   38.370    4.8095
   38.385    5.2484
   38.400    4.8798
   38.415    4.4760
   38.430    4.6516
   38.445    5.0026
   38.460    5.0728
   38.475    4.9149
   38.490    5.0904
   38.505    5.0728
   38.520    4.3181
   38.535    4.9675
   38.550    5.0553
   38.565    4.7920
   38.580    4.5814
   38.595    4.7042
   38.610    4.8095
   38.625    4.8622
   38.640    4.7920
   38.655    4.5463
   38.670    4.8271
   38.685    4.5463
   38.700    4.8095
   38.715    4.8095
   38.730    4.8622
   38.745    4.7569
   38.760    4.4585
   38.775    4.9500
   38.790    4.7218
   38.805    4.8271
   38.820    4.1601
   38.835    4.4760
   38.850    5.0202
   38.865    4.5989
   38.880    4.4409
   38.895    5.0728
   38.910    4.8622
   38.925    4.7920
   38.940    4.6867
   38.955    4.5638
   38.970    4.5463
   38.985    4.6867
   39.000    5.2133
   39.015    4.8622
   39.030    5.0553
   39.045    5.0904
   39.060    4.9324
   39.075    4.6340
   39.090    4.3356
   39.105    4.6867
   39.120    4.9675
   39.135    4.8095
   39.150    4.7218
   39.165    4.6516
   39.180    4.5814
   39.195    4.5638
   39.210    4.5463
   39.225    4.6340
   39.240    4.8798
   39.255    4.4409
   39.270    4.9675
   39.285    4.5814
   39.300    4.8622
   39.315    4.9324
   39.330    4.2303
   39.345    4.9500
   39.360    5.4064
   39.375    4.8622
   39.390    5.0553
   39.405    5.3186
   39.420    4.7569
   39.435    4.6340
   39.450    4.8447
   39.465    4.7042
   39.480    4.8622
   39.495    4.6165
   39.510    4.6340
   39.525    4.7569
   39.540    4.7218
   39.555    4.7569
   39.570    4.7042
   39.585    4.7218
   39.600    4.7744
   39.615    5.0026
   39.630    4.8973
   39.645    4.9149
   39.660    4.8798
   39.675    4.7920
   39.690    4.7744
   39.705    4.2127
   39.720    5.0377
   39.735    4.9324
   39.750    5.1080
   39.765    5.3712
   39.780    5.0728
   39.795    4.6691
   39.810    4.9149
   39.825    5.0202
   39.840    4.7042
   39.855    4.8447
   39.870    4.5463
   39.885    4.0021
   39.900    4.4409
   39.915    4.7218
   39.930    4.5814
   39.945    4.5814
   39.960    5.1431
   39.975    4.6867
   39.990    4.6516
