    1.500   25.0658
    1.515   25.2975
    1.530   24.8341
    1.545   24.3286
    1.560   22.8436
    1.575   23.0753
    1.590   22.4539
    1.605   22.0642
    1.620   21.5798
    1.635   21.2217
    1.650   20.6424
    1.665   20.0948
    1.680   19.4313
    1.695   18.6940
    1.710   18.4518
    1.725   18.6519
    1.740   17.8410
    1.755   17.8304
    1.770   17.7251
    1.785   16.7141
    1.800   17.1248
    1.815   16.8826
    1.830   16.0400
    1.845   15.5872
    1.860   15.6082
    1.875   15.6293
    1.890   15.3765
    1.905   14.7973
    1.920   14.9974
    1.935   14.5550
    1.950   13.8389
    1.965   13.4071
    1.980   13.5861
    1.995   14.0284
    2.010   13.6388
    2.025   12.7857
    2.040   13.0279
    2.055   12.8805
    2.070   13.3755
    2.085   12.8383
    2.100   12.5540
    2.115   12.5013
    2.130   12.1327
    2.145   11.4587
    2.160   12.2380
    2.175   11.7114
    2.190   11.7325
    2.205   11.6798
    2.220   11.1216
    2.235   11.1954
    2.250   10.8373
    2.265   11.2164
    2.280   11.5850
    2.295   10.8478
    2.310   11.0479
    2.325   11.2902
    2.340   11.2059
    2.355   11.2059
    2.370   10.9847
    2.385   10.4792
    2.400   10.3528
    2.415   10.5003
    2.430   10.5529
    2.445   10.2159
    2.460   10.1843
    2.475   10.2054
    2.490   10.2475
    2.505   10.7214
    2.520   10.6793
    2.535   10.4265
    2.550   10.7214
    2.565   10.0474
    2.580   10.1527
    2.595   10.2475
    2.610   10.0158
    2.625   10.1211
    2.640    9.8789
    2.655   10.1632
    2.670    9.9842
    2.685   10.0579
    2.700   10.3002
    2.715   10.3844
    2.730   10.2475
    2.745   10.6582
    2.760    9.9631
    2.775   10.3528
    2.790   10.1001
    2.805   10.0895
    2.820    9.6156
    2.835   10.0474
    2.850   10.0369
    2.865    9.5840
    2.880   10.0158
    2.895    9.9105
    2.910   10.2791
    2.925   10.3002
    2.940    9.7420
    2.955    9.1943
    2.970    9.8684
    2.985   10.2054
    3.000   10.5108
    3.015   10.3002
    3.030   10.0790
    3.045   10.0685
    3.060   10.4581
    3.075   10.5003
    3.090   10.4371
    3.105   10.5424
    3.120   10.6477
    3.135   10.4687
    3.150   10.7214
    3.165   11.0585
    3.180   10.6056
    3.195   11.1848
    3.210   11.0058
    3.225   11.7746
    3.240   11.4903
    3.255   11.6904
    3.270   11.6272
    3.285   11.5640
    3.300   11.6904
    3.315   11.9431
    3.330   12.3749
    3.345   12.7225
    3.360   12.7225
    3.375   12.8173
    3.390   13.0911
    3.405   13.4597
    3.420   13.5229
    3.435   13.1859
    3.450   13.8705
    3.465   14.3339
    3.480   14.3444
    3.495   14.6077
    3.510   14.7341
    3.525   15.4081
    3.540   15.8715
    3.555   16.3981
    3.570   16.5877
    3.585   17.4302
    3.600   18.3992
    3.615   17.9358
    3.630   18.5887
    3.645   18.7678
    3.660   19.5577
    3.675   20.3791
    3.690   21.2849
    3.705   22.6224
    3.720   23.3070
    3.735   23.8020
    3.750   25.0553
    3.765   27.2775
    3.780   28.7414
    3.795   29.9842
    3.810   32.9647
    3.825   36.8404
    3.840   40.9479
    3.855   47.3407
    3.870   52.4276
    3.885   54.9342
    3.900   54.2180
    3.915   48.7204
    3.930   39.7894
    3.945   26.2454
    3.960   16.1032
    3.975   11.1006
    3.990    9.0469
    4.005    8.3202
    4.020    8.0147
    4.035    7.6461
    4.050    8.2991
    4.065    8.0253
    4.080    7.6040
    4.095    7.4355
    4.110    7.3407
    4.125    7.1406
    4.140    7.0458
    4.155    7.3618
    4.170    6.9510
    4.185    7.0774
    4.200    6.9826
    4.215    7.1511
    4.230    7.1195
    4.245    7.0037
    4.260    7.4355
    4.275    7.0669
    4.290    7.1195
    4.305    7.5197
    4.320    7.1933
    4.335    6.8984
    4.350    6.9721
    4.365    7.1722
    4.380    6.9826
    4.395    7.3196
    4.410    7.5513
    4.425    7.0879
    4.440    6.8878
    4.455    7.0669
    4.470    6.6456
    4.485    7.3512
    4.500    6.8984
    4.515    6.9300
    4.530    6.7720
    4.545    7.0248
    4.560    7.3723
    4.575    7.4144
    4.590    7.1511
    4.605    6.8984
    4.620    6.8246
    4.635    7.2249
    4.650    7.3196
    4.665    6.9510
    4.680    6.8773
    4.695    6.8246
    4.710    6.7825
    4.725    6.8878
    4.740    7.4039
    4.755    7.0879
    4.770    7.0563
    4.785    7.0458
    4.800    6.7509
    4.815    6.7825
    4.830    6.8562
    4.845    7.1617
    4.860    6.8984
    4.875    7.3407
    4.890    7.2249
    4.905    7.2986
    4.920    7.2249
    4.935    6.9089
    4.950    7.0985
    4.965    7.6040
    4.980    7.4776
    4.995    6.9616
    5.010    7.3302
    5.025    7.5092
    5.040    7.3618
    5.055    7.7725
    5.070    7.6777
    5.085    7.4250
    5.100    7.3618
    5.115    7.2880
    5.130    7.6988
    5.145    7.5092
    5.160    7.4460
    5.175    7.2775
    5.190    8.1201
    5.205    8.4044
    5.220    8.3834
    5.235    8.4150
    5.250    8.2991
    5.265    8.1306
    5.280    8.3834
    5.295    8.9100
    5.310    8.6361
    5.325    8.5729
    5.340    8.9521
    5.355    9.1943
    5.370    8.7098
    5.385    9.7630
    5.400    9.5524
    5.415    9.6261
    5.430   10.0895
    5.445   10.8162
    5.460   11.5219
    5.475   13.2807
    5.490   13.5545
    5.505   13.5966
    5.520   14.2496
    5.535   12.8910
    5.550   11.7430
    5.565   10.2475
    5.580    8.8152
    5.595    7.8357
    5.610    7.4566
    5.625    6.8457
    5.640    6.6983
    5.655    7.1617
    5.670    7.0985
    5.685    6.8352
    5.700    6.6667
    5.715    6.9721
    5.730    6.9089
    5.745    6.5824
    5.760    6.9194
    5.775    6.6877
    5.790    6.8246
    5.805    7.0458
    5.820    6.6983
    5.835    6.5087
    5.850    6.6351
    5.865    6.6772
    5.880    6.5719
    5.895    6.7299
    5.910    6.7404
    5.925    6.5824
    5.940    6.7299
    5.955    6.8246
    5.970    6.7509
    5.985    6.6245
    6.000    6.8036
    6.015    6.8036
    6.030    6.4876
    6.045    6.6351
    6.060    6.7825
    6.075    6.7930
    6.090    7.1617
    6.105    6.5087
    6.120    6.9300
    6.135    6.8878
    6.150    6.6140
    6.165    6.4034
    6.180    6.3296
    6.195    6.5403
    6.210    6.7193
    6.225    6.4244
    6.240    6.2454
    6.255    6.3928
    6.270    6.4560
    6.285    6.9510
    6.300    6.4876
    6.315    6.9089
    6.330    6.6983
    6.345    6.7509
    6.360    6.4876
    6.375    6.3507
    6.390    6.1295
    6.405    6.5298
    6.420    6.8668
    6.435    6.6140
    6.450    6.8773
    6.465    6.8246
    6.480    6.7720
    6.495    6.4139
    6.510    6.5192
    6.525    6.3296
    6.540    6.7720
    6.555    6.7509
    6.570    7.1406
    6.585    7.0142
    6.600    6.7720
    6.615    6.4034
    6.630    6.8773
    6.645    6.9300
    6.660    7.0563
    6.675    7.0669
    6.690    7.2249
    6.705    6.7088
    6.720    6.9826
    6.735    7.0879
    6.750    6.9405
    6.765    7.2459
    6.780    7.6040
    6.795    7.5619
    6.810    7.2038
    6.825    6.7825
    6.840    6.8352
    6.855    6.8984
    6.870    6.7825
    6.885    6.4666
    6.900    6.5719
    6.915    6.7193
    6.930    6.6667
    6.945    6.7825
    6.960    6.4876
    6.975    6.8668
    6.990    6.7509
    7.005    6.5298
    7.020    6.3612
    7.035    6.5719
    7.050    6.4350
    7.065    6.9510
    7.080    6.7404
    7.095    6.7193
    7.110    7.0879
    7.125    6.6667
    7.140    6.6983
    7.155    6.5613
    7.170    6.3191
    7.185    6.5719
    7.200    6.7509
    7.215    6.7088
    7.230    6.6245
    7.245    6.6035
    7.260    6.6035
    7.275    6.5824
    7.290    6.9405
    7.305    6.7720
    7.320    6.6245
    7.335    6.6035
    7.350    6.6983
    7.365    6.8352
    7.380    6.6245
    7.395    6.5403
    7.410    6.9194
    7.425    6.9300
    7.440    6.7193
    7.455    6.8984
    7.470    6.9932
    7.485    6.9510
    7.500    6.7509
    7.515    7.0353
    7.530    6.9405
    7.545    6.8562
    7.560    6.9826
    7.575    7.4460
    7.590    7.3091
    7.605    6.7299
    7.620    7.2565
    7.635    7.1722
    7.650    7.3723
    7.665    7.2775
    7.680    7.2459
    7.695    7.6883
    7.710    7.4776
    7.725    8.0779
    7.740    8.1622
    7.755    8.0990
    7.770    8.3518
    7.785    9.0574
    7.800    9.2364
    7.815    9.1311
    7.830    9.1311
    7.845    8.7520
    7.860    7.8252
    7.875    7.7093
    7.890    7.0985
    7.905    7.0774
    7.920    7.2565
    7.935    6.8141
    7.950    7.1511
    7.965    6.8457
    7.980    6.8246
    7.995    6.5403
    8.010    6.7088
    8.025    6.8668
    8.040    6.7509
    8.055    6.7299
    8.070    6.8562
    8.085    6.5192
    8.100    6.8036
    8.115    7.2880
    8.130    6.9194
    8.145    6.5403
    8.160    6.6351
    8.175    6.8246
    8.190    6.7930
    8.205    6.8246
    8.220    7.0458
    8.235    6.9089
    8.250    6.7088
    8.265    6.8562
    8.280    6.7720
    8.295    6.8141
    8.310    6.7509
    8.325    6.8141
    8.340    7.0458
    8.355    7.0563
    8.370    6.8562
    8.385    6.8878
    8.400    6.8773
    8.415    6.6772
    8.430    6.5298
    8.445    6.6351
    8.460    7.0879
    8.475    6.9826
    8.490    6.9405
    8.505    6.6877
    8.520    6.4876
    8.535    6.8036
    8.550    7.1195
    8.565    6.7930
    8.580    6.8246
    8.595    7.1722
    8.610    7.0774
    8.625    7.0458
    8.640    7.0458
    8.655    6.6983
    8.670    7.0037
    8.685    7.4987
    8.700    7.5513
    8.715    7.1827
    8.730    7.2354
    8.745    7.7620
    8.760    7.4776
    8.775    7.2670
    8.790    7.2354
    8.805    7.1722
    8.820    7.1195
    8.835    6.8668
    8.850    7.0037
    8.865    7.0669
    8.880    6.9510
    8.895    7.0879
    8.910    7.0142
    8.925    7.2249
    8.940    6.9089
    8.955    7.1090
    8.970    7.1827
    8.985    7.4144
    9.000    7.4882
    9.015    7.5197
    9.030    7.3618
    9.045    7.2038
    9.060    7.2249
    9.075    7.4566
    9.090    7.3091
    9.105    7.5829
    9.120    7.1301
    9.135    7.4671
    9.150    7.0037
    9.165    7.2038
    9.180    7.2880
    9.195    7.2775
    9.210    7.2670
    9.225    7.3828
    9.240    7.0037
    9.255    7.2354
    9.270    7.1301
    9.285    7.2670
    9.300    7.4776
    9.315    7.0248
    9.330    7.1090
    9.345    7.6040
    9.360    7.8146
    9.375    8.2043
    9.390    8.2043
    9.405    7.8884
    9.420    7.6145
    9.435    7.9831
    9.450    8.3307
    9.465    8.2780
    9.480    8.3412
    9.495    8.5835
    9.510    8.8468
    9.525    9.3734
    9.540    9.1206
    9.555    9.3734
    9.570    9.5313
    9.585    9.7525
    9.600    9.6682
    9.615    9.3418
    9.630    8.5097
    9.645    7.6251
    9.660    7.7199
    9.675    7.5303
    9.690    7.1301
    9.705    7.4566
    9.720    7.4355
    9.735    7.1617
    9.750    7.1301
    9.765    7.2880
    9.780    7.3091
    9.795    7.4566
    9.810    7.3723
    9.825    7.3723
    9.840    7.6356
    9.855    7.6988
    9.870    7.2565
    9.885    7.2354
    9.900    7.1406
    9.915    6.9826
    9.930    7.1195
    9.945    7.3934
    9.960    7.7409
    9.975    7.3618
    9.990    7.4355
   10.005    7.5408
   10.020    7.5092
   10.035    7.1406
   10.050    7.4144
   10.065    7.7514
   10.080    7.6672
   10.095    7.2986
   10.110    7.3934
   10.125    7.3302
   10.140    7.5303
   10.155    7.3618
   10.170    7.6461
   10.185    7.4671
   10.200    7.8778
   10.215    7.6040
   10.230    7.4776
   10.245    7.5724
   10.260    7.5303
   10.275    7.8568
   10.290    8.0147
   10.305    7.7514
   10.320    7.7514
   10.335    8.3307
   10.350    8.0885
   10.365    8.3412
   10.380    7.9410
   10.395    7.8357
   10.410    7.7304
   10.425    7.3512
   10.440    7.5619
   10.455    7.1617
   10.470    7.3091
   10.485    7.6567
   10.500    7.3407
   10.515    7.3407
   10.530    7.2354
   10.545    6.6245
   10.560    7.3407
   10.575    7.1722
   10.590    7.3723
   10.605    7.6461
   10.620    7.1722
   10.635    7.4460
   10.650    7.3618
   10.665    7.0774
   10.680    7.4776
   10.695    7.2143
   10.710    7.4144
   10.725    7.5619
   10.740    7.4566
   10.755    7.2143
   10.770    7.2038
   10.785    7.0248
   10.800    7.2354
   10.815    7.2986
   10.830    7.4250
   10.845    7.4144
   10.860    7.1090
   10.875    7.0458
   10.890    7.2249
   10.905    7.2670
   10.920    7.4039
   10.935    7.6040
   10.950    7.5724
   10.965    7.4566
   10.980    7.5829
   10.995    7.7725
   11.010    7.6356
   11.025    7.5303
   11.040    7.9305
   11.055    8.2043
   11.070    7.8778
   11.085    8.2254
   11.100    8.1095
   11.115    8.0885
   11.130    7.2775
   11.145    7.1617
   11.160    7.3407
   11.175    6.9616
   11.190    7.0353
   11.205    6.9089
   11.220    6.6245
   11.235    6.6035
   11.250    6.6351
   11.265    6.9089
   11.280    7.2986
   11.295    7.0563
   11.310    7.2670
   11.325    7.0248
   11.340    6.9616
   11.355    6.6983
   11.370    7.0879
   11.385    6.6772
   11.400    6.8352
   11.415    6.8036
   11.430    6.8984
   11.445    6.9300
   11.460    7.0879
   11.475    6.9616
   11.490    7.0353
   11.505    6.7930
   11.520    6.8457
   11.535    6.7720
   11.550    7.1827
   11.565    6.7299
   11.580    6.7299
   11.595    7.0563
   11.610    7.3618
   11.625    6.7299
   11.640    7.1406
   11.655    7.0563
   11.670    7.1617
   11.685    7.2670
   11.700    7.6251
   11.715    7.4144
   11.730    7.6883
   11.745    7.6777
   11.760    7.9200
   11.775    7.4671
   11.790    7.2986
   11.805    7.0774
   11.820    6.7299
   11.835    6.8246
   11.850    6.7615
   11.865    6.6667
   11.880    6.6877
   11.895    6.4244
   11.910    6.3823
   11.925    6.5613
   11.940    6.5508
   11.955    6.4666
   11.970    6.5508
   11.985    6.2349
   12.000    6.3718
   12.015    6.5613
   12.030    6.7509
   12.045    6.4666
   12.060    6.6245
   12.075    6.7193
   12.090    6.5929
   12.105    6.4876
   12.120    6.5613
   12.135    6.2138
   12.150    6.4455
   12.165    6.3086
   12.180    6.5298
   12.195    6.3718
   12.210    6.4982
   12.225    6.3928
   12.240    6.6456
   12.255    6.5824
   12.270    6.3086
   12.285    6.3612
   12.300    6.8457
   12.315    6.9616
   12.330    6.7825
   12.345    6.4771
   12.360    6.0348
   12.375    6.4455
   12.390    6.4034
   12.405    6.6351
   12.420    6.5719
   12.435    6.6983
   12.450    6.3507
   12.465    6.2033
   12.480    6.3612
   12.495    6.3086
   12.510    6.0348
   12.525    6.0453
   12.540    6.5613
   12.555    6.3402
   12.570    6.4244
   12.585    6.4560
   12.600    6.4982
   12.615    6.0558
   12.630    5.7293
   12.645    6.0874
   12.660    6.0979
   12.675    6.4666
   12.690    5.9400
   12.705    6.1295
   12.720    6.1927
   12.735    6.3507
   12.750    6.6140
   12.765    6.5929
   12.780    6.3086
   12.795    6.0769
   12.810    6.2349
   12.825    6.5719
   12.840    6.1611
   12.855    6.5929
   12.870    6.6245
   12.885    6.2770
   12.900    5.8031
   12.915    6.5508
   12.930    6.3928
   12.945    6.2981
   12.960    6.5824
   12.975    6.7404
   12.990    7.0563
   13.005    6.4350
   13.020    6.5192
   13.035    6.8984
   13.050    6.7088
   13.065    6.1085
   13.080    6.1085
   13.095    5.6661
   13.110    6.0769
   13.125    5.8557
   13.140    5.7399
   13.155    5.9189
   13.170    6.5298
   13.185    6.2665
   13.200    5.8031
   13.215    6.0979
   13.230    5.9505
   13.245    6.2770
   13.260    6.2349
   13.275    6.2349
   13.290    6.0664
   13.305    5.6135
   13.320    5.9400
   13.335    5.9505
   13.350    5.6661
   13.365    6.1295
   13.380    6.2138
   13.395    6.2138
   13.410    6.3191
   13.425    5.8873
   13.440    6.1506
   13.455    6.1506
   13.470    5.7609
   13.485    5.8452
   13.500    6.1085
   13.515    6.2981
   13.530    5.9716
   13.545    6.1401
   13.560    6.5192
   13.575    6.3928
   13.590    6.1401
   13.605    6.1927
   13.620    6.3086
   13.635    6.6667
   13.650    6.3507
   13.665    6.2875
   13.680    6.0242
   13.695    6.0348
   13.710    6.1822
   13.725    6.0242
   13.740    6.0979
   13.755    6.4244
   13.770    5.9294
   13.785    6.0242
   13.800    5.5292
   13.815    5.8662
   13.830    6.1927
   13.845    5.8031
   13.860    5.8031
   13.875    5.9821
   13.890    6.0453
   13.905    6.0558
   13.920    5.8031
   13.935    5.7609
   13.950    5.5503
   13.965    5.9400
   13.980    6.1927
   13.995    6.0453
   14.010    6.2349
   14.025    6.3507
   14.040    6.2349
   14.055    6.3086
   14.070    6.7193
   14.085    6.7615
   14.100    6.6667
   14.115    6.8668
   14.130    6.7615
   14.145    6.5929
   14.160    6.5403
   14.175    6.6983
   14.190    6.2033
   14.205    6.5719
   14.220    6.3191
   14.235    6.0137
   14.250    6.1822
   14.265    6.2454
   14.280    6.1401
   14.295    6.0558
   14.310    5.9716
   14.325    6.6140
   14.340    6.1190
   14.355    6.0348
   14.370    6.2033
   14.385    6.0137
   14.400    6.1927
   14.415    5.7188
   14.430    5.8768
   14.445    6.1717
   14.460    6.0348
   14.475    5.9716
   14.490    6.1611
   14.505    6.1927
   14.520    5.9926
   14.535    5.6977
   14.550    6.1611
   14.565    5.6767
   14.580    6.0032
   14.595    5.7820
   14.610    6.0769
   14.625    5.7083
   14.640    5.9821
   14.655    5.7820
   14.670    6.3612
   14.685    5.8136
   14.700    6.0032
   14.715    5.9610
   14.730    6.0558
   14.745    5.7609
   14.760    6.2033
   14.775    6.0558
   14.790    6.2033
   14.805    5.9610
   14.820    5.6872
   14.835    6.0453
   14.850    5.7820
   14.865    5.9084
   14.880    5.7820
   14.895    5.8136
   14.910    5.6977
   14.925    6.1190
   14.940    6.0453
   14.955    5.9610
   14.970    6.1822
   14.985    5.9294
   15.000    5.8347
   15.015    6.0664
   15.030    5.9294
   15.045    6.2138
   15.060    6.1506
   15.075    6.0769
   15.090    5.8768
   15.105    5.7925
   15.120    6.1295
   15.135    5.9926
   15.150    6.1611
   15.165    6.5403
   15.180    6.2981
   15.195    6.2033
   15.210    6.2243
   15.225    6.0453
   15.240    6.0558
   15.255    5.8557
   15.270    6.2349
   15.285    5.9505
   15.300    5.9400
   15.315    5.9821
   15.330    5.8452
   15.345    5.9294
   15.360    5.7925
   15.375    5.8136
   15.390    5.9294
   15.405    5.9716
   15.420    6.0664
   15.435    5.8557
   15.450    6.0769
   15.465    6.0137
   15.480    6.0453
   15.495    6.1401
   15.510    6.0558
   15.525    5.8031
   15.540    6.0348
   15.555    5.8768
   15.570    5.5292
   15.585    6.0032
   15.600    5.8662
   15.615    5.6977
   15.630    5.6451
   15.645    5.8031
   15.660    5.9084
   15.675    5.6451
   15.690    5.8662
   15.705    6.0558
   15.720    6.0453
   15.735    6.2033
   15.750    6.0769
   15.765    5.9294
   15.780    5.6451
   15.795    6.2454
   15.810    5.9084
   15.825    5.7083
   15.840    5.4450
   15.855    5.9189
   15.870    5.8662
   15.885    5.8662
   15.900    5.7504
   15.915    6.0242
   15.930    5.9189
   15.945    6.1401
   15.960    5.8136
   15.975    5.9610
   15.990    5.8557
   16.005    6.0664
   16.020    5.6556
   16.035    5.5714
   16.050    5.9821
   16.065    6.2981
   16.080    5.8241
   16.095    6.1927
   16.110    6.3507
   16.125    6.0874
   16.140    6.1295
   16.155    6.0137
   16.170    6.2981
   16.185    6.5508
   16.200    6.3612
   16.215    6.1611
   16.230    5.8452
   16.245    6.1927
   16.260    6.1717
   16.275    5.9716
   16.290    6.0874
   16.305    6.1190
   16.320    5.8452
   16.335    6.2349
   16.350    5.9189
   16.365    5.9716
   16.380    5.8241
   16.395    5.9926
   16.410    6.5403
   16.425    5.9505
   16.440    6.0558
   16.455    5.9821
   16.470    5.9084
   16.485    6.0242
   16.500    5.8452
   16.515    6.3612
   16.530    6.0453
   16.545    5.7925
   16.560    6.3191
   16.575    6.3296
   16.590    6.2665
   16.605    5.7925
   16.620    6.4034
   16.635    6.2349
   16.650    6.0664
   16.665    6.5719
   16.680    6.4139
   16.695    6.2138
   16.710    6.3612
   16.725    6.4455
   16.740    6.2349
   16.755    5.6240
   16.770    6.2243
   16.785    6.2138
   16.800    6.2454
   16.815    5.8031
   16.830    6.0242
   16.845    6.3823
   16.860    6.0979
   16.875    6.2665
   16.890    5.9505
   16.905    5.8557
   16.920    6.0664
   16.935    6.0979
   16.950    6.0348
   16.965    6.1295
   16.980    6.1190
   16.995    6.4034
   17.010    6.3402
   17.025    6.4350
   17.040    6.2243
   17.055    6.2033
   17.070    6.3507
   17.085    6.0348
   17.100    6.2875
   17.115    6.6456
   17.130    6.6772
   17.145    6.7299
   17.160    6.1822
   17.175    6.0242
   17.190    5.8031
   17.205    6.1085
   17.220    5.9505
   17.235    5.9716
   17.250    6.1506
   17.265    5.9084
   17.280    5.9610
   17.295    5.6767
   17.310    5.9821
   17.325    6.3507
   17.340    6.0664
   17.355    5.8978
   17.370    5.8136
   17.385    5.7925
   17.400    5.8452
   17.415    5.8768
   17.430    5.9084
   17.445    5.9189
   17.460    5.8136
   17.475    5.9610
   17.490    5.8241
   17.505    6.0979
   17.520    6.0137
   17.535    6.0769
   17.550    6.2243
   17.565    6.0137
   17.580    6.1822
   17.595    5.7820
   17.610    6.0664
   17.625    5.9084
   17.640    6.3823
   17.655    6.3928
   17.670    5.4555
   17.685    5.9716
   17.700    5.8452
   17.715    6.0558
   17.730    5.9821
   17.745    6.0348
   17.760    6.0558
   17.775    5.8347
   17.790    6.2454
   17.805    6.1822
   17.820    5.8978
   17.835    5.7820
   17.850    6.0769
   17.865    5.9610
   17.880    5.8347
   17.895    5.8347
   17.910    5.8557
   17.925    5.7715
   17.940    5.8557
   17.955    6.3402
   17.970    5.9400
   17.985    5.8452
   18.000    6.1085
   18.015    6.1085
   18.030    5.9400
   18.045    5.8347
   18.060    5.7715
   18.075    6.0348
   18.090    5.9189
   18.105    6.1611
   18.120    6.2559
   18.135    6.2138
   18.150    5.6977
   18.165    5.9716
   18.180    5.9716
   18.195    6.1717
   18.210    5.9294
   18.225    5.8452
   18.240    5.8031
   18.255    6.0664
   18.270    5.8557
   18.285    5.8557
   18.300    5.7820
   18.315    6.1085
   18.330    5.8031
   18.345    6.1506
   18.360    6.4560
   18.375    6.3718
   18.390    6.2981
   18.405    6.2138
   18.420    5.9716
   18.435    6.1401
   18.450    6.2875
   18.465    6.5613
   18.480    5.8768
   18.495    6.0769
   18.510    6.1085
   18.525    6.0137
   18.540    5.9084
   18.555    5.9610
   18.570    6.0664
   18.585    6.2981
   18.600    6.2138
   18.615    6.1401
   18.630    5.9716
   18.645    5.8557
   18.660    5.8031
   18.675    5.8768
   18.690    5.8452
   18.705    6.0032
   18.720    5.9505
   18.735    5.9610
   18.750    6.1506
   18.765    6.2875
   18.780    6.0242
   18.795    6.1085
   18.810    6.2138
   18.825    6.5087
   18.840    6.0453
   18.855    6.4560
   18.870    6.2559
   18.885    6.4876
   18.900    6.3191
   18.915    6.4139
   18.930    5.7293
   18.945    6.2665
   18.960    6.2454
   18.975    6.1506
   18.990    6.1401
   19.005    6.1717
   19.020    6.5298
   19.035    6.1295
   19.050    6.0664
   19.065    5.7399
   19.080    5.8241
   19.095    5.8978
   19.110    5.8452
   19.125    5.9505
   19.140    6.1401
   19.155    5.9716
   19.170    5.8768
   19.185    6.1401
   19.200    5.6135
   19.215    6.0137
   19.230    6.0137
   19.245    5.9400
   19.260    5.7715
   19.275    6.3191
   19.290    5.9505
   19.305    6.1190
   19.320    6.2138
   19.335    6.1190
   19.350    6.7193
   19.365    6.1927
   19.380    6.1927
   19.395    6.0348
   19.410    6.3612
   19.425    6.1611
   19.440    6.4771
   19.455    6.1085
   19.470    6.0453
   19.485    6.3402
   19.500    6.2138
   19.515    6.1717
   19.530    6.0348
   19.545    5.9821
   19.560    5.7083
   19.575    6.1190
   19.590    6.2875
   19.605    6.0979
   19.620    6.6140
   19.635    6.3718
   19.650    6.5192
   19.665    6.1401
   19.680    6.1506
   19.695    6.4771
   19.710    6.7299
   19.725    6.2349
   19.740    6.3507
   19.755    6.5087
   19.770    6.4139
   19.785    6.4771
   19.800    6.2454
   19.815    6.2559
   19.830    6.5613
   19.845    6.0664
   19.860    6.4139
   19.875    6.0769
   19.890    6.0558
   19.905    6.0242
   19.920    6.2559
   19.935    6.4350
   19.950    6.1822
   19.965    5.9821
   19.980    6.2138
   19.995    5.9189
   20.010    6.1506
   20.025    6.2349
   20.040    6.3086
   20.055    6.4139
   20.070    6.5087
   20.085    6.3612
   20.100    6.2559
   20.115    6.0137
   20.130    6.4876
   20.145    6.2349
   20.160    6.2875
   20.175    6.0664
   20.190    6.2138
   20.205    5.9716
   20.220    6.2349
   20.235    6.2243
   20.250    6.6245
   20.265    6.7720
   20.280    6.3296
   20.295    6.2454
   20.310    6.6035
   20.325    6.4876
   20.340    6.5824
   20.355    6.3086
   20.370    6.4560
   20.385    6.6035
   20.400    6.5508
   20.415    6.4350
   20.430    6.7299
   20.445    6.7615
   20.460    6.9089
   20.475    6.7825
   20.490    6.7509
   20.505    6.2349
   20.520    6.5298
   20.535    6.4876
   20.550    6.4244
   20.565    6.5824
   20.580    5.8768
   20.595    5.9294
   20.610    6.2243
   20.625    6.2033
   20.640    6.3612
   20.655    6.4982
   20.670    6.1190
   20.685    6.2981
   20.700    6.4350
   20.715    6.2770
   20.730    6.4982
   20.745    6.4666
   20.760    5.9610
   20.775    6.0032
   20.790    6.3296
   20.805    6.3928
   20.820    6.4350
   20.835    6.0664
   20.850    6.1506
   20.865    5.8347
   20.880    6.1085
   20.895    6.2875
   20.910    6.3402
   20.925    6.2454
   20.940    6.4560
   20.955    6.5403
   20.970    6.4982
   20.985    6.3928
   21.000    6.4139
   21.015    6.2559
   21.030    5.9821
   21.045    6.5929
   21.060    6.5192
   21.075    6.2138
   21.090    5.8978
   21.105    6.1822
   21.120    6.3086
   21.135    6.5929
   21.150    6.5929
   21.165    6.4244
   21.180    6.2770
   21.195    6.2349
   21.210    6.0453
   21.225    6.2349
   21.240    6.2138
   21.255    6.3086
   21.270    6.0769
   21.285    6.8668
   21.300    6.0979
   21.315    6.2559
   21.330    6.0664
   21.345    6.2665
   21.360    6.3718
   21.375    5.9294
   21.390    6.1717
   21.405    6.1611
   21.420    6.1401
   21.435    5.8347
   21.450    6.0348
   21.465    6.3507
   21.480    6.0032
   21.495    6.3718
   21.510    6.4244
   21.525    6.2243
   21.540    6.3823
   21.555    6.3402
   21.570    6.5403
   21.585    6.4139
   21.600    6.5087
   21.615    6.6772
   21.630    6.3928
   21.645    5.9505
   21.660    6.2138
   21.675    6.2559
   21.690    6.2665
   21.705    6.2454
   21.720    6.3928
   21.735    6.1822
   21.750    6.5298
   21.765    6.2349
   21.780    6.6456
   21.795    6.8773
   21.810    6.9089
   21.825    6.7615
   21.840    6.3086
   21.855    6.4771
   21.870    6.3928
   21.885    6.7930
   21.900    6.5719
   21.915    7.0037
   21.930    6.8668
   21.945    7.0774
   21.960    6.5719
   21.975    6.5403
   21.990    6.2349
   22.005    6.4139
   22.020    6.6140
   22.035    6.6877
   22.050    6.5824
   22.065    6.6456
   22.080    6.6667
   22.095    6.4876
   22.110    6.6035
   22.125    6.2665
   22.140    6.4244
   22.155    6.3928
   22.170    5.9610
   22.185    6.4244
   22.200    6.7299
   22.215    6.5508
   22.230    7.2775
   22.245    6.7509
   22.260    6.4139
   22.275    6.3507
   22.290    6.0348
   22.305    6.4771
   22.320    6.2665
   22.335    6.4771
   22.350    6.3086
   22.365    6.4982
   22.380    6.5087
   22.395    6.7088
   22.410    6.5087
   22.425    6.4139
   22.440    6.3507
   22.455    6.1611
   22.470    6.3612
   22.485    6.7193
   22.500    6.4455
   22.515    6.4666
   22.530    6.6561
   22.545    6.8773
   22.560    6.7088
   22.575    6.7509
   22.590    6.7720
   22.605    7.2565
   22.620    7.1195
   22.635    6.8668
   22.650    7.0985
   22.665    7.0774
   22.680    6.9194
   22.695    6.6035
   22.710    6.5613
   22.725    6.6245
   22.740    6.6140
   22.755    6.7088
   22.770    6.9089
   22.785    6.8141
   22.800    6.8352
   22.815    6.3823
   22.830    6.5613
   22.845    6.4771
   22.860    6.2770
   22.875    6.5824
   22.890    6.8668
   22.905    7.1301
   22.920    7.2249
   22.935    7.2775
   22.950    7.1406
   22.965    6.9300
   22.980    7.2249
   22.995    7.3302
   23.010    7.4144
   23.025    7.0774
   23.040    6.9721
   23.055    6.8352
   23.070    6.6772
   23.085    6.5508
   23.100    6.5087
   23.115    6.1611
   23.130    6.4982
   23.145    6.4560
   23.160    6.3402
   23.175    6.2981
   23.190    6.3718
   23.205    6.4350
   23.220    6.6035
   23.235    6.8036
   23.250    6.7193
   23.265    6.6351
   23.280    6.6035
   23.295    6.5087
   23.310    6.5298
   23.325    6.7930
   23.340    6.5824
   23.355    6.8457
   23.370    6.6245
   23.385    6.6561
   23.400    6.6877
   23.415    6.7720
   23.430    6.6035
   23.445    6.4350
   23.460    6.5087
   23.475    6.4455
   23.490    5.9716
   23.505    6.0874
   23.520    6.6035
   23.535    6.5298
   23.550    6.8036
   23.565    6.1506
   23.580    6.5192
   23.595    6.0769
   23.610    6.2243
   23.625    6.4666
   23.640    6.3296
   23.655    6.4034
   23.670    6.3191
   23.685    6.5613
   23.700    6.5403
   23.715    6.5298
   23.730    6.4244
   23.745    6.3928
   23.760    6.1190
   23.775    6.5087
   23.790    6.1506
   23.805    6.4244
   23.820    6.4350
   23.835    6.5508
   23.850    6.5719
   23.865    6.3718
   23.880    6.4350
   23.895    6.6561
   23.910    6.6772
   23.925    6.4139
   23.940    6.7930
   23.955    6.4666
   23.970    6.7088
   23.985    6.8668
   24.000    7.0142
   24.015    6.5824
   24.030    6.3718
   24.045    6.8246
   24.060    6.3718
   24.075    6.1822
   24.090    6.4666
   24.105    6.3191
   24.120    6.3402
   24.135    6.1927
   24.150    6.0032
   24.165    6.2349
   24.180    6.1927
   24.195    5.8452
   24.210    6.2138
   24.225    6.4244
   24.240    6.4771
   24.255    6.8352
   24.270    6.2981
   24.285    6.2138
   24.300    6.2770
   24.315    6.7404
   24.330    6.2770
   24.345    6.2981
   24.360    6.5087
   24.375    6.2875
   24.390    6.5719
   24.405    5.9505
   24.420    6.2033
   24.435    6.4771
   24.450    6.5824
   24.465    6.6245
   24.480    6.0979
   24.495    6.4560
   24.510    6.4034
   24.525    6.1717
   24.540    6.4560
   24.555    6.4244
   24.570    6.3718
   24.585    5.9926
   24.600    6.2454
   24.615    6.1295
   24.630    6.4982
   24.645    6.3928
   24.660    6.3823
   24.675    6.2243
   24.690    6.1611
   24.705    6.2454
   24.720    6.3507
   24.735    5.9926
   24.750    6.0242
   24.765    6.3928
   24.780    6.4350
   24.795    6.2981
   24.810    6.0664
   24.825    6.0032
   24.840    6.1190
   24.855    5.9189
   24.870    6.3718
   24.885    6.2454
   24.900    6.2243
   24.915    6.0137
   24.930    6.0453
   24.945    6.1085
   24.960    6.3402
   24.975    6.2243
   24.990    6.3823
   25.005    6.1717
   25.020    6.3191
   25.035    6.8773
   25.050    6.3086
   25.065    5.8768
   25.080    6.1717
   25.095    6.2138
   25.110    6.2033
   25.125    6.1611
   25.140    6.0874
   25.155    6.3191
   25.170    6.1401
   25.185    6.1085
   25.200    6.2875
   25.215    6.2243
   25.230    6.4350
   25.245    6.2875
   25.260    6.2454
   25.275    6.0032
   25.290    6.0137
   25.305    6.1611
   25.320    5.8978
   25.335    6.1295
   25.350    6.0874
   25.365    6.4771
   25.380    6.3402
   25.395    6.4455
   25.410    6.4244
   25.425    6.8352
   25.440    6.0979
   25.455    6.0558
   25.470    6.2454
   25.485    6.3718
   25.500    6.4139
   25.515    6.0348
   25.530    6.1295
   25.545    6.1401
   25.560    6.3928
   25.575    6.5403
   25.590    6.2349
   25.605    5.9294
   25.620    6.1295
   25.635    6.2770
   25.650    6.2559
   25.665    5.9400
   25.680    6.4034
   25.695    6.2981
   25.710    6.2349
   25.725    5.9926
   25.740    6.0348
   25.755    6.2559
   25.770    6.6983
   25.785    6.0979
   25.800    6.4350
   25.815    6.2770
   25.830    6.1717
   25.845    6.4771
   25.860    6.1506
   25.875    6.5613
   25.890    6.3086
   25.905    6.5508
   25.920    6.4666
   25.935    6.2243
   25.950    6.1611
   25.965    6.4350
   25.980    6.2138
   25.995    6.1085
   26.010    6.2138
   26.025    6.2770
   26.040    5.6135
   26.055    6.1190
   26.070    6.4982
   26.085    6.0769
   26.100    6.4350
   26.115    6.7088
   26.130    6.3928
   26.145    6.5824
   26.160    6.4244
   26.175    6.5298
   26.190    6.2243
   26.205    6.4034
   26.220    6.4244
   26.235    6.3718
   26.250    6.3928
   26.265    6.0664
   26.280    5.9084
   26.295    5.7609
   26.310    6.1822
   26.325    5.8452
   26.340    5.7083
   26.355    6.0242
   26.370    6.0242
   26.385    6.1401
   26.400    6.1295
   26.415    6.2559
   26.430    6.0242
   26.445    6.1295
   26.460    6.2138
   26.475    5.9400
   26.490    5.8768
   26.505    6.2875
   26.520    6.3086
   26.535    6.1506
   26.550    6.4560
   26.565    6.0137
   26.580    6.1401
   26.595    6.0874
   26.610    5.7399
   26.625    5.7504
   26.640    5.9821
   26.655    5.9084
   26.670    5.9926
   26.685    6.0348
   26.700    5.9821
   26.715    6.0558
   26.730    5.9505
   26.745    5.8557
   26.760    5.6872
   26.775    6.0242
   26.790    6.1401
   26.805    5.9294
   26.820    5.9400
   26.835    6.1190
   26.850    5.9716
   26.865    5.8031
   26.880    5.5398
   26.895    6.0032
   26.910    6.1401
   26.925    5.9400
   26.940    6.1295
   26.955    6.0032
   26.970    6.0242
   26.985    6.5298
   27.000    6.0874
   27.015    6.1295
   27.030    6.3612
   27.045    5.9505
   27.060    5.8873
   27.075    6.3823
   27.090    6.0979
   27.105    5.9294
   27.120    6.4560
   27.135    6.1401
   27.150    6.2349
   27.165    6.1927
   27.180    6.2665
   27.195    5.7609
   27.210    5.7609
   27.225    5.6451
   27.240    5.7715
   27.255    5.9400
   27.270    5.9400
   27.285    5.6872
   27.300    5.7293
   27.315    6.0664
   27.330    6.1190
   27.345    6.0769
   27.360    5.9926
   27.375    5.5398
   27.390    5.8031
   27.405    6.1927
   27.420    5.7609
   27.435    5.9084
   27.450    6.0979
   27.465    5.5398
   27.480    6.0979
   27.495    5.9189
   27.510    5.6767
   27.525    5.9084
   27.540    5.8662
   27.555    5.6661
   27.570    5.9400
   27.585    6.0242
   27.600    5.8557
   27.615    6.1717
   27.630    5.8452
   27.645    5.7925
   27.660    5.8768
   27.675    5.9189
   27.690    5.9294
   27.705    6.2243
   27.720    5.6029
   27.735    5.5924
   27.750    6.0137
   27.765    5.6240
   27.780    5.7399
   27.795    5.7820
   27.810    5.8452
   27.825    5.8241
   27.840    5.5398
   27.855    6.2559
   27.870    5.9084
   27.885    5.6029
   27.900    5.9716
   27.915    5.9926
   27.930    5.5398
   27.945    5.4871
   27.960    5.5924
   27.975    5.7188
   27.990    5.6451
   28.005    6.1190
   28.020    5.8662
   28.035    5.7504
   28.050    5.7504
   28.065    5.7820
   28.080    5.5082
   28.095    5.7504
   28.110    5.5292
   28.125    5.7925
   28.140    5.8557
   28.155    6.1295
   28.170    5.7715
   28.185    6.1085
   28.200    6.0769
   28.215    5.8557
   28.230    6.0769
   28.245    5.8662
   28.260    5.6872
   28.275    6.1927
   28.290    5.9084
   28.305    6.0664
   28.320    5.5819
   28.335    5.3607
   28.350    5.8768
   28.365    6.0874
   28.380    6.2770
   28.395    5.8557
   28.410    5.7083
   28.425    5.7715
   28.440    5.7504
   28.455    5.6872
   28.470    6.2454
   28.485    6.1927
   28.500    5.9926
   28.515    6.3296
   28.530    6.1401
   28.545    6.0558
   28.560    5.3923
   28.575    5.5082
   28.590    6.1295
   28.605    5.6345
   28.620    5.6029
   28.635    5.6556
   28.650    5.6240
   28.665    5.5924
   28.680    5.5187
   28.695    5.4134
   28.710    5.4660
   28.725    5.8136
   28.740    5.7083
   28.755    5.7083
   28.770    5.7925
   28.785    6.0137
   28.800    5.4239
   28.815    5.6240
   28.830    5.1606
   28.845    5.5924
   28.860    5.5292
   28.875    5.7083
   28.890    5.8557
   28.905    5.9294
   28.920    5.5714
   28.935    5.5608
   28.950    5.4344
   28.965    5.4239
   28.980    5.5292
   28.995    5.5714
   29.010    5.2449
   29.025    5.3186
   29.040    5.8347
   29.055    5.6135
   29.070    5.7399
   29.085    5.5714
   29.100    5.7293
   29.115    5.8241
   29.130    5.8347
   29.145    5.6556
   29.160    5.7188
   29.175    5.4134
   29.190    5.7504
   29.205    5.5819
   29.220    5.5608
   29.235    5.2870
   29.250    5.4344
   29.265    5.4976
   29.280    5.8768
   29.295    5.6345
   29.310    5.5924
   29.325    5.5503
   29.340    5.9926
   29.355    5.5503
   29.370    5.1817
   29.385    5.7820
   29.400    5.6451
   29.415    5.4239
   29.430    5.8873
   29.445    5.5819
   29.460    5.3607
   29.475    5.6240
   29.490    5.2659
   29.505    5.4344
   29.520    5.4766
   29.535    5.6767
   29.550    5.2449
   29.565    5.4660
   29.580    5.7820
   29.595    5.3712
   29.610    5.3291
   29.625    5.6661
   29.640    5.4871
   29.655    5.3818
   29.670    5.7188
   29.685    5.4976
   29.700    5.6029
   29.715    5.6451
   29.730    5.6451
   29.745    5.6661
   29.760    5.5292
   29.775    5.5819
   29.790    5.6661
   29.805    5.6345
   29.820    5.4555
   29.835    5.8978
   29.850    5.2659
   29.865    5.2765
   29.880    5.5398
   29.895    5.6451
   29.910    5.5292
   29.925    5.4450
   29.940    5.6451
   29.955    5.6135
   29.970    5.4660
   29.985    5.4555
   30.000    5.1395
   30.015    5.3081
   30.030    5.1290
   30.045    5.2870
   30.060    5.4134
   30.075    5.6767
   30.090    4.9500
   30.105    5.0553
   30.120    5.7083
   30.135    5.2238
   30.150    5.1711
   30.165    5.4660
   30.180    5.7188
   30.195    5.4555
   30.210    5.4450
   30.225    5.6767
   30.240    5.7609
   30.255    5.8978
   30.270    5.7715
   30.285    5.2975
   30.300    5.2343
   30.315    5.0342
   30.330    5.2659
   30.345    5.5082
   30.360    5.4660
   30.375    5.4028
   30.390    5.6345
   30.405    5.8241
   30.420    5.7188
   30.435    5.6767
   30.450    5.6977
   30.465    5.5187
   30.480    5.5714
   30.495    5.6240
   30.510    5.2975
   30.525    5.7083
   30.540    5.6029
   30.555    5.5082
   30.570    5.7083
   30.585    5.5082
   30.600    5.6661
   30.615    5.9926
   30.630    5.7609
   30.645    5.5924
   30.660    5.7609
   30.675    6.0558
   30.690    5.6451
   30.705    5.6556
   30.720    5.4344
   30.735    5.4344
   30.750    5.4028
   30.765    5.4028
   30.780    5.3081
   30.795    5.4239
   30.810    5.3081
   30.825    5.7188
   30.840    5.4134
   30.855    5.1606
   30.870    5.1922
   30.885    5.2238
   30.900    5.3923
   30.915    5.2449
   30.930    5.3607
   30.945    5.1501
   30.960    5.3502
   30.975    5.7399
   30.990    5.2238
   31.005    5.0869
   31.020    5.3502
   31.035    5.1290
   31.050    5.4766
   31.065    5.3291
   31.080    5.3291
   31.095    5.2027
   31.110    5.5924
   31.125    5.4555
   31.140    5.0132
   31.155    4.9605
   31.170    5.2133
   31.185    5.1922
   31.200    5.0237
   31.215    5.2133
   31.230    4.9921
   31.245    4.8236
   31.260    5.3397
   31.275    5.3502
   31.290    5.4871
   31.305    5.4660
   31.320    5.2343
   31.335    5.0974
   31.350    5.2238
   31.365    5.0448
   31.380    5.1501
   31.395    5.1290
   31.410    5.1711
   31.425    5.1817
   31.440    5.3607
   31.455    5.3081
   31.470    5.6872
   31.485    5.8347
   31.500    5.4344
   31.515    5.2975
   31.530    5.2975
   31.545    5.0553
   31.560    5.3818
   31.575    5.3607
   31.590    4.7499
   31.605    5.4344
   31.620    5.0342
   31.635    5.3291
   31.650    5.4660
   31.665    5.7399
   31.680    5.0026
   31.695    5.3607
   31.710    5.1080
   31.725    5.1606
   31.740    5.1501
   31.755    5.2238
   31.770    5.2870
   31.785    4.9500
   31.800    5.1290
   31.815    5.3502
   31.830    5.1922
   31.845    5.2449
   31.860    5.2765
   31.875    4.9184
   31.890    4.9816
   31.905    5.1922
   31.920    5.1185
   31.935    5.0237
   31.950    5.0869
   31.965    5.3397
   31.980    5.3923
   31.995    5.1606
   32.010    4.7393
   32.025    5.1606
   32.040    5.1290
   32.055    4.7604
   32.070    4.9816
   32.085    4.9921
   32.100    5.1501
   32.115    5.1185
   32.130    5.3712
   32.145    4.8341
   32.160    5.0132
   32.175    5.1080
   32.190    4.8868
   32.205    4.8131
   32.220    5.4766
   32.235    5.2975
   32.250    5.3397
   32.265    5.2870
   32.280    5.1290
   32.295    5.2133
   32.310    5.0974
   32.325    4.8025
   32.340    5.0764
   32.355    5.0132
   32.370    4.8657
   32.385    5.3081
   32.400    4.7288
   32.415    5.1606
   32.430    5.0869
   32.445    4.9921
   32.460    5.0869
   32.475    4.9289
   32.490    4.9921
   32.505    4.9500
   32.520    4.9289
   32.535    5.0553
   32.550    4.9605
   32.565    4.8131
   32.580    4.5498
   32.595    5.0658
   32.610    5.1080
   32.625    5.3081
   32.640    5.1606
   32.655    4.9816
   32.670    5.1185
   32.685    5.1501
   32.700    5.1501
   32.715    5.4871
   32.730    5.1185
   32.745    5.1080
   32.760    5.1711
   32.775    5.0342
   32.790    4.8236
   32.805    4.5814
   32.820    5.0448
   32.835    5.1395
   32.850    4.8763
   32.865    4.8973
   32.880    4.8868
   32.895    4.8131
   32.910    5.2238
   32.925    5.2554
   32.940    5.4871
   32.955    5.0869
   32.970    4.9605
   32.985    4.8552
   33.000    5.0026
   33.015    5.1185
   33.030    5.1606
   33.045    4.9394
   33.060    5.1922
   33.075    5.2765
   33.090    4.9184
   33.105    5.0132
   33.120    5.2238
   33.135    4.9289
   33.150    4.8341
   33.165    5.3186
   33.180    5.2975
   33.195    4.9394
   33.210    4.8868
   33.225    5.0026
   33.240    4.8341
   33.255    4.9921
   33.270    4.9710
   33.285    4.9500
   33.300    5.1501
   33.315    4.7183
   33.330    4.6761
   33.345    4.7393
   33.360    4.8236
   33.375    5.0553
   33.390    4.9605
   33.405    4.9710
   33.420    4.7393
   33.435    4.6972
   33.450    4.7288
   33.465    4.9710
   33.480    4.9710
   33.495    4.6235
   33.510    4.6235
   33.525    4.5919
   33.540    4.7288
   33.555    4.7920
   33.570    5.0026
   33.585    4.7709
   33.600    4.7499
   33.615    4.6761
   33.630    4.9710
   33.645    4.9605
   33.660    4.8131
   33.675    4.6972
   33.690    4.7920
   33.705    4.8657
   33.720    4.8552
   33.735    5.0132
   33.750    5.0869
   33.765    4.6445
   33.780    4.8131
   33.795    4.9710
   33.810    4.7183
   33.825    4.6024
   33.840    4.6024
   33.855    5.1817
   33.870    4.7920
   33.885    4.5603
   33.900    4.7709
   33.915    4.7077
   33.930    4.8025
   33.945    4.6445
   33.960    4.4866
   33.975    4.6972
   33.990    4.9289
   34.005    5.0448
   34.020    4.7604
   34.035    4.4866
   34.050    4.6972
   34.065    5.0132
   34.080    4.7183
   34.095    4.6340
   34.110    4.4866
   34.125    4.7288
   34.140    4.5182
   34.155    4.8868
   34.170    4.6024
   34.185    4.6656
   34.200    4.7920
   34.215    4.5498
   34.230    4.6235
   34.245    4.8025
   34.260    4.7393
   34.275    4.8447
   34.290    4.7499
   34.305    4.6551
   34.320    4.8973
   34.335    4.7815
   34.350    4.7499
   34.365    4.8341
   34.380    4.9710
   34.395    5.0132
   34.410    4.6340
   34.425    4.4971
   34.440    4.7920
   34.455    4.6340
   34.470    4.8657
   34.485    4.8447
   34.500    4.8341
   34.515    4.5708
   34.530    4.9500
   34.545    4.9605
   34.560    4.8552
   34.575    5.0132
   34.590    4.8025
   34.605    4.8763
   34.620    4.8868
   34.635    4.8657
   34.650    4.8552
   34.665    4.5498
   34.680    5.0869
   34.695    4.7604
   34.710    4.5076
   34.725    4.6761
   34.740    4.7604
   34.755    4.7183
   34.770    4.8447
   34.785    4.7920
   34.800    4.5919
   34.815    4.7920
   34.830    4.6972
   34.845    4.9184
   34.860    4.7920
   34.875    4.5498
   34.890    4.9184
   34.905    4.6130
   34.920    4.7288
   34.935    4.5919
   34.950    4.8025
   34.965    4.5287
   34.980    4.4444
   34.995    4.6445
   35.010    4.9500
   35.025    4.7288
   35.040    4.7077
   35.055    4.8131
   35.070    4.7288
   35.085    4.7499
   35.100    4.6656
   35.115    4.8763
   35.130    4.6340
   35.145    4.7077
   35.160    4.7499
   35.175    4.8763
   35.190    5.2238
   35.205    4.8447
   35.220    4.6235
   35.235    5.1290
   35.250    4.6024
   35.265    4.4655
   35.280    5.1290
   35.295    4.8025
   35.310    4.6656
   35.325    4.9816
   35.340    5.1501
   35.355    4.7604
   35.370    4.3286
   35.385    4.5392
   35.400    4.4866
   35.415    4.7393
   35.430    4.8341
   35.445    4.6130
   35.460    4.6972
   35.475    4.6024
   35.490    4.6340
   35.505    4.5182
   35.520    4.3918
   35.535    4.6340
   35.550    4.9921
   35.565    4.6551
   35.580    4.8657
   35.595    4.8657
   35.610    4.4971
   35.625    4.6656
   35.640    4.6867
   35.655    4.2865
   35.670    4.0758
   35.685    4.3391
   35.700    4.5919
   35.715    4.6761
   35.730    5.0658
   35.745    4.8763
   35.760    4.6235
   35.775    4.4023
   35.790    4.5814
   35.805    4.6761
   35.820    4.6445
   35.835    4.7604
   35.850    4.7183
   35.865    4.8025
   35.880    4.6445
   35.895    4.6972
   35.910    4.4655
   35.925    4.9500
   35.940    4.8236
   35.955    4.3602
   35.970    4.5392
   35.985    4.6130
   36.000    4.5919
   36.015    4.5814
   36.030    4.5392
   36.045    5.0553
   36.060    4.6235
   36.075    4.5076
   36.090    4.7288
   36.105    4.5287
   36.120    4.5919
   36.135    4.5392
   36.150    4.5498
   36.165    4.8131
   36.180    4.9289
   36.195    4.6761
   36.210    4.3813
   36.225    4.4339
   36.240    4.6551
   36.255    4.7920
   36.270    4.4234
   36.285    4.5182
   36.300    4.7393
   36.315    4.4866
   36.330    4.4128
   36.345    4.4866
   36.360    4.7604
   36.375    4.6024
   36.390    4.6761
   36.405    4.6551
   36.420    4.7183
   36.435    4.7604
   36.450    4.6551
   36.465    4.7499
   36.480    4.8236
   36.495    4.3391
   36.510    4.7077
   36.525    4.6130
   36.540    4.6656
   36.555    4.6340
   36.570    4.4234
   36.585    4.4128
   36.600    4.6972
   36.615    4.5708
   36.630    4.6445
   36.645    4.5392
   36.660    4.5392
   36.675    4.3075
   36.690    4.5498
   36.705    4.4444
   36.720    4.4655
   36.735    4.7920
   36.750    4.4444
   36.765    4.6445
   36.780    4.5392
   36.795    4.7183
   36.810    4.3707
   36.825    4.5076
   36.840    5.0026
   36.855    4.5392
   36.870    4.5076
   36.885    4.6024
   36.900    4.3181
   36.915    4.1601
   36.930    4.7288
   36.945    4.6340
   36.960    4.6761
   36.975    4.2865
   36.990    4.3286
   37.005    4.5076
   37.020    4.6551
   37.035    4.1390
   37.050    4.4023
   37.065    4.6761
   37.080    4.4128
   37.095    4.5603
   37.110    4.5708
   37.125    4.6024
   37.140    4.5498
   37.155    4.6130
   37.170    4.6024
   37.185    4.8447
   37.200    4.6972
   37.215    4.8025
   37.230    4.7288
   37.245    4.4760
   37.260    4.6551
   37.275    4.5814
   37.290    4.5708
   37.305    4.4971
   37.320    4.4760
   37.335    4.3075
   37.350    4.5076
   37.365    4.2127
   37.380    4.5287
   37.395    4.5919
   37.410    4.5392
   37.425    4.4234
   37.440    4.5603
   37.455    4.7393
   37.470    4.6235
   37.485    4.6024
   37.500    4.6761
   37.515    4.6867
   37.530    4.3286
   37.545    4.8236
   37.560    4.8236
   37.575    4.8025
   37.590    4.4550
   37.605    4.7288
   37.620    4.7709
   37.635    4.3602
   37.650    4.8236
   37.665    4.9394
   37.680    4.3918
   37.695    4.5498
   37.710    4.2233
   37.725    4.2654
   37.740    4.7183
   37.755    4.6235
   37.770    4.6656
   37.785    4.3181
   37.800    4.4128
   37.815    4.5287
   37.830    4.1706
   37.845    4.5287
   37.860    4.4128
   37.875    4.6445
   37.890    4.5919
   37.905    4.6972
   37.920    4.3181
   37.935    4.4971
   37.950    4.5498
   37.965    4.4128
   37.980    4.4550
   37.995    4.9394
   38.010    4.6235
   38.025    4.3391
   38.040    4.6867
   38.055    4.7815
   38.070    4.3075
   38.085    4.5392
   38.100    4.8763
   38.115    4.5708
   38.130    4.2233
   38.145    4.5708
   38.160    4.6130
   38.175    4.5603
   38.190    4.6656
   38.205    4.6340
   38.220    4.4339
   38.235    4.6235
   38.250    4.4971
   38.265    4.6656
   38.280    4.4339
   38.295    4.2233
   38.310    4.4234
   38.325    4.8025
   38.340    4.9184
   38.355    4.6867
   38.370    4.7815
   38.385    4.6656
   38.400    4.5919
   38.415    4.6130
   38.430    4.2338
   38.445    4.6761
   38.460    4.4866
   38.475    4.4550
   38.490    4.6024
   38.505    4.2443
   38.520    4.3918
   38.535    4.8025
   38.550    4.6656
   38.565    4.5182
   38.580    4.5392
   38.595    4.2865
   38.610    4.6972
   38.625    4.5076
   38.640    4.3181
   38.655    4.3286
   38.670    4.3391
   38.685    4.6024
   38.700    4.4234
   38.715    4.3497
   38.730    4.7077
   38.745    4.6235
   38.760    4.4866
   38.775    4.2865
   38.790    4.3286
   38.805    4.7393
   38.820    4.6867
   38.835    4.2970
   38.850    4.4550
   38.865    4.5603
   38.880    4.3391
   38.895    4.4444
   38.910    4.6235
   38.925    4.2338
   38.940    3.9705
   38.955    4.2759
   38.970    4.3497
   38.985    4.4444
   39.000    4.8341
   39.015    4.4760
   39.030    4.2443
   39.045    4.4655
   39.060    4.2970
   39.075    4.3813
   39.090    4.2654
   39.105    4.2759
   39.120    4.3497
   39.135    4.5287
   39.150    4.2443
   39.165    4.4971
   39.180    4.3602
   39.195    4.4760
   39.210    4.4866
   39.225    4.4444
   39.240    4.4655
   39.255    4.3497
   39.270    4.5287
   39.285    4.8868
   39.300    4.6340
   39.315    4.5919
   39.330    4.5814
   39.345    4.2865
   39.360    4.4655
   39.375    4.5392
   39.390    4.4760
   39.405    4.4550
   39.420    4.3602
   39.435    4.1390
   39.450    4.1496
   39.465    4.0758
   39.480    4.3813
   39.495    4.1917
   39.510    4.1285
   39.525    4.6551
   39.540    4.5708
   39.555    4.2549
   39.570    4.4866
   39.585    4.3286
   39.600    4.4866
   39.615    4.4234
   39.630    4.2549
   39.645    4.1917
   39.660    4.3707
   39.675    3.9916
   39.690    4.2127
   39.705    4.2549
   39.720    4.6551
   39.735    4.5603
   39.750    4.2338
   39.765    4.5498
   39.780    4.4655
   39.795    4.2022
   39.810    4.5182
   39.825    4.5919
   39.840    4.4971
   39.855    4.4655
   39.870    4.6340
   39.885    4.9816
   39.900    4.4866
   39.915    4.4866
   39.930    4.3181
   39.945    4.2022
   39.960    4.3391
   39.975    4.5919
   39.990    4.1917
