    1.500    3.1068
    1.515    3.0952
    1.530    3.1193
    1.545    2.9918
    1.560    2.9775
    1.575    2.9338
    1.590    2.8821
    1.605    2.7796
    1.620    2.7207
    1.635    2.7225
    1.650    2.7055
    1.665    2.6351
    1.680    2.5834
    1.695    2.5896
    1.710    2.5602
    1.725    2.4630
    1.740    2.4951
    1.755    2.5094
    1.770    2.3346
    1.785    2.3720
    1.800    2.3301
    1.815    2.4077
    1.830    2.3453
    1.845    2.2258
    1.860    2.2383
    1.875    2.2891
    1.890    2.1955
    1.905    2.1759
    1.920    2.1669
    1.935    2.0831
    1.950    2.1170
    1.965    2.1794
    1.980    2.1687
    1.995    2.1295
    2.010    2.0465
    2.025    2.0037
    2.040    2.0055
    2.055    1.9797
    2.070    2.0127
    2.085    2.0457
    2.100    2.0234
    2.115    1.9101
    2.130    1.9128
    2.145    1.9039
    2.160    1.8896
    2.175    1.9279
    2.190    1.8914
    2.205    1.8548
    2.220    1.8843
    2.235    1.8575
    2.250    1.8388
    2.265    1.8370
    2.280    1.7594
    2.295    1.8325
    2.310    1.7719
    2.325    1.7576
    2.340    1.7888
    2.355    1.7995
    2.370    1.7255
    2.385    1.6595
    2.400    1.6774
    2.415    1.6952
    2.430    1.6809
    2.445    1.6426
    2.460    1.6676
    2.475    1.6836
    2.490    1.6970
    2.505    1.6738
    2.520    1.6506
    2.535    1.6818
    2.550    1.6328
    2.565    1.6479
    2.580    1.6524
    2.595    1.6595
    2.610    1.6462
    2.625    1.5623
    2.640    1.5873
    2.655    1.5632
    2.670    1.5775
    2.685    1.5784
    2.700    1.6176
    2.715    1.5998
    2.730    1.5757
    2.745    1.5597
    2.760    1.6096
    2.775    1.5686
    2.790    1.5561
    2.805    1.5454
    2.820    1.5142
    2.835    1.5142
    2.850    1.5186
    2.865    1.4803
    2.880    1.4518
    2.895    1.4839
    2.910    1.4794
    2.925    1.5436
    2.940    1.4812
    2.955    1.4723
    2.970    1.5115
    2.985    1.4839
    3.000    1.4268
    3.015    1.3974
    3.030    1.4366
    3.045    1.4571
    3.060    1.4500
    3.075    1.4188
    3.090    1.3991
    3.105    1.4063
    3.120    1.4633
    3.135    1.4509
    3.150    1.4277
    3.165    1.4411
    3.180    1.4312
    3.195    1.4393
    3.210    1.4598
    3.225    1.3947
    3.240    1.3688
    3.255    1.4330
    3.270    1.4214
    3.285    1.3965
    3.300    1.4250
    3.315    1.3920
    3.330    1.3956
    3.345    1.3920
    3.360    1.3884
    3.375    1.3938
    3.390    1.3769
    3.405    1.3447
    3.420    1.3474
    3.435    1.4188
    3.450    1.3447
    3.465    1.3572
    3.480    1.3278
    3.495    1.3465
    3.510    1.3528
    3.525    1.3510
    3.540    1.3769
    3.555    1.3492
    3.570    1.3456
    3.585    1.3679
    3.600    1.3822
    3.615    1.3189
    3.630    1.3465
    3.645    1.3537
    3.660    1.3287
    3.675    1.3118
    3.690    1.3608
    3.705    1.3305
    3.720    1.3153
    3.735    1.3376
    3.750    1.3430
    3.765    1.3528
    3.780    1.3260
    3.795    1.3153
    3.810    1.3349
    3.825    1.3412
    3.840    1.3537
    3.855    1.3867
    3.870    1.3082
    3.885    1.3323
    3.900    1.3153
    3.915    1.3216
    3.930    1.3305
    3.945    1.3599
    3.960    1.3608
    3.975    1.3795
    3.990    1.3635
    4.005    1.3590
    4.020    1.3840
    4.035    1.3135
    4.050    1.3019
    4.065    1.3492
    4.080    1.3911
    4.095    1.3858
    4.110    1.3590
    4.125    1.3554
    4.140    1.3991
    4.155    1.3813
    4.170    1.3715
    4.185    1.3554
    4.200    1.3590
    4.215    1.4339
    4.230    1.3670
    4.245    1.3332
    4.260    1.3706
    4.275    1.3679
    4.290    1.3947
    4.305    1.3983
    4.320    1.4000
    4.335    1.4714
    4.350    1.5213
    4.365    1.4714
    4.380    1.4723
    4.395    1.4455
    4.410    1.5668
    4.425    1.5873
    4.440    1.5971
    4.455    1.6818
    4.470    1.7407
    4.485    1.7514
    4.500    1.9092
    4.515    2.1099
    4.530    2.3185
    4.545    2.2302
    4.560    1.7434
    4.575    1.4277
    4.590    1.3260
    4.605    1.3269
    4.620    1.4063
    4.635    1.3706
    4.650    1.3465
    4.665    1.3126
    4.680    1.3661
    4.695    1.3421
    4.710    1.3742
    4.725    1.3706
    4.740    1.3465
    4.755    1.2895
    4.770    1.3670
    4.785    1.3153
    4.800    1.3831
    4.815    1.4054
    4.830    1.3688
    4.845    1.4009
    4.860    1.3332
    4.875    1.3653
    4.890    1.3028
    4.905    1.2770
    4.920    1.3269
    4.935    1.3501
    4.950    1.3233
    4.965    1.3296
    4.980    1.3233
    4.995    1.3822
    5.010    1.3724
    5.025    1.3670
    5.040    1.3483
    5.055    1.3233
    5.070    1.3572
    5.085    1.3162
    5.100    1.3430
    5.115    1.3430
    5.130    1.3474
    5.145    1.3296
    5.160    1.3207
    5.175    1.3011
    5.190    1.3804
    5.205    1.3421
    5.220    1.3162
    5.235    1.3447
    5.250    1.3706
    5.265    1.3742
    5.280    1.3715
    5.295    1.3028
    5.310    1.3465
    5.325    1.3332
    5.340    1.3394
    5.355    1.3706
    5.370    1.3653
    5.385    1.3421
    5.400    1.2939
    5.415    1.3287
    5.430    1.3920
    5.445    1.3804
    5.460    1.3947
    5.475    1.3019
    5.490    1.3572
    5.505    1.4036
    5.520    1.3661
    5.535    1.3635
    5.550    1.3367
    5.565    1.4018
    5.580    1.4339
    5.595    1.3991
    5.610    1.4054
    5.625    1.4036
    5.640    1.3697
    5.655    1.3207
    5.670    1.4232
    5.685    1.3519
    5.700    1.3742
    5.715    1.4312
    5.730    1.4268
    5.745    1.3403
    5.760    1.4036
    5.775    1.3724
    5.790    1.3661
    5.805    1.4526
    5.820    1.4812
    5.835    1.3938
    5.850    1.3902
    5.865    1.4812
    5.880    1.4955
    5.895    1.5026
    5.910    1.4384
    5.925    1.4830
    5.940    1.4910
    5.955    1.5213
    5.970    1.5561
    5.985    1.5864
    6.000    1.5828
    6.015    1.6087
    6.030    1.6042
    6.045    1.6256
    6.060    1.5739
    6.075    1.6203
    6.090    1.6845
    6.105    1.6372
    6.120    1.6470
    6.135    1.6256
    6.150    1.6381
    6.165    1.6792
    6.180    1.7032
    6.195    1.6907
    6.210    1.7148
    6.225    1.7496
    6.240    1.7897
    6.255    1.7701
    6.270    1.7978
    6.285    1.8495
    6.300    1.8566
    6.315    1.8780
    6.330    1.8798
    6.345    1.9092
    6.360    1.9199
    6.375    1.9369
    6.390    1.9529
    6.405    2.0421
    6.420    2.0822
    6.435    1.9975
    6.450    1.8673
    6.465    1.8843
    6.480    1.9681
    6.495    1.8441
    6.510    1.8539
    6.525    1.8539
    6.540    1.8557
    6.555    1.8958
    6.570    1.8316
    6.585    1.8218
    6.600    1.8200
    6.615    1.8316
    6.630    1.8138
    6.645    1.7755
    6.660    1.7764
    6.675    1.7496
    6.690    1.7764
    6.705    1.7683
    6.720    1.7772
    6.735    1.7193
    6.750    1.6720
    6.765    1.6328
    6.780    1.5721
    6.795    1.6141
    6.810    1.6265
    6.825    1.6346
    6.840    1.6105
    6.855    1.5730
    6.870    1.5481
    6.885    1.5525
    6.900    1.5106
    6.915    1.5383
    6.930    1.5766
    6.945    1.5276
    6.960    1.5124
    6.975    1.4277
    6.990    1.4785
    7.005    1.4848
    7.020    1.3706
    7.035    1.4223
    7.050    1.4660
    7.065    1.3867
    7.080    1.3983
    7.095    1.4152
    7.110    1.4518
    7.125    1.4963
    7.140    1.3840
    7.155    1.3546
    7.170    1.3795
    7.185    1.3519
    7.200    1.3233
    7.215    1.3430
    7.230    1.3394
    7.245    1.3465
    7.260    1.3617
    7.275    1.3876
    7.290    1.3608
    7.305    1.3742
    7.320    1.3742
    7.335    1.3635
    7.350    1.3688
    7.365    1.3171
    7.380    1.3162
    7.395    1.3412
    7.410    1.3465
    7.425    1.3126
    7.440    1.3403
    7.455    1.3171
    7.470    1.2377
    7.485    1.2529
    7.500    1.3019
    7.515    1.2413
    7.530    1.2636
    7.545    1.2636
    7.560    1.2154
    7.575    1.3135
    7.590    1.2725
    7.605    1.2493
    7.620    1.2556
    7.635    1.2663
    7.650    1.2609
    7.665    1.2030
    7.680    1.2493
    7.695    1.2431
    7.710    1.2975
    7.725    1.2788
    7.740    1.2850
    7.755    1.3126
    7.770    1.2725
    7.785    1.3403
    7.800    1.3011
    7.815    1.3965
    7.830    1.4098
    7.845    1.5026
    7.860    1.5641
    7.875    1.5311
    7.890    1.3554
    7.905    1.2056
    7.920    1.1896
    7.935    1.1878
    7.950    1.2315
    7.965    1.1619
    7.980    1.1539
    7.995    1.1307
    8.010    1.1503
    8.025    1.1655
    8.040    1.1940
    8.055    1.1584
    8.070    1.1539
    8.085    1.1049
    8.100    1.1423
    8.115    1.1602
    8.130    1.1388
    8.145    1.0701
    8.160    1.1022
    8.175    1.1316
    8.190    1.1388
    8.205    1.1298
    8.220    1.1530
    8.235    1.1370
    8.250    1.1379
    8.265    1.1254
    8.280    1.1174
    8.295    1.0853
    8.310    1.1004
    8.325    1.1352
    8.340    1.1075
    8.355    1.0870
    8.370    1.0674
    8.385    1.0719
    8.400    1.0844
    8.415    1.0861
    8.430    1.1084
    8.445    1.1120
    8.460    1.1058
    8.475    1.1049
    8.490    1.0273
    8.505    1.0103
    8.520    1.0237
    8.535    1.0424
    8.550    1.0861
    8.565    1.0683
    8.580    1.0424
    8.595    1.0335
    8.610    1.0407
    8.625    0.9970
    8.640    1.0184
    8.655    1.0068
    8.670    1.0353
    8.685    1.0416
    8.700    0.9577
    8.715    1.0148
    8.730    1.0915
    8.745    1.0407
    8.760    0.9729
    8.775    1.0175
    8.790    1.0246
    8.805    0.9595
    8.820    1.0166
    8.835    1.0326
    8.850    1.0264
    8.865    1.0005
    8.880    1.0148
    8.895    0.9934
    8.910    0.9666
    8.925    0.9515
    8.940    0.9925
    8.955    0.9649
    8.970    0.9970
    8.985    0.9943
    9.000    0.9684
    9.015    0.9898
    9.030    1.0326
    9.045    1.0398
    9.060    1.0523
    9.075    1.0558
    9.090    1.1067
    9.105    1.0719
    9.120    0.9961
    9.135    0.9684
    9.150    0.9479
    9.165    0.9274
    9.180    0.9363
    9.195    0.9649
    9.210    0.9452
    9.225    0.9274
    9.240    0.9024
    9.255    0.9274
    9.270    0.9328
    9.285    0.9675
    9.300    0.9996
    9.315    0.9399
    9.330    0.9461
    9.345    0.9675
    9.360    0.9158
    9.375    0.8837
    9.390    0.9167
    9.405    0.9372
    9.420    0.9016
    9.435    0.9283
    9.450    0.9470
    9.465    0.9283
    9.480    0.9452
    9.495    0.9123
    9.510    0.9051
    9.525    0.8784
    9.540    0.8819
    9.555    0.8543
    9.570    0.9203
    9.585    0.9337
    9.600    0.9140
    9.615    0.9078
    9.630    0.8463
    9.645    0.8891
    9.660    0.8864
    9.675    0.9078
    9.690    0.8712
    9.705    0.8980
    9.720    0.8677
    9.735    0.8748
    9.750    0.9007
    9.765    0.8864
    9.780    0.8632
    9.795    0.9042
    9.810    0.9016
    9.825    0.8971
    9.840    0.8998
    9.855    0.9060
    9.870    0.8775
    9.885    0.8962
    9.900    0.8668
    9.915    0.8472
    9.930    0.8587
    9.945    0.8989
    9.960    0.8579
    9.975    0.8570
    9.990    0.8793
   10.005    0.8819
   10.020    0.9060
   10.035    0.8659
   10.050    0.8168
   10.065    0.8873
   10.080    0.8659
   10.095    0.9301
   10.110    0.8775
   10.125    0.9069
   10.140    0.9051
   10.155    0.8837
   10.170    0.8775
   10.185    0.8338
   10.200    0.8382
   10.215    0.8935
   10.230    0.8570
   10.245    0.8641
   10.260    0.8436
   10.275    0.8329
   10.290    0.8445
   10.305    0.8757
   10.320    0.8873
   10.335    0.8445
   10.350    0.8382
   10.365    0.8311
   10.380    0.8445
   10.395    0.8293
   10.410    0.8391
   10.425    0.8195
   10.440    0.8026
   10.455    0.8427
   10.470    0.8668
   10.485    0.8275
   10.500    0.8757
   10.515    0.8873
   10.530    0.8650
   10.545    0.8356
   10.560    0.8409
   10.575    0.8222
   10.590    0.8052
   10.605    0.8338
   10.620    0.8543
   10.635    0.8195
   10.650    0.8213
   10.665    0.8356
   10.680    0.8356
   10.695    0.8686
   10.710    0.8525
   10.725    0.8516
   10.740    0.9301
   10.755    0.8739
   10.770    0.8498
   10.785    0.8730
   10.800    0.8347
   10.815    0.8400
   10.830    0.8302
   10.845    0.8596
   10.860    0.8338
   10.875    0.8240
   10.890    0.8240
   10.905    0.8320
   10.920    0.8195
   10.935    0.8356
   10.950    0.8748
   10.965    0.8712
   10.980    0.8891
   10.995    0.8828
   11.010    0.8659
   11.025    0.8864
   11.040    0.8953
   11.055    0.9105
   11.070    0.9488
   11.085    1.0389
   11.100    1.0335
   11.115    1.1289
   11.130    1.2574
   11.145    1.3126
   11.160    1.0933
   11.175    0.9417
   11.190    0.8543
   11.205    0.8801
   11.220    0.8311
   11.235    0.8418
   11.250    0.8347
   11.265    0.8694
   11.280    0.8962
   11.295    0.8008
   11.310    0.8801
   11.325    0.8570
   11.340    0.8507
   11.355    0.8570
   11.370    0.8561
   11.385    0.8463
   11.400    0.8240
   11.415    0.8614
   11.430    0.8133
   11.445    0.7963
   11.460    0.8489
   11.475    0.8391
   11.490    0.8195
   11.505    0.8133
   11.520    0.8222
   11.535    0.8186
   11.550    0.8632
   11.565    0.8659
   11.580    0.8275
   11.595    0.8061
   11.610    0.8258
   11.625    0.8177
   11.640    0.8240
   11.655    0.7999
   11.670    0.7705
   11.685    0.7910
   11.700    0.8115
   11.715    0.8543
   11.730    0.8480
   11.745    0.8275
   11.760    0.8026
   11.775    0.8587
   11.790    0.8222
   11.805    0.8480
   11.820    0.8677
   11.835    0.8409
   11.850    0.8507
   11.865    0.8400
   11.880    0.8338
   11.895    0.8855
   11.910    0.8721
   11.925    0.8998
   11.940    0.9069
   11.955    0.8748
   11.970    0.9337
   11.985    0.9328
   12.000    0.9943
   12.015    1.0933
   12.030    1.2039
   12.045    1.2065
   12.060    0.9765
   12.075    0.8766
   12.090    0.8632
   12.105    0.8605
   12.120    0.8249
   12.135    0.8418
   12.150    0.8632
   12.165    0.8409
   12.180    0.8614
   12.195    0.8391
   12.210    0.8044
   12.225    0.8240
   12.240    0.8632
   12.255    0.8418
   12.270    0.8650
   12.285    0.8605
   12.300    0.8258
   12.315    0.8793
   12.330    0.9042
   12.345    0.8757
   12.360    0.8480
   12.375    0.8373
   12.390    0.8427
   12.405    0.8605
   12.420    0.8329
   12.435    0.8694
   12.450    0.8926
   12.465    0.9007
   12.480    0.8793
   12.495    0.9007
   12.510    0.9256
   12.525    0.8694
   12.540    0.8882
   12.555    0.8819
   12.570    0.8694
   12.585    0.9024
   12.600    0.8962
   12.615    0.8436
   12.630    0.9033
   12.645    0.9016
   12.660    0.8570
   12.675    0.8864
   12.690    0.9363
   12.705    0.8953
   12.720    0.9007
   12.735    0.8739
   12.750    0.8766
   12.765    0.9033
   12.780    0.9444
   12.795    0.9542
   12.810    0.9791
   12.825    0.9470
   12.840    0.9952
   12.855    1.0844
   12.870    1.1316
   12.885    1.1102
   12.900    0.9381
   12.915    0.9167
   12.930    0.9087
   12.945    0.9060
   12.960    0.9158
   12.975    0.8891
   12.990    0.8739
   13.005    0.8766
   13.020    0.8668
   13.035    0.8775
   13.050    0.8739
   13.065    0.8668
   13.080    0.8507
   13.095    0.9051
   13.110    0.9024
   13.125    0.8935
   13.140    0.8525
   13.155    0.8909
   13.170    0.8721
   13.185    0.8757
   13.200    0.8935
   13.215    0.8837
   13.230    0.8909
   13.245    0.8249
   13.260    0.8525
   13.275    0.8721
   13.290    0.8587
   13.305    0.8632
   13.320    0.8810
   13.335    0.8882
   13.350    0.8935
   13.365    0.8552
   13.380    0.8686
   13.395    0.9024
   13.410    0.8944
   13.425    0.8489
   13.440    0.8962
   13.455    0.8454
   13.470    0.8668
   13.485    0.8463
   13.500    0.8703
   13.515    0.8561
   13.530    0.8784
   13.545    0.8480
   13.560    0.9087
   13.575    0.9033
   13.590    0.9230
   13.605    0.9238
   13.620    0.9631
   13.635    1.0139
   13.650    1.1744
   13.665    1.1388
   13.680    0.9756
   13.695    0.8605
   13.710    0.8962
   13.725    0.8293
   13.740    0.8222
   13.755    0.8498
   13.770    0.8079
   13.785    0.8240
   13.800    0.8391
   13.815    0.8463
   13.830    0.8819
   13.845    0.8801
   13.860    0.8623
   13.875    0.8480
   13.890    0.8231
   13.905    0.8204
   13.920    0.7856
   13.935    0.7963
   13.950    0.8311
   13.965    0.8213
   13.980    0.8668
   13.995    0.8605
   14.010    0.8472
   14.025    0.7999
   14.040    0.8195
   14.055    0.8079
   14.070    0.8133
   14.085    0.8035
   14.100    0.8400
   14.115    0.8052
   14.130    0.8240
   14.145    0.8552
   14.160    0.8293
   14.175    0.8489
   14.190    0.8249
   14.205    0.8632
   14.220    0.8329
   14.235    0.8284
   14.250    0.8258
   14.265    0.8258
   14.280    0.8044
   14.295    0.8632
   14.310    0.8168
   14.325    0.8204
   14.340    0.8159
   14.355    0.8284
   14.370    0.7972
   14.385    0.8427
   14.400    0.8347
   14.415    0.8445
   14.430    0.8623
   14.445    0.8400
   14.460    0.8142
   14.475    0.7651
   14.490    0.8097
   14.505    0.7945
   14.520    0.8748
   14.535    0.8489
   14.550    0.7589
   14.565    0.7321
   14.580    0.7990
   14.595    0.8159
   14.610    0.7589
   14.625    0.7705
   14.640    0.7829
   14.655    0.7901
   14.670    0.7937
   14.685    0.7838
   14.700    0.7901
   14.715    0.7847
   14.730    0.7892
   14.745    0.8231
   14.760    0.7981
   14.775    0.7705
   14.790    0.8115
   14.805    0.7999
   14.820    0.8142
   14.835    0.7954
   14.850    0.7589
   14.865    0.7803
   14.880    0.8382
   14.895    0.7803
   14.910    0.8026
   14.925    0.8124
   14.940    0.8186
   14.955    0.8142
   14.970    0.7740
   14.985    0.8204
   15.000    0.8026
   15.015    0.8213
   15.030    0.7963
   15.045    0.8061
   15.060    0.8249
   15.075    0.8587
   15.090    0.9212
   15.105    1.0112
   15.120    0.9666
   15.135    0.8623
   15.150    0.7589
   15.165    0.7393
   15.180    0.7919
   15.195    0.7687
   15.210    0.7847
   15.225    0.8151
   15.240    0.7500
   15.255    0.7615
   15.270    0.7562
   15.285    0.7714
   15.300    0.7883
   15.315    0.7508
   15.330    0.7410
   15.345    0.7865
   15.360    0.7544
   15.375    0.7508
   15.390    0.7705
   15.405    0.8008
   15.420    0.7794
   15.435    0.7455
   15.450    0.7937
   15.465    0.7615
   15.480    0.7945
   15.495    0.7829
   15.510    0.7642
   15.525    0.7491
   15.540    0.7705
   15.555    0.7696
   15.570    0.7874
   15.585    0.7722
   15.600    0.8017
   15.615    0.7945
   15.630    0.7731
   15.645    0.7473
   15.660    0.7651
   15.675    0.7919
   15.690    0.7937
   15.705    0.7821
   15.720    0.8168
   15.735    0.8356
   15.750    0.8258
   15.765    0.8266
   15.780    0.8552
   15.795    0.8605
   15.810    0.8204
   15.825    0.7963
   15.840    0.7803
   15.855    0.7410
   15.870    0.7214
   15.885    0.7883
   15.900    0.7553
   15.915    0.7598
   15.930    0.7856
   15.945    0.7749
   15.960    0.7410
   15.975    0.8044
   15.990    0.7767
   16.005    0.7642
   16.020    0.7838
   16.035    0.7624
   16.050    0.7972
   16.065    0.7972
   16.080    0.7928
   16.095    0.7981
   16.110    0.8266
   16.125    0.7865
   16.140    0.7937
   16.155    0.7660
   16.170    0.8097
   16.185    0.7954
   16.200    0.8008
   16.215    0.8097
   16.230    0.7803
   16.245    0.7972
   16.260    0.7821
   16.275    0.7856
   16.290    0.7928
   16.305    0.8213
   16.320    0.7571
   16.335    0.8177
   16.350    0.7767
   16.365    0.8195
   16.380    0.8275
   16.395    0.8926
   16.410    0.8819
   16.425    0.9069
   16.440    0.9631
   16.455    0.9087
   16.470    0.8650
   16.485    0.8275
   16.500    0.8480
   16.515    0.8222
   16.530    0.8543
   16.545    0.8133
   16.560    0.8311
   16.575    0.8641
   16.590    0.8400
   16.605    0.8142
   16.620    0.8204
   16.635    0.8258
   16.650    0.8356
   16.665    0.8891
   16.680    0.8552
   16.695    0.8819
   16.710    0.8445
   16.725    0.8605
   16.740    0.8596
   16.755    0.8632
   16.770    0.8552
   16.785    0.8596
   16.800    0.8231
   16.815    0.8730
   16.830    0.8445
   16.845    0.8757
   16.860    0.8677
   16.875    0.9131
   16.890    0.8819
   16.905    0.8561
   16.920    0.8186
   16.935    0.8739
   16.950    0.8365
   16.965    0.8926
   16.980    0.8516
   16.995    0.8159
   17.010    0.8418
   17.025    0.8748
   17.040    0.8632
   17.055    0.8650
   17.070    0.8436
   17.085    0.8186
   17.100    0.8240
   17.115    0.8400
   17.130    0.8266
   17.145    0.8801
   17.160    0.8320
   17.175    0.8195
   17.190    0.8240
   17.205    0.8079
   17.220    0.7883
   17.235    0.8061
   17.250    0.7945
   17.265    0.7945
   17.280    0.7714
   17.295    0.7901
   17.310    0.7838
   17.325    0.8088
   17.340    0.8266
   17.355    0.7838
   17.370    0.7856
   17.385    0.8070
   17.400    0.7856
   17.415    0.7749
   17.430    0.7838
   17.445    0.7615
   17.460    0.7785
   17.475    0.8249
   17.490    0.8159
   17.505    0.7705
   17.520    0.7794
   17.535    0.7874
   17.550    0.7731
   17.565    0.7589
   17.580    0.7731
   17.595    0.7705
   17.610    0.7696
   17.625    0.8026
   17.640    0.8400
   17.655    0.7883
   17.670    0.7883
   17.685    0.7722
   17.700    0.7642
   17.715    0.7919
   17.730    0.7553
   17.745    0.7446
   17.760    0.7589
   17.775    0.7312
   17.790    0.7330
   17.805    0.7446
   17.820    0.7901
   17.835    0.7615
   17.850    0.7776
   17.865    0.7571
   17.880    0.7607
   17.895    0.7241
   17.910    0.7223
   17.925    0.7330
   17.940    0.7651
   17.955    0.7660
   17.970    0.7375
   17.985    0.7196
   18.000    0.7615
   18.015    0.7615
   18.030    0.7714
   18.045    0.7384
   18.060    0.7437
   18.075    0.7705
   18.090    0.7250
   18.105    0.7232
   18.120    0.7722
   18.135    0.7705
   18.150    0.7812
   18.165    0.7437
   18.180    0.7517
   18.195    0.7589
   18.210    0.7072
   18.225    0.7526
   18.240    0.7526
   18.255    0.7731
   18.270    0.7366
   18.285    0.7366
   18.300    0.7161
   18.315    0.7500
   18.330    0.7187
   18.345    0.7660
   18.360    0.7954
   18.375    0.7375
   18.390    0.7491
   18.405    0.7598
   18.420    0.7339
   18.435    0.7508
   18.450    0.7651
   18.465    0.7508
   18.480    0.7535
   18.495    0.7598
   18.510    0.7624
   18.525    0.7348
   18.540    0.7286
   18.555    0.7598
   18.570    0.7785
   18.585    0.7286
   18.600    0.7205
   18.615    0.7375
   18.630    0.7517
   18.645    0.7794
   18.660    0.7544
   18.675    0.7196
   18.690    0.7535
   18.705    0.7544
   18.720    0.7776
   18.735    0.7562
   18.750    0.7847
   18.765    0.7776
   18.780    0.7821
   18.795    0.8311
   18.810    0.8329
   18.825    0.7919
   18.840    0.7740
   18.855    0.7687
   18.870    0.7981
   18.885    0.7562
   18.900    0.7758
   18.915    0.7526
   18.930    0.7669
   18.945    0.7865
   18.960    0.8017
   18.975    0.7705
   18.990    0.7152
   19.005    0.7277
   19.020    0.7366
   19.035    0.7829
   19.050    0.7517
   19.065    0.7508
   19.080    0.7642
   19.095    0.7624
   19.110    0.7535
   19.125    0.7500
   19.140    0.7303
   19.155    0.7535
   19.170    0.7428
   19.185    0.7678
   19.200    0.7366
   19.215    0.7865
   19.230    0.7812
   19.245    0.7740
   19.260    0.7348
   19.275    0.8026
   19.290    0.7580
   19.305    0.7624
   19.320    0.7874
   19.335    0.7865
   19.350    0.7705
   19.365    0.8070
   19.380    0.8097
   19.395    0.8106
   19.410    0.7589
   19.425    0.7179
   19.440    0.7223
   19.455    0.7758
   19.470    0.7963
   19.485    0.7954
   19.500    0.7357
   19.515    0.7375
   19.530    0.7482
   19.545    0.7687
   19.560    0.7401
   19.575    0.7187
   19.590    0.7294
   19.605    0.7722
   19.620    0.7705
   19.635    0.7883
   19.650    0.7196
   19.665    0.7286
   19.680    0.7419
   19.695    0.7393
   19.710    0.7500
   19.725    0.7080
   19.740    0.6947
   19.755    0.7731
   19.770    0.7856
   19.785    0.7874
   19.800    0.7776
   19.815    0.7330
   19.830    0.8008
   19.845    0.7928
   19.860    0.8088
   19.875    0.7990
   19.890    0.8347
   19.905    0.8917
   19.920    0.8498
   19.935    0.7722
   19.950    0.7722
   19.965    0.7294
   19.980    0.7268
   19.995    0.7517
   20.010    0.7072
   20.025    0.6929
   20.040    0.7384
   20.055    0.7401
   20.070    0.7428
   20.085    0.7393
   20.100    0.7589
   20.115    0.7241
   20.130    0.7580
   20.145    0.7473
   20.160    0.6947
   20.175    0.7794
   20.190    0.7455
   20.205    0.7446
   20.220    0.6831
   20.235    0.7437
   20.250    0.7437
   20.265    0.7214
   20.280    0.7179
   20.295    0.7250
   20.310    0.7294
   20.325    0.7544
   20.340    0.7776
   20.355    0.7821
   20.370    0.7366
   20.385    0.8088
   20.400    0.7500
   20.415    0.8213
   20.430    0.7981
   20.445    0.7607
   20.460    0.7535
   20.475    0.7080
   20.490    0.7428
   20.505    0.7232
   20.520    0.7419
   20.535    0.7437
   20.550    0.7348
   20.565    0.6956
   20.580    0.7473
   20.595    0.7669
   20.610    0.7384
   20.625    0.7223
   20.640    0.7348
   20.655    0.7187
   20.670    0.7562
   20.685    0.7375
   20.700    0.7428
   20.715    0.7187
   20.730    0.7089
   20.745    0.7517
   20.760    0.6902
   20.775    0.7152
   20.790    0.6866
   20.805    0.6982
   20.820    0.7116
   20.835    0.7241
   20.850    0.7161
   20.865    0.7348
   20.880    0.7553
   20.895    0.7580
   20.910    0.7250
   20.925    0.7633
   20.940    0.7607
   20.955    0.7366
   20.970    0.7517
   20.985    0.7473
   21.000    0.7705
   21.015    0.7232
   21.030    0.7080
   21.045    0.7259
   21.060    0.7473
   21.075    0.7000
   21.090    0.7116
   21.105    0.6965
   21.120    0.7072
   21.135    0.7562
   21.150    0.7428
   21.165    0.7205
   21.180    0.7232
   21.195    0.6875
   21.210    0.7089
   21.225    0.7651
   21.240    0.7553
   21.255    0.7624
   21.270    0.7776
   21.285    0.7687
   21.300    0.7303
   21.315    0.7437
   21.330    0.7250
   21.345    0.7500
   21.360    0.7393
   21.375    0.7000
   21.390    0.7491
   21.405    0.7286
   21.420    0.7571
   21.435    0.7910
   21.450    0.7482
   21.465    0.7553
   21.480    0.7348
   21.495    0.7357
   21.510    0.7152
   21.525    0.7401
   21.540    0.7357
   21.555    0.7054
   21.570    0.7517
   21.585    0.7277
   21.600    0.7000
   21.615    0.7250
   21.630    0.6929
   21.645    0.7063
   21.660    0.7187
   21.675    0.7196
   21.690    0.7205
   21.705    0.6947
   21.720    0.7214
   21.735    0.7268
   21.750    0.7731
   21.765    0.7366
   21.780    0.7393
   21.795    0.7179
   21.810    0.7286
   21.825    0.7294
   21.840    0.7393
   21.855    0.7277
   21.870    0.7321
   21.885    0.7214
   21.900    0.7161
   21.915    0.6893
   21.930    0.7009
   21.945    0.7143
   21.960    0.7036
   21.975    0.7277
   21.990    0.7580
   22.005    0.7241
   22.020    0.7170
   22.035    0.7607
   22.050    0.7464
   22.065    0.7054
   22.080    0.7446
   22.095    0.7624
   22.110    0.8596
   22.125    0.9800
   22.140    0.9800
   22.155    0.8962
   22.170    0.7749
   22.185    0.7116
   22.200    0.7482
   22.215    0.7134
   22.230    0.7152
   22.245    0.7063
   22.260    0.6866
   22.275    0.7339
   22.290    0.6965
   22.305    0.6920
   22.320    0.7000
   22.335    0.7312
   22.350    0.7303
   22.365    0.7036
   22.380    0.6956
   22.395    0.7375
   22.410    0.7116
   22.425    0.7268
   22.440    0.7651
   22.455    0.7107
   22.470    0.7054
   22.485    0.7143
   22.500    0.6849
   22.515    0.6849
   22.530    0.6947
   22.545    0.7072
   22.560    0.7446
   22.575    0.7223
   22.590    0.7187
   22.605    0.7143
   22.620    0.7036
   22.635    0.7419
   22.650    0.7116
   22.665    0.6715
   22.680    0.7125
   22.695    0.7161
   22.710    0.7179
   22.725    0.7294
   22.740    0.7089
   22.755    0.7116
   22.770    0.6991
   22.785    0.7036
   22.800    0.7134
   22.815    0.6956
   22.830    0.6973
   22.845    0.7446
   22.860    0.7696
   22.875    0.7508
   22.890    0.7286
   22.905    0.6982
   22.920    0.6724
   22.935    0.6893
   22.950    0.6929
   22.965    0.6733
   22.980    0.6679
   22.995    0.6920
   23.010    0.6724
   23.025    0.7000
   23.040    0.7098
   23.055    0.7054
   23.070    0.7125
   23.085    0.7018
   23.100    0.6590
   23.115    0.6965
   23.130    0.6563
   23.145    0.6920
   23.160    0.7054
   23.175    0.7241
   23.190    0.6813
   23.205    0.6510
   23.220    0.7214
   23.235    0.7375
   23.250    0.6831
   23.265    0.6501
   23.280    0.6893
   23.295    0.6759
   23.310    0.6866
   23.325    0.6938
   23.340    0.6661
   23.355    0.7018
   23.370    0.6840
   23.385    0.6804
   23.400    0.6911
   23.415    0.7063
   23.430    0.6706
   23.445    0.6875
   23.460    0.6991
   23.475    0.7143
   23.490    0.6849
   23.505    0.6278
   23.520    0.6679
   23.535    0.7018
   23.550    0.6804
   23.565    0.6768
   23.580    0.7018
   23.595    0.6456
   23.610    0.6866
   23.625    0.6920
   23.640    0.6804
   23.655    0.6626
   23.670    0.6938
   23.685    0.6795
   23.700    0.6572
   23.715    0.6938
   23.730    0.6973
   23.745    0.6688
   23.760    0.7214
   23.775    0.7669
   23.790    0.7910
   23.805    0.7277
   23.820    0.7072
   23.835    0.6911
   23.850    0.6554
   23.865    0.6706
   23.880    0.7161
   23.895    0.6804
   23.910    0.6617
   23.925    0.6474
   23.940    0.6367
   23.955    0.6777
   23.970    0.6635
   23.985    0.6661
   24.000    0.6135
   24.015    0.6483
   24.030    0.6296
   24.045    0.6536
   24.060    0.6697
   24.075    0.6242
   24.090    0.6688
   24.105    0.6233
   24.120    0.6786
   24.135    0.6795
   24.150    0.6519
   24.165    0.6599
   24.180    0.6314
   24.195    0.6590
   24.210    0.6688
   24.225    0.6670
   24.240    0.6572
   24.255    0.6831
   24.270    0.6706
   24.285    0.6626
   24.300    0.6412
   24.315    0.6831
   24.330    0.6617
   24.345    0.6536
   24.360    0.6715
   24.375    0.6474
   24.390    0.6501
   24.405    0.6545
   24.420    0.6554
   24.435    0.6643
   24.450    0.6403
   24.465    0.6421
   24.480    0.6456
   24.495    0.6349
   24.510    0.6599
   24.525    0.6599
   24.540    0.6733
   24.555    0.6322
   24.570    0.6643
   24.585    0.6724
   24.600    0.6786
   24.615    0.6742
   24.630    0.6724
   24.645    0.6643
   24.660    0.6750
   24.675    0.6652
   24.690    0.6322
   24.705    0.6563
   24.720    0.6198
   24.735    0.6483
   24.750    0.6545
   24.765    0.6394
   24.780    0.6474
   24.795    0.6768
   24.810    0.6536
   24.825    0.6572
   24.840    0.6608
   24.855    0.6536
   24.870    0.6733
   24.885    0.6804
   24.900    0.6376
   24.915    0.6456
   24.930    0.6590
   24.945    0.6617
   24.960    0.6340
   24.975    0.6474
   24.990    0.6287
   25.005    0.6545
   25.020    0.6724
   25.035    0.6233
   25.050    0.6385
   25.065    0.6536
   25.080    0.6715
   25.095    0.6528
   25.110    0.6474
   25.125    0.6635
   25.140    0.6483
   25.155    0.6465
   25.170    0.6608
   25.185    0.6652
   25.200    0.6403
   25.215    0.6305
   25.230    0.6572
   25.245    0.6394
   25.260    0.6831
   25.275    0.6322
   25.290    0.6652
   25.305    0.6679
   25.320    0.6626
   25.335    0.6519
   25.350    0.6956
   25.365    0.6554
   25.380    0.6224
   25.395    0.6224
   25.410    0.6965
   25.425    0.6385
   25.440    0.6786
   25.455    0.6643
   25.470    0.6929
   25.485    0.6688
   25.500    0.6697
   25.515    0.7116
   25.530    0.6991
   25.545    0.6688
   25.560    0.6724
   25.575    0.6421
   25.590    0.6429
   25.605    0.6331
   25.620    0.6019
   25.635    0.6126
   25.650    0.6474
   25.665    0.6492
   25.680    0.6394
   25.695    0.6421
   25.710    0.6376
   25.725    0.6635
   25.740    0.6287
   25.755    0.6305
   25.770    0.6305
   25.785    0.6260
   25.800    0.6055
   25.815    0.6501
   25.830    0.6367
   25.845    0.6483
   25.860    0.6376
   25.875    0.6260
   25.890    0.6349
   25.905    0.6635
   25.920    0.6697
   25.935    0.6750
   25.950    0.6554
   25.965    0.6260
   25.980    0.6037
   25.995    0.6349
   26.010    0.6438
   26.025    0.6198
   26.040    0.6421
   26.055    0.6572
   26.070    0.6242
   26.085    0.5966
   26.100    0.5930
   26.115    0.5832
   26.130    0.5770
   26.145    0.6117
   26.160    0.5859
   26.175    0.5770
   26.190    0.5743
   26.205    0.6260
   26.220    0.6242
   26.235    0.5912
   26.250    0.6438
   26.265    0.6456
   26.280    0.6635
   26.295    0.6706
   26.310    0.6724
   26.325    0.7696
   26.340    0.8293
   26.355    0.7874
   26.370    0.7241
   26.385    0.6590
   26.400    0.6536
   26.415    0.6456
   26.430    0.5984
   26.445    0.5993
   26.460    0.6010
   26.475    0.6322
   26.490    0.6278
   26.505    0.5966
   26.520    0.6064
   26.535    0.6082
   26.550    0.6064
   26.565    0.5841
   26.580    0.6287
   26.595    0.5886
   26.610    0.5859
   26.625    0.6064
   26.640    0.6242
   26.655    0.5930
   26.670    0.6296
   26.685    0.6438
   26.700    0.6661
   26.715    0.6875
   26.730    0.7187
   26.745    0.7589
   26.760    0.7321
   26.775    0.6893
   26.790    0.6501
   26.805    0.6278
   26.820    0.6314
   26.835    0.5975
   26.850    0.5787
   26.865    0.5966
   26.880    0.6010
   26.895    0.5886
   26.910    0.6019
   26.925    0.6385
   26.940    0.6100
   26.955    0.6367
   26.970    0.6786
   26.985    0.6768
   27.000    0.6536
   27.015    0.6456
   27.030    0.6126
   27.045    0.6055
   27.060    0.6064
   27.075    0.5850
   27.090    0.5841
   27.105    0.6180
   27.120    0.6331
   27.135    0.6198
   27.150    0.6626
   27.165    0.6064
   27.180    0.5984
   27.195    0.5975
   27.210    0.5823
   27.225    0.5832
   27.240    0.5930
   27.255    0.5948
   27.270    0.5778
   27.285    0.5689
   27.300    0.5805
   27.315    0.5850
   27.330    0.5805
   27.345    0.5582
   27.360    0.5716
   27.375    0.5814
   27.390    0.5823
   27.405    0.5680
   27.420    0.5725
   27.435    0.5948
   27.450    0.5671
   27.465    0.6082
   27.480    0.6046
   27.495    0.6135
   27.510    0.6135
   27.525    0.6135
   27.540    0.5984
   27.555    0.5671
   27.570    0.5671
   27.585    0.5707
   27.600    0.5752
   27.615    0.5778
   27.630    0.5671
   27.645    0.5770
   27.660    0.5752
   27.675    0.5939
   27.690    0.5761
   27.705    0.6028
   27.720    0.6144
   27.735    0.5841
   27.750    0.5413
   27.765    0.5743
   27.780    0.5823
   27.795    0.5841
   27.810    0.5868
   27.825    0.5734
   27.840    0.5707
   27.855    0.5761
   27.870    0.5796
   27.885    0.6189
   27.900    0.5850
   27.915    0.5903
   27.930    0.6171
   27.945    0.6260
   27.960    0.5957
   27.975    0.5618
   27.990    0.5689
   28.005    0.5449
   28.020    0.5422
   28.035    0.5600
   28.050    0.6001
   28.065    0.5841
   28.080    0.5770
   28.095    0.5743
   28.110    0.5475
   28.125    0.5761
   28.140    0.5654
   28.155    0.5939
   28.170    0.5449
   28.185    0.5440
   28.200    0.5645
   28.215    0.5752
   28.230    0.5671
   28.245    0.5475
   28.260    0.5645
   28.275    0.5547
   28.290    0.5538
   28.305    0.5556
   28.320    0.6073
   28.335    0.5823
   28.350    0.5297
   28.365    0.5466
   28.380    0.5556
   28.395    0.5413
   28.410    0.5547
   28.425    0.5787
   28.440    0.5770
   28.455    0.5609
   28.470    0.5493
   28.485    0.5342
   28.500    0.5395
   28.515    0.5386
   28.530    0.5618
   28.545    0.5350
   28.560    0.5386
   28.575    0.5386
   28.590    0.5252
   28.605    0.5243
   28.620    0.5493
   28.635    0.5636
   28.650    0.5484
   28.665    0.5475
   28.680    0.5547
   28.695    0.5716
   28.710    0.5484
   28.725    0.5333
   28.740    0.5431
   28.755    0.5359
   28.770    0.5582
   28.785    0.5796
   28.800    0.5297
   28.815    0.4914
   28.830    0.5342
   28.845    0.5493
   28.860    0.5297
   28.875    0.5136
   28.890    0.5511
   28.905    0.5377
   28.920    0.5627
   28.935    0.5725
   28.950    0.5386
   28.965    0.5502
   28.980    0.5475
   28.995    0.5377
   29.010    0.5333
   29.025    0.5475
   29.040    0.5618
   29.055    0.5663
   29.070    0.5770
   29.085    0.5431
   29.100    0.5529
   29.115    0.5636
   29.130    0.4949
   29.145    0.5538
   29.160    0.5172
   29.175    0.5261
   29.190    0.5333
   29.205    0.5288
   29.220    0.5261
   29.235    0.5422
   29.250    0.5377
   29.265    0.5591
   29.280    0.5609
   29.295    0.5440
   29.310    0.5270
   29.325    0.5163
   29.340    0.5226
   29.355    0.5136
   29.370    0.5395
   29.385    0.5449
   29.400    0.5564
   29.415    0.5342
   29.430    0.5359
   29.445    0.5573
   29.460    0.5680
   29.475    0.5689
   29.490    0.5395
   29.505    0.5556
   29.520    0.5395
   29.535    0.5056
   29.550    0.5029
   29.565    0.5386
   29.580    0.5359
   29.595    0.5386
   29.610    0.5145
   29.625    0.5056
   29.640    0.5128
   29.655    0.5306
   29.670    0.5573
   29.685    0.5145
   29.700    0.5217
   29.715    0.5181
   29.730    0.5235
   29.745    0.5761
   29.760    0.6536
   29.775    0.6608
   29.790    0.6251
   29.805    0.5832
   29.820    0.5324
   29.835    0.5457
   29.850    0.5422
   29.865    0.5342
   29.880    0.5074
   29.895    0.5047
   29.910    0.5029
   29.925    0.5145
   29.940    0.4985
   29.955    0.5199
   29.970    0.5235
   29.985    0.5101
   30.000    0.5359
   30.015    0.5199
   30.030    0.5092
   30.045    0.5315
   30.060    0.5199
   30.075    0.5556
   30.090    0.5422
   30.105    0.5413
   30.120    0.5698
   30.135    0.5948
   30.150    0.6528
   30.165    0.6314
   30.180    0.6465
   30.195    0.5734
   30.210    0.5422
   30.225    0.5413
   30.240    0.5235
   30.255    0.5306
   30.270    0.5235
   30.285    0.5386
   30.300    0.4664
   30.315    0.4806
   30.330    0.5029
   30.345    0.5217
   30.360    0.5163
   30.375    0.5047
   30.390    0.5154
   30.405    0.5324
   30.420    0.5163
   30.435    0.5297
   30.450    0.5377
   30.465    0.5181
   30.480    0.4967
   30.495    0.4914
   30.510    0.5012
   30.525    0.5404
   30.540    0.5021
   30.555    0.5154
   30.570    0.5252
   30.585    0.5163
   30.600    0.5154
   30.615    0.4699
   30.630    0.5065
   30.645    0.4994
   30.660    0.5208
   30.675    0.5413
   30.690    0.5136
   30.705    0.4994
   30.720    0.5074
   30.735    0.5128
   30.750    0.5092
   30.765    0.4762
   30.780    0.5145
   30.795    0.4967
   30.810    0.5449
   30.825    0.5243
   30.840    0.5484
   30.855    0.5047
   30.870    0.5199
   30.885    0.5707
   30.900    0.5654
   30.915    0.4976
   30.930    0.4905
   30.945    0.5012
   30.960    0.5021
   30.975    0.5145
   30.990    0.5199
   31.005    0.4699
   31.020    0.4673
   31.035    0.4744
   31.050    0.5163
   31.065    0.4887
   31.080    0.5172
   31.095    0.4922
   31.110    0.5038
   31.125    0.4896
   31.140    0.4477
   31.155    0.4771
   31.170    0.4691
   31.185    0.4539
   31.200    0.4940
   31.215    0.4869
   31.230    0.4691
   31.245    0.4833
   31.260    0.5012
   31.275    0.4459
   31.290    0.4726
   31.305    0.4896
   31.320    0.4717
   31.335    0.4967
   31.350    0.4914
   31.365    0.4691
   31.380    0.4833
   31.395    0.4557
   31.410    0.4931
   31.425    0.4717
   31.440    0.4619
   31.455    0.4566
   31.470    0.4530
   31.485    0.4682
   31.500    0.4949
   31.515    0.4815
   31.530    0.4878
   31.545    0.5136
   31.560    0.5413
   31.575    0.5698
   31.590    0.5199
   31.605    0.4976
   31.620    0.4512
   31.635    0.4717
   31.650    0.5128
   31.665    0.4833
   31.680    0.4682
   31.695    0.4753
   31.710    0.4592
   31.725    0.4548
   31.740    0.4396
   31.755    0.4566
   31.770    0.4815
   31.785    0.4735
   31.800    0.4940
   31.815    0.4717
   31.830    0.4682
   31.845    0.4628
   31.860    0.4798
   31.875    0.4833
   31.890    0.4405
   31.905    0.4780
   31.920    0.4976
   31.935    0.4771
   31.950    0.4851
   31.965    0.4637
   31.980    0.4459
   31.995    0.4646
   32.010    0.4557
   32.025    0.4334
   32.040    0.4468
   32.055    0.4459
   32.070    0.4557
   32.085    0.4414
   32.100    0.4325
   32.115    0.4673
   32.130    0.4717
   32.145    0.4566
   32.160    0.4450
   32.175    0.4655
   32.190    0.4708
   32.205    0.4851
   32.220    0.5038
   32.235    0.5012
   32.250    0.4922
   32.265    0.4851
   32.280    0.4896
   32.295    0.4673
   32.310    0.4361
   32.325    0.4575
   32.340    0.4307
   32.355    0.4691
   32.370    0.4521
   32.385    0.4494
   32.400    0.4584
   32.415    0.4628
   32.430    0.4646
   32.445    0.4432
   32.460    0.4726
   32.475    0.4753
   32.490    0.4325
   32.505    0.4387
   32.520    0.4218
   32.535    0.4575
   32.550    0.4637
   32.565    0.4361
   32.580    0.4664
   32.595    0.4815
   32.610    0.4869
   32.625    0.4789
   32.640    0.4985
   32.655    0.5110
   32.670    0.5877
   32.685    0.6733
   32.700    0.6019
   32.715    0.5110
   32.730    0.4477
   32.745    0.4334
   32.760    0.4370
   32.775    0.4200
   32.790    0.4414
   32.805    0.4468
   32.820    0.4485
   32.835    0.4378
   32.850    0.4138
   32.865    0.4378
   32.880    0.4753
   32.895    0.4655
   32.910    0.5012
   32.925    0.5226
   32.940    0.5136
   32.955    0.4726
   32.970    0.4396
   32.985    0.4378
   33.000    0.4325
   33.015    0.4343
   33.030    0.4387
   33.045    0.4468
   33.060    0.4289
   33.075    0.4245
   33.090    0.4432
   33.105    0.4664
   33.120    0.4370
   33.135    0.4432
   33.150    0.4227
   33.165    0.4280
   33.180    0.4699
   33.195    0.4396
   33.210    0.4414
   33.225    0.4245
   33.240    0.4592
   33.255    0.4539
   33.270    0.4762
   33.285    0.4512
   33.300    0.4316
   33.315    0.4254
   33.330    0.4423
   33.345    0.4628
   33.360    0.4325
   33.375    0.4182
   33.390    0.4450
   33.405    0.4646
   33.420    0.4325
   33.435    0.4521
   33.450    0.4378
   33.465    0.4396
   33.480    0.4173
   33.495    0.3710
   33.510    0.4387
   33.525    0.4423
   33.540    0.4361
   33.555    0.4494
   33.570    0.4592
   33.585    0.4521
   33.600    0.4396
   33.615    0.4682
   33.630    0.4691
   33.645    0.4289
   33.660    0.4271
   33.675    0.4726
   33.690    0.4485
   33.705    0.4628
   33.720    0.4423
   33.735    0.4334
   33.750    0.4405
   33.765    0.4637
   33.780    0.5119
   33.795    0.5547
   33.810    0.6278
   33.825    0.6260
   33.840    0.5359
   33.855    0.4735
   33.870    0.4592
   33.885    0.4477
   33.900    0.4628
   33.915    0.4485
   33.930    0.4441
   33.945    0.4387
   33.960    0.4236
   33.975    0.4075
   33.990    0.4191
   34.005    0.4057
   34.020    0.4209
   34.035    0.4298
   34.050    0.4459
   34.065    0.4370
   34.080    0.4156
   34.095    0.4298
   34.110    0.4084
   34.125    0.4209
   34.140    0.4066
   34.155    0.4343
   34.170    0.4370
   34.185    0.4218
   34.200    0.4289
   34.215    0.4450
   34.230    0.4459
   34.245    0.4432
   34.260    0.4316
   34.275    0.4093
   34.290    0.4263
   34.305    0.4334
   34.320    0.4396
   34.335    0.4370
   34.350    0.3986
   34.365    0.4147
   34.380    0.3888
   34.395    0.3942
   34.410    0.3781
   34.425    0.3924
   34.440    0.3906
   34.455    0.3915
   34.470    0.3665
   34.485    0.3852
   34.500    0.4111
   34.515    0.4022
   34.530    0.3790
   34.545    0.3505
   34.560    0.3647
   34.575    0.3585
   34.590    0.3496
   34.605    0.3683
   34.620    0.3879
   34.635    0.3888
   34.650    0.3808
   34.665    0.3719
   34.680    0.3834
   34.695    0.3692
   34.710    0.3968
   34.725    0.3933
   34.740    0.3727
   34.755    0.3834
   34.770    0.3727
   34.785    0.3826
   34.800    0.3540
   34.815    0.3585
   34.830    0.3995
   34.845    0.3772
   34.860    0.3781
   34.875    0.4066
   34.890    0.4040
   34.905    0.3799
   34.920    0.3647
   34.935    0.3719
   34.950    0.3727
   34.965    0.3496
   34.980    0.3469
   34.995    0.3424
   35.010    0.3799
   35.025    0.3683
   35.040    0.3683
   35.055    0.3612
   35.070    0.3513
   35.085    0.3594
   35.100    0.3442
   35.115    0.3335
   35.130    0.3344
   35.145    0.3585
   35.160    0.3817
   35.175    0.3540
   35.190    0.3879
   35.205    0.3861
   35.220    0.3906
   35.235    0.3888
   35.250    0.3727
   35.265    0.3612
   35.280    0.3647
   35.295    0.3389
   35.310    0.3683
   35.325    0.3460
   35.340    0.3487
   35.355    0.3843
   35.370    0.3665
   35.385    0.3326
   35.400    0.3487
   35.415    0.3647
   35.430    0.3772
   35.445    0.3888
   35.460    0.3442
   35.475    0.3460
   35.490    0.3665
   35.505    0.3558
   35.520    0.3549
   35.535    0.3558
   35.550    0.3674
   35.565    0.3522
   35.580    0.3540
   35.595    0.3442
   35.610    0.3406
   35.625    0.3701
   35.640    0.3201
   35.655    0.3585
   35.670    0.3620
   35.685    0.3540
   35.700    0.3460
   35.715    0.3353
   35.730    0.3710
   35.745    0.3736
   35.760    0.3683
   35.775    0.3460
   35.790    0.3460
   35.805    0.3736
   35.820    0.3656
   35.835    0.3469
   35.850    0.3353
   35.865    0.3674
   35.880    0.3603
   35.895    0.3531
   35.910    0.3594
   35.925    0.3380
   35.940    0.3469
   35.955    0.3531
   35.970    0.3558
   35.985    0.3317
   36.000    0.3389
   36.015    0.3228
   36.030    0.3362
   36.045    0.3326
   36.060    0.3620
   36.075    0.3112
   36.090    0.3380
   36.105    0.3638
   36.120    0.3317
   36.135    0.3487
   36.150    0.3219
   36.165    0.3326
   36.180    0.3335
   36.195    0.3175
   36.210    0.3184
   36.225    0.3362
   36.240    0.3398
   36.255    0.3014
   36.270    0.3157
   36.285    0.3299
   36.300    0.3424
   36.315    0.3291
   36.330    0.3085
   36.345    0.3192
   36.360    0.3184
   36.375    0.3389
   36.390    0.3121
   36.405    0.3326
   36.420    0.3282
   36.435    0.3291
   36.450    0.3237
   36.465    0.3326
   36.480    0.3228
   36.495    0.3362
   36.510    0.3273
   36.525    0.3139
   36.540    0.3175
   36.555    0.3371
   36.570    0.3353
   36.585    0.3326
   36.600    0.3487
   36.615    0.3513
   36.630    0.3166
   36.645    0.3166
   36.660    0.3264
   36.675    0.3166
   36.690    0.3237
   36.705    0.3487
   36.720    0.3540
   36.735    0.3175
   36.750    0.3094
   36.765    0.3077
   36.780    0.3201
   36.795    0.3157
   36.810    0.3389
   36.825    0.3130
   36.840    0.3175
   36.855    0.3264
   36.870    0.3103
   36.885    0.3326
   36.900    0.3513
   36.915    0.3228
   36.930    0.3112
   36.945    0.3148
   36.960    0.3353
   36.975    0.3184
   36.990    0.3077
   37.005    0.3139
   37.020    0.3424
   37.035    0.3335
   37.050    0.3282
   37.065    0.3380
   37.080    0.3130
   37.095    0.3210
   37.110    0.3576
   37.125    0.3879
   37.140    0.4111
   37.155    0.4423
   37.170    0.4049
   37.185    0.3496
   37.200    0.3487
   37.215    0.3576
   37.230    0.3219
   37.245    0.3050
   37.260    0.3059
   37.275    0.3005
   37.290    0.3246
   37.305    0.3344
   37.320    0.3299
   37.335    0.3175
   37.350    0.3032
   37.365    0.3059
   37.380    0.3023
   37.395    0.2916
   37.410    0.3005
   37.425    0.3442
   37.440    0.3540
   37.455    0.4280
   37.470    0.4949
   37.485    0.6661
   37.500    0.7865
   37.515    0.6786
   37.530    0.5145
   37.545    0.3897
   37.560    0.3513
   37.575    0.3371
   37.590    0.3620
   37.605    0.3362
   37.620    0.3166
   37.635    0.3077
   37.650    0.3103
   37.665    0.3085
   37.680    0.2898
   37.695    0.2755
   37.710    0.2943
   37.725    0.3192
   37.740    0.2996
   37.755    0.2827
   37.770    0.2809
   37.785    0.3184
   37.800    0.3398
   37.815    0.2907
   37.830    0.2898
   37.845    0.3032
   37.860    0.2996
   37.875    0.3050
   37.890    0.2952
   37.905    0.2854
   37.920    0.2738
   37.935    0.2943
   37.950    0.2880
   37.965    0.2729
   37.980    0.2880
   37.995    0.2987
   38.010    0.3023
   38.025    0.3005
   38.040    0.2755
   38.055    0.2827
   38.070    0.2809
   38.085    0.3041
   38.100    0.3068
   38.115    0.2550
   38.130    0.2889
   38.145    0.3139
   38.160    0.2755
   38.175    0.2755
   38.190    0.2791
   38.205    0.2764
   38.220    0.2862
   38.235    0.2934
   38.250    0.2800
   38.265    0.2925
   38.280    0.2747
   38.295    0.2898
   38.310    0.2854
   38.325    0.2916
   38.340    0.2961
   38.355    0.2738
   38.370    0.2898
   38.385    0.2970
   38.400    0.2880
   38.415    0.2755
   38.430    0.2738
   38.445    0.3059
   38.460    0.2925
   38.475    0.2934
   38.490    0.2925
   38.505    0.3219
   38.520    0.3005
   38.535    0.2729
   38.550    0.2871
   38.565    0.2916
   38.580    0.2764
   38.595    0.2898
   38.610    0.2720
   38.625    0.2818
   38.640    0.2889
   38.655    0.2898
   38.670    0.2925
   38.685    0.2773
   38.700    0.2666
   38.715    0.2862
   38.730    0.2782
   38.745    0.2559
   38.760    0.2880
   38.775    0.2827
   38.790    0.2729
   38.805    0.2648
   38.820    0.2916
   38.835    0.2836
   38.850    0.2836
   38.865    0.2952
   38.880    0.2720
   38.895    0.2827
   38.910    0.2773
   38.925    0.3059
   38.940    0.2755
   38.955    0.2488
   38.970    0.2827
   38.985    0.2640
   39.000    0.2693
   39.015    0.2862
   39.030    0.2595
   39.045    0.2702
   39.060    0.2559
   39.075    0.2755
   39.090    0.2764
   39.105    0.2836
   39.120    0.2800
   39.135    0.2702
   39.150    0.2524
   39.165    0.3014
   39.180    0.2791
   39.195    0.2720
   39.210    0.2925
   39.225    0.3050
   39.240    0.2818
   39.255    0.2809
   39.270    0.2506
   39.285    0.2755
   39.300    0.2586
   39.315    0.2648
   39.330    0.2613
   39.345    0.2559
   39.360    0.2657
   39.375    0.2524
   39.390    0.2479
   39.405    0.2711
   39.420    0.2747
   39.435    0.2666
   39.450    0.2791
   39.465    0.2729
   39.480    0.3032
   39.495    0.3201
   39.510    0.3415
   39.525    0.3870
   39.540    0.3942
   39.555    0.3291
   39.570    0.3594
   39.585    0.3166
   39.600    0.2818
   39.615    0.2952
   39.630    0.2880
   39.645    0.2800
   39.660    0.2836
   39.675    0.3068
   39.690    0.3068
   39.705    0.3157
   39.720    0.3273
   39.735    0.2970
   39.750    0.2782
   39.765    0.2738
   39.780    0.2809
   39.795    0.2782
   39.810    0.2657
   39.825    0.2854
   39.840    0.2434
   39.855    0.2470
   39.870    0.2666
   39.885    0.2755
   39.900    0.2622
   39.915    0.2693
   39.930    0.2622
   39.945    0.2657
   39.960    0.2568
   39.975    0.2488
   39.990    0.2657
