    1.500   15.5345
    1.515   15.6749
    1.530   15.3941
    1.545   14.6744
    1.560   14.1302
    1.575   13.9372
    1.590   14.8148
    1.605   14.2707
    1.620   14.4286
    1.635   13.9372
    1.650   13.5861
    1.665   13.4983
    1.680   14.0600
    1.695   13.7967
    1.710   13.1473
    1.725   13.5861
    1.740   12.8664
    1.755   12.9366
    1.770   13.4457
    1.785   13.4457
    1.800   12.3047
    1.815   12.9542
    1.830   12.7260
    1.845   12.1994
    1.860   12.3398
    1.875   11.7606
    1.890   12.2170
    1.905   12.6031
    1.920   11.7606
    1.935   11.4622
    1.950   11.9186
    1.965   11.7957
    1.980   12.0941
    1.995   11.0936
    2.010   10.9707
    2.025   11.0585
    2.040   10.8829
    2.055   11.1638
    2.070   10.9531
    2.085   11.1462
    2.100   10.8478
    2.115   11.1813
    2.130   11.0936
    2.145   10.9180
    2.160   10.5670
    2.175   10.7776
    2.190   10.5319
    2.205   10.2335
    2.220   10.2159
    2.235   10.0755
    2.250   10.1281
    2.265    9.9526
    2.280   10.6196
    2.295    9.8999
    2.310   10.4616
    2.325   10.0755
    2.340    9.8473
    2.355   10.1281
    2.370   10.4968
    2.385    9.6893
    2.400    9.8122
    2.415    9.5313
    2.430    9.8648
    2.445    9.9877
    2.460   10.0930
    2.475    9.5313
    2.490    9.3909
    2.505    9.5840
    2.520    9.3207
    2.535    9.5313
    2.550    8.5308
    2.565    9.1627
    2.580    9.2329
    2.595    9.6718
    2.610    9.2505
    2.625    8.5484
    2.640    8.7941
    2.655    9.0925
    2.670    9.2856
    2.685    9.3734
    2.700    9.7595
    2.715    9.3382
    2.730    9.2680
    2.745    9.6718
    2.760    9.6542
    2.775    9.8824
    2.790    9.6893
    2.805    9.3382
    2.820    9.5313
    2.835    9.2505
    2.850    9.1452
    2.865    9.2505
    2.880    9.3031
    2.895    9.7420
    2.910    9.7595
    2.925    9.4436
    2.940    9.5313
    2.955    9.7771
    2.970    9.6191
    2.985    8.9521
    3.000    9.5313
    3.015    9.4085
    3.030    9.6191
    3.045    9.5664
    3.060    9.6191
    3.075    9.8122
    3.090    9.6542
    3.105    9.5313
    3.120   10.1457
    3.135   10.0755
    3.150   10.0404
    3.165   10.1281
    3.180    9.7420
    3.195   10.5845
    3.210   10.8654
    3.225   11.2340
    3.240   11.5324
    3.255   10.8127
    3.270   11.7430
    3.285   11.7255
    3.300   11.9888
    3.315   12.4627
    3.330   12.2345
    3.345   13.0595
    3.360   12.8664
    3.375   13.0420
    3.390   14.2005
    3.405   14.1829
    3.420   14.9377
    3.435   14.7973
    3.450   15.0079
    3.465   14.8499
    3.480   14.5691
    3.495   14.5340
    3.510   13.9021
    3.525   13.2701
    3.540   12.3398
    3.555   12.1116
    3.570   12.7435
    3.585   12.1116
    3.600   11.9010
    3.615   12.3749
    3.630   12.7962
    3.645   12.1819
    3.660   12.4978
    3.675   12.3925
    3.690   12.4803
    3.705   13.1648
    3.720   13.9021
    3.735   14.7270
    3.750   14.4462
    3.765   14.8675
    3.780   15.3414
    3.795   17.0441
    3.810   18.9047
    3.825   19.8877
    3.840   22.4680
    3.855   22.8190
    3.870   21.7483
    3.885   19.4137
    3.900   16.5701
    3.915   13.7792
    3.930   11.9712
    3.945   11.6026
    3.960   11.0936
    3.975   10.5670
    3.990   10.2159
    4.005   10.0930
    4.020    9.8999
    4.035   10.1281
    4.050   10.0579
    4.065    9.9175
    4.080   10.1983
    4.095   10.7249
    4.110   10.1457
    4.125   10.8303
    4.140   10.9356
    4.155   10.7776
    4.170   11.2866
    4.185   11.1638
    4.200   10.8127
    4.215   10.4441
    4.230    9.7771
    4.245    9.9175
    4.260   10.4441
    4.275   10.3037
    4.290   10.3212
    4.305   10.0404
    4.320    9.7069
    4.335    9.9351
    4.350    9.8473
    4.365    9.6191
    4.380    9.9526
    4.395    9.8999
    4.410    9.5489
    4.425    9.0750
    4.440    8.8117
    4.455    9.1452
    4.470    8.9345
    4.485    9.0574
    4.500    8.9521
    4.515    8.9872
    4.530    8.8292
    4.545    9.0047
    4.560    9.1101
    4.575    9.9175
    4.590    9.1452
    4.605    9.0574
    4.620    9.0223
    4.635    8.7239
    4.650    8.5308
    4.665    8.6888
    4.680    8.3728
    4.695    8.9170
    4.710    8.7941
    4.725    8.5835
    4.740    8.5484
    4.755    8.5308
    4.770    8.6888
    4.785    8.9521
    4.800    9.2329
    4.815    8.8468
    4.830    8.8117
    4.845    9.5138
    4.860    9.3031
    4.875    9.1978
    4.890    9.3734
    4.905    9.0750
    4.920    8.7590
    4.935    9.3734
    4.950    8.6712
    4.965    8.9521
    4.980    8.9345
    4.995    8.9170
    5.010    9.6718
    5.025    9.9702
    5.040    9.3207
    5.055    9.4436
    5.070    9.2505
    5.085    9.5840
    5.100    9.6542
    5.115    9.7420
    5.130    9.6015
    5.145   10.2335
    5.160   10.0228
    5.175   10.2686
    5.190   10.3388
    5.205   10.1808
    5.220   10.2861
    5.235    9.6893
    5.250   10.1983
    5.265   10.6021
    5.280   10.3212
    5.295   10.2159
    5.310   10.7249
    5.325   10.9531
    5.340   10.6723
    5.355   11.0409
    5.370   11.3042
    5.385   12.2872
    5.400   11.6026
    5.415   11.6904
    5.430   11.5499
    5.445   12.3749
    5.460   12.9366
    5.475   12.8138
    5.490   12.9542
    5.505   12.9015
    5.520   12.6031
    5.535   12.0765
    5.550   11.9712
    5.565   11.4446
    5.580   10.8654
    5.595   10.7249
    5.610   11.3042
    5.625   11.6026
    5.640   10.8127
    5.655   10.6372
    5.670   10.4968
    5.685   10.2686
    5.700   10.7952
    5.715   10.9180
    5.730   10.2510
    5.745   10.5845
    5.760   10.9531
    5.775   10.7074
    5.790   10.4792
    5.805   10.3563
    5.820    9.8297
    5.835    9.4085
    5.850    9.2680
    5.865    9.7244
    5.880    9.8473
    5.895    9.7946
    5.910    9.5313
    5.925    9.0223
    5.940    9.2680
    5.955    8.8117
    5.970    8.9872
    5.985    9.5664
    6.000    9.5138
    6.015    8.9872
    6.030    9.1978
    6.045    8.8994
    6.060    8.8292
    6.075    8.1797
    6.090    8.4255
    6.105    8.8292
    6.120    7.7409
    6.135    8.6186
    6.150    8.4255
    6.165    8.2500
    6.180    8.3026
    6.195    8.9521
    6.210    8.6010
    6.225    8.0393
    6.240    8.7941
    6.255    7.9516
    6.270    8.6537
    6.285    9.0398
    6.300    8.7414
    6.315    7.8462
    6.330    8.2675
    6.345    8.1446
    6.360    8.2675
    6.375    8.3728
    6.390    7.5654
    6.405    8.4255
    6.420    7.9516
    6.435    7.6005
    6.450    7.6532
    6.465    7.3899
    6.480    7.9867
    6.495    8.1622
    6.510    7.4250
    6.525    7.4601
    6.540    8.2149
    6.555    7.5478
    6.570    7.7760
    6.585    8.0393
    6.600    7.4952
    6.615    8.5835
    6.630    8.7414
    6.645    8.2851
    6.660    7.5654
    6.675    7.5303
    6.690    8.2500
    6.705    8.1271
    6.720    7.9867
    6.735    8.2149
    6.750    8.0744
    6.765    8.1622
    6.780    8.0569
    6.795    7.8462
    6.810    8.3202
    6.825    8.2149
    6.840    8.0393
    6.855    7.6883
    6.870    7.7760
    6.885    7.8462
    6.900    8.0920
    6.915    7.9516
    6.930    7.3372
    6.945    7.9691
    6.960    7.8989
    6.975    8.1973
    6.990    7.5127
    7.005    6.9159
    7.020    7.7760
    7.035    7.7760
    7.050    7.2319
    7.065    6.9510
    7.080    7.1792
    7.095    7.7409
    7.110    7.1617
    7.125    7.2319
    7.140    7.2670
    7.155    7.0739
    7.170    7.0212
    7.185    7.6883
    7.200    6.8808
    7.215    6.6877
    7.230    7.7058
    7.245    6.7579
    7.260    6.6877
    7.275    7.1441
    7.290    6.7755
    7.305    6.7228
    7.320    6.9335
    7.335    6.6877
    7.350    7.1617
    7.365    6.9861
    7.380    6.4595
    7.395    6.8984
    7.410    7.2143
    7.425    6.9861
    7.440    6.5824
    7.455    6.4946
    7.470    6.5649
    7.485    6.5649
    7.500    6.2313
    7.515    6.8282
    7.530    6.9159
    7.545    6.5824
    7.560    6.6526
    7.575    7.0739
    7.590    6.9861
    7.605    6.7053
    7.620    6.3191
    7.635    6.5473
    7.650    6.4946
    7.665    6.4771
    7.680    6.3016
    7.695    6.4771
    7.710    6.4595
    7.725    7.0915
    7.740    6.8984
    7.755    7.1090
    7.770    6.4771
    7.785    6.6351
    7.800    6.6351
    7.815    6.8633
    7.830    6.7404
    7.845    6.6175
    7.860    6.3367
    7.875    6.0734
    7.890    6.3191
    7.905    6.6877
    7.920    6.4420
    7.935    6.5649
    7.950    6.3542
    7.965    6.6877
    7.980    6.9861
    7.995    6.2138
    8.010    6.7228
    8.025    6.3367
    8.040    6.2138
    8.055    6.4946
    8.070    6.4244
    8.085    6.1085
    8.100    5.7399
    8.115    5.9681
    8.130    6.5122
    8.145    6.1085
    8.160    6.4244
    8.175    6.4946
    8.190    5.7925
    8.205    6.2489
    8.220    6.1611
    8.235    6.3191
    8.250    6.1436
    8.265    6.0909
    8.280    6.3367
    8.295    6.1962
    8.310    5.8627
    8.325    5.8978
    8.340    5.9681
    8.355    6.1611
    8.370    5.9329
    8.385    6.2313
    8.400    5.9329
    8.415    5.7223
    8.430    6.2138
    8.445    6.2313
    8.460    6.1085
    8.475    6.1787
    8.490    5.8627
    8.505    6.1085
    8.520    6.3191
    8.535    6.6702
    8.550    5.7048
    8.565    5.9154
    8.580    6.3191
    8.595    6.2840
    8.610    6.2138
    8.625    5.9329
    8.640    5.8803
    8.655    6.0909
    8.670    6.0383
    8.685    5.9856
    8.700    5.7750
    8.715    5.8627
    8.730    6.3191
    8.745    6.0909
    8.760    5.5468
    8.775    5.9505
    8.790    6.2489
    8.805    5.7399
    8.820    5.4415
    8.835    5.5643
    8.850    5.8452
    8.865    5.8276
    8.880    5.6345
    8.895    5.4415
    8.910    5.7750
    8.925    5.8803
    8.940    5.9505
    8.955    5.8627
    8.970    6.1436
    8.985    5.6345
    9.000    5.5994
    9.015    5.3010
    9.030    5.6697
    9.045    6.0734
    9.060    5.8276
    9.075    5.2835
    9.090    5.4941
    9.105    5.9505
    9.120    5.4415
    9.135    6.0558
    9.150    6.0734
    9.165    5.5819
    9.180    5.5994
    9.195    5.5292
    9.210    5.8452
    9.225    6.2489
    9.240    5.8276
    9.255    6.0558
    9.270    5.7223
    9.285    5.3537
    9.300    5.4766
    9.315    5.8803
    9.330    5.8101
    9.345    5.6170
    9.360    6.0207
    9.375    6.1085
    9.390    5.6170
    9.405    5.3888
    9.420    5.9154
    9.435    6.7579
    9.450    6.5122
    9.465    6.3893
    9.480    6.3542
    9.495    6.6351
    9.510    6.3542
    9.525    6.0558
    9.540    5.9681
    9.555    6.7579
    9.570    6.3718
    9.585    6.8984
    9.600    6.0734
    9.615    5.9329
    9.630    6.1962
    9.645    6.0558
    9.660    6.0558
    9.675    6.0909
    9.690    5.8803
    9.705    5.7750
    9.720    5.2659
    9.735    5.6697
    9.750    5.8803
    9.765    6.1787
    9.780    5.7574
    9.795    5.2659
    9.810    6.0734
    9.825    5.8627
    9.840    5.5468
    9.855    5.2484
    9.870    5.8276
    9.885    6.0734
    9.900    6.0558
    9.915    6.2840
    9.930    5.1957
    9.945    5.6521
    9.960    5.3537
    9.975    5.8978
    9.990    5.7223
   10.005    5.3361
   10.020    5.3010
   10.035    5.5994
   10.050    5.8627
   10.065    5.8276
   10.080    5.8101
   10.095    5.7223
   10.110    5.5468
   10.125    5.4590
   10.140    5.4415
   10.155    6.2489
   10.170    6.0207
   10.185    5.9856
   10.200    6.0558
   10.215    5.8803
   10.230    6.1787
   10.245    6.3542
   10.260    6.4244
   10.275    5.7574
   10.290    5.8452
   10.305    6.0909
   10.320    6.3367
   10.335    7.0739
   10.350    6.7579
   10.365    6.3542
   10.380    6.5122
   10.395    6.0207
   10.410    5.4941
   10.425    6.0909
   10.440    5.6872
   10.455    5.7048
   10.470    5.6521
   10.485    6.2138
   10.500    6.3016
   10.515    5.9856
   10.530    5.7925
   10.545    5.8101
   10.560    5.5117
   10.575    5.9154
   10.590    6.2665
   10.605    6.0032
   10.620    5.9329
   10.635    5.8101
   10.650    6.0558
   10.665    6.6000
   10.680    5.8452
   10.695    6.3367
   10.710    6.0909
   10.725    5.9856
   10.740    5.9329
   10.755    5.8978
   10.770    5.9681
   10.785    6.0383
   10.800    6.0734
   10.815    5.8452
   10.830    5.9681
   10.845    5.6170
   10.860    5.6521
   10.875    5.5468
   10.890    5.7223
   10.905    5.9505
   10.920    5.8101
   10.935    6.5122
   10.950    6.5649
   10.965    6.1085
   10.980    6.6526
   10.995    6.8808
   11.010    6.3893
   11.025    6.4946
   11.040    6.5473
   11.055    6.6877
   11.070    6.6000
   11.085    6.0734
   11.100    6.0383
   11.115    6.3016
   11.130    5.5117
   11.145    6.1611
   11.160    6.0032
   11.175    6.4244
   11.190    5.8803
   11.205    5.7048
   11.220    6.0909
   11.235    6.3367
   11.250    6.0032
   11.265    6.0032
   11.280    5.9329
   11.295    6.1085
   11.310    6.0734
   11.325    6.0207
   11.340    6.4244
   11.355    5.9856
   11.370    5.8452
   11.385    6.0207
   11.400    5.8276
   11.415    6.1787
   11.430    5.8978
   11.445    5.3361
   11.460    5.8978
   11.475    5.5819
   11.490    6.0383
   11.505    6.1260
   11.520    5.4590
   11.535    6.4420
   11.550    6.1085
   11.565    5.8452
   11.580    5.7925
   11.595    6.0032
   11.610    6.0383
   11.625    6.1787
   11.640    6.3893
   11.655    6.3718
   11.670    6.2489
   11.685    6.0032
   11.700    6.1085
   11.715    6.5298
   11.730    6.5473
   11.745    6.5122
   11.760    6.7228
   11.775    6.1787
   11.790    6.1260
   11.805    5.7925
   11.820    5.8627
   11.835    6.1787
   11.850    5.8101
   11.865    5.5643
   11.880    5.9329
   11.895    5.8452
   11.910    5.9856
   11.925    5.4239
   11.940    5.5292
   11.955    5.5994
   11.970    5.3361
   11.985    5.6345
   12.000    6.0734
   12.015    5.5819
   12.030    5.3010
   12.045    4.9500
   12.060    5.1782
   12.075    5.8978
   12.090    5.8452
   12.105    5.8101
   12.120    6.1962
   12.135    5.6697
   12.150    5.7223
   12.165    5.8276
   12.180    5.5292
   12.195    5.8101
   12.210    5.7925
   12.225    5.4239
   12.240    5.1431
   12.255    5.3888
   12.270    5.2659
   12.285    5.9856
   12.300    6.3016
   12.315    5.9505
   12.330    5.9681
   12.345    5.8276
   12.360    6.0383
   12.375    6.1787
   12.390    5.4941
   12.405    5.5819
   12.420    5.2659
   12.435    5.0026
   12.450    4.9851
   12.465    4.9324
   12.480    4.8622
   12.495    5.9329
   12.510    5.5643
   12.525    5.5643
   12.540    5.6872
   12.555    5.8803
   12.570    5.2308
   12.585    5.3186
   12.600    5.2835
   12.615    5.4415
   12.630    5.4590
   12.645    6.0207
   12.660    5.6521
   12.675    5.5819
   12.690    5.7048
   12.705    5.7574
   12.720    5.4239
   12.735    5.5292
   12.750    5.7223
   12.765    5.6872
   12.780    5.1431
   12.795    5.7399
   12.810    5.4064
   12.825    5.5643
   12.840    5.9154
   12.855    5.3712
   12.870    5.4415
   12.885    5.5643
   12.900    5.9681
   12.915    5.7399
   12.930    6.0909
   12.945    6.2313
   12.960    5.9681
   12.975    6.1260
   12.990    6.5298
   13.005    6.3191
   13.020    5.9856
   13.035    5.7048
   13.050    5.4239
   13.065    5.8627
   13.080    5.8978
   13.095    5.4941
   13.110    5.2835
   13.125    5.4941
   13.140    4.7042
   13.155    5.0377
   13.170    5.4064
   13.185    4.8973
   13.200    5.3712
   13.215    5.5994
   13.230    5.5117
   13.245    5.3010
   13.260    5.0553
   13.275    5.3186
   13.290    4.5814
   13.305    5.3010
   13.320    5.2308
   13.335    5.4239
   13.350    5.3888
   13.365    5.1080
   13.380    5.4766
   13.395    5.8276
   13.410    5.6170
   13.425    5.5292
   13.440    6.0558
   13.455    5.5994
   13.470    5.2308
   13.485    5.4941
   13.500    5.4590
   13.515    5.6521
   13.530    5.8627
   13.545    5.3888
   13.560    5.5117
   13.575    5.5117
   13.590    5.4766
   13.605    5.5643
   13.620    5.5819
   13.635    5.8276
   13.650    5.7223
   13.665    5.2133
   13.680    5.0553
   13.695    5.6697
   13.710    5.4064
   13.725    5.6872
   13.740    5.0026
   13.755    5.2133
   13.770    5.4239
   13.785    5.6345
   13.800    5.5292
   13.815    5.3888
   13.830    5.4415
   13.845    5.8276
   13.860    5.5468
   13.875    5.3010
   13.890    5.2835
   13.905    5.5468
   13.920    5.8101
   13.935    5.3712
   13.950    5.5819
   13.965    5.2308
   13.980    4.9500
   13.995    5.7048
   14.010    6.0207
   14.025    5.7223
   14.040    5.5643
   14.055    5.6345
   14.070    6.2313
   14.085    5.8452
   14.100    5.9505
   14.115    6.0909
   14.130    5.6345
   14.145    5.9505
   14.160    5.6697
   14.175    6.0909
   14.190    5.9681
   14.205    6.2840
   14.220    6.3016
   14.235    5.9681
   14.250    6.2665
   14.265    5.6697
   14.280    5.8627
   14.295    5.6521
   14.310    5.8101
   14.325    5.9154
   14.340    5.4239
   14.355    5.9681
   14.370    6.0734
   14.385    6.0734
   14.400    6.1436
   14.415    5.7925
   14.430    5.8803
   14.445    6.1787
   14.460    5.7399
   14.475    5.7048
   14.490    5.5468
   14.505    5.8627
   14.520    5.5292
   14.535    6.0909
   14.550    5.7574
   14.565    6.1436
   14.580    6.2313
   14.595    5.9856
   14.610    6.0032
   14.625    5.6872
   14.640    5.6345
   14.655    5.5819
   14.670    6.0207
   14.685    5.7925
   14.700    5.8978
   14.715    5.5994
   14.730    5.7399
   14.745    5.8803
   14.760    6.1611
   14.775    5.9154
   14.790    5.5292
   14.805    5.7574
   14.820    5.8978
   14.835    5.7048
   14.850    5.7574
   14.865    5.5994
   14.880    6.0207
   14.895    5.6345
   14.910    5.5994
   14.925    5.8627
   14.940    5.7750
   14.955    5.5468
   14.970    5.8627
   14.985    5.5117
   15.000    5.5643
   15.015    5.6521
   15.030    5.9154
   15.045    5.2484
   15.060    5.5994
   15.075    5.8101
   15.090    5.7223
   15.105    6.0032
   15.120    5.2659
   15.135    5.3361
   15.150    5.7399
   15.165    5.6170
   15.180    5.2133
   15.195    5.4064
   15.210    5.3010
   15.225    5.0026
   15.240    5.3888
   15.255    5.1255
   15.270    5.0377
   15.285    5.4064
   15.300    5.5292
   15.315    5.4239
   15.330    5.1957
   15.345    5.1255
   15.360    5.1431
   15.375    5.4239
   15.390    5.2133
   15.405    5.0377
   15.420    5.3712
   15.435    4.9675
   15.450    5.4415
   15.465    5.4239
   15.480    5.2308
   15.495    5.4590
   15.510    5.2484
   15.525    5.0026
   15.540    5.0202
   15.555    5.3186
   15.570    5.2133
   15.585    5.5819
   15.600    5.7399
   15.615    5.3010
   15.630    5.2484
   15.645    4.9675
   15.660    5.2308
   15.675    5.0377
   15.690    5.0728
   15.705    4.9149
   15.720    5.1782
   15.735    5.6170
   15.750    4.9851
   15.765    5.5117
   15.780    5.2308
   15.795    5.2308
   15.810    5.6521
   15.825    5.5994
   15.840    5.1782
   15.855    5.3010
   15.870    5.6170
   15.885    5.1080
   15.900    5.5117
   15.915    5.3888
   15.930    5.4590
   15.945    5.1080
   15.960    5.3888
   15.975    5.7925
   15.990    5.9329
   16.005    5.3712
   16.020    5.3537
   16.035    5.2133
   16.050    5.0026
   16.065    5.0377
   16.080    5.2308
   16.095    5.3537
   16.110    5.4064
   16.125    5.1255
   16.140    5.3712
   16.155    5.4941
   16.170    5.6521
   16.185    5.9154
   16.200    5.3537
   16.215    5.1782
   16.230    5.2659
   16.245    5.3010
   16.260    4.8271
   16.275    5.2133
   16.290    5.7750
   16.305    5.6521
   16.320    5.3010
   16.335    5.4415
   16.350    4.9324
   16.365    5.3010
   16.380    5.7750
   16.395    5.6872
   16.410    5.5994
   16.425    5.2659
   16.440    5.0026
   16.455    5.4239
   16.470    5.2659
   16.485    5.4766
   16.500    5.4590
   16.515    5.5994
   16.530    5.6697
   16.545    5.6170
   16.560    5.2484
   16.575    5.3361
   16.590    5.9856
   16.605    5.7750
   16.620    5.5819
   16.635    5.4941
   16.650    5.3712
   16.665    5.6521
   16.680    5.5994
   16.695    5.4590
   16.710    5.4239
   16.725    4.8447
   16.740    5.5292
   16.755    5.3186
   16.770    5.3186
   16.785    5.2484
   16.800    5.4239
   16.815    5.8276
   16.830    5.1255
   16.845    5.5643
   16.860    5.2484
   16.875    5.2659
   16.890    5.0026
   16.905    5.3010
   16.920    5.6170
   16.935    5.5292
   16.950    5.3712
   16.965    5.0202
   16.980    5.2133
   16.995    5.5117
   17.010    5.4590
   17.025    5.7223
   17.040    5.6697
   17.055    5.8627
   17.070    5.9154
   17.085    6.0383
   17.100    5.5994
   17.115    5.7750
   17.130    5.1957
   17.145    5.4239
   17.160    6.0383
   17.175    5.2484
   17.190    5.0026
   17.205    5.1606
   17.220    5.5117
   17.235    5.0202
   17.250    5.3888
   17.265    5.1782
   17.280    5.5819
   17.295    5.3712
   17.310    5.4239
   17.325    5.3361
   17.340    5.3712
   17.355    5.3888
   17.370    5.2308
   17.385    5.2659
   17.400    5.3537
   17.415    5.1431
   17.430    5.1080
   17.445    5.0026
   17.460    5.6170
   17.475    5.2659
   17.490    5.2835
   17.505    5.2835
   17.520    5.7399
   17.535    4.9675
   17.550    5.5292
   17.565    5.2308
   17.580    5.2484
   17.595    5.5468
   17.610    4.9149
   17.625    5.4766
   17.640    5.1080
   17.655    5.4064
   17.670    5.1606
   17.685    4.7393
   17.700    5.5994
   17.715    5.7399
   17.730    5.3010
   17.745    5.2484
   17.760    4.9851
   17.775    5.1782
   17.790    5.2133
   17.805    5.2484
   17.820    5.2308
   17.835    5.3186
   17.850    5.4064
   17.865    5.3361
   17.880    5.5468
   17.895    5.1255
   17.910    5.3361
   17.925    5.3537
   17.940    5.3361
   17.955    5.4415
   17.970    5.2308
   17.985    5.2133
   18.000    4.8271
   18.015    5.4766
   18.030    5.2133
   18.045    5.5117
   18.060    5.6345
   18.075    5.1255
   18.090    5.4941
   18.105    5.4941
   18.120    5.2835
   18.135    5.3712
   18.150    5.0202
   18.165    4.8271
   18.180    4.9500
   18.195    5.5117
   18.210    5.4239
   18.225    5.2659
   18.240    5.3010
   18.255    5.7574
   18.270    5.4941
   18.285    5.3537
   18.300    5.5819
   18.315    5.3888
   18.330    5.3888
   18.345    5.5468
   18.360    5.0202
   18.375    5.4239
   18.390    5.5292
   18.405    5.2308
   18.420    5.1080
   18.435    4.9851
   18.450    5.5643
   18.465    5.5292
   18.480    5.4590
   18.495    4.6867
   18.510    5.3010
   18.525    5.5468
   18.540    4.9851
   18.555    5.3010
   18.570    5.3361
   18.585    5.1080
   18.600    5.6170
   18.615    4.8271
   18.630    5.2308
   18.645    5.3712
   18.660    5.0553
   18.675    5.0202
   18.690    5.0202
   18.705    5.3888
   18.720    5.3010
   18.735    5.2835
   18.750    5.4590
   18.765    5.4941
   18.780    5.1255
   18.795    5.3712
   18.810    5.0202
   18.825    5.2308
   18.840    5.3361
   18.855    5.1606
   18.870    5.2659
   18.885    5.2835
   18.900    5.3361
   18.915    5.0202
   18.930    5.3010
   18.945    5.2133
   18.960    4.9500
   18.975    5.2835
   18.990    5.4941
   19.005    4.9324
   19.020    5.0202
   19.035    4.8973
   19.050    4.8798
   19.065    5.3888
   19.080    4.9500
   19.095    4.9149
   19.110    5.3361
   19.125    5.1606
   19.140    5.3888
   19.155    5.2659
   19.170    5.0728
   19.185    5.2659
   19.200    5.0553
   19.215    5.0553
   19.230    5.2484
   19.245    4.9149
   19.260    5.0377
   19.275    5.0728
   19.290    5.3361
   19.305    5.2659
   19.320    5.1431
   19.335    5.4415
   19.350    5.2835
   19.365    4.8798
   19.380    5.0377
   19.395    5.3361
   19.410    5.2484
   19.425    5.3186
   19.440    5.0026
   19.455    4.8622
   19.470    5.2835
   19.485    5.1957
   19.500    5.2133
   19.515    5.1080
   19.530    4.7393
   19.545    5.0728
   19.560    5.2133
   19.575    5.1606
   19.590    5.5643
   19.605    5.2308
   19.620    5.3888
   19.635    5.1431
   19.650    5.1782
   19.665    5.2835
   19.680    5.4766
   19.695    5.0377
   19.710    4.8271
   19.725    4.6516
   19.740    4.8622
   19.755    4.7920
   19.770    5.3361
   19.785    5.3361
   19.800    4.8798
   19.815    4.7393
   19.830    4.9324
   19.845    4.8798
   19.860    4.6691
   19.875    4.7218
   19.890    4.8798
   19.905    5.2659
   19.920    5.1431
   19.935    4.6691
   19.950    5.1255
   19.965    5.2484
   19.980    4.8095
   19.995    4.7920
   20.010    4.7569
   20.025    5.2133
   20.040    5.4064
   20.055    4.9149
   20.070    4.7218
   20.085    4.8798
   20.100    5.0728
   20.115    5.2835
   20.130    5.1431
   20.145    4.7569
   20.160    4.8271
   20.175    5.2484
   20.190    4.9675
   20.205    4.7920
   20.220    4.6867
   20.235    4.8095
   20.250    4.6691
   20.265    4.9851
   20.280    4.9149
   20.295    5.1606
   20.310    5.0904
   20.325    5.1957
   20.340    5.1606
   20.355    5.2659
   20.370    5.3537
   20.385    5.4415
   20.400    4.8271
   20.415    4.8973
   20.430    4.9324
   20.445    4.9324
   20.460    4.9500
   20.475    5.3361
   20.490    5.2835
   20.505    5.2133
   20.520    4.6340
   20.535    4.5989
   20.550    4.9149
   20.565    5.2659
   20.580    4.8095
   20.595    5.0202
   20.610    5.3537
   20.625    5.4415
   20.640    4.6691
   20.655    4.5111
   20.670    4.5463
   20.685    4.8622
   20.700    5.1080
   20.715    5.0553
   20.730    4.7218
   20.745    5.0904
   20.760    5.1431
   20.775    4.6867
   20.790    4.9149
   20.805    5.1957
   20.820    5.2308
   20.835    4.7744
   20.850    4.9149
   20.865    5.0904
   20.880    5.0553
   20.895    4.9324
   20.910    5.0904
   20.925    4.7920
   20.940    4.7218
   20.955    4.5638
   20.970    4.9149
   20.985    4.9149
   21.000    4.8622
   21.015    5.3888
   21.030    4.4585
   21.045    4.6691
   21.060    4.8271
   21.075    5.2133
   21.090    4.7569
   21.105    5.3010
   21.120    5.3361
   21.135    5.0728
   21.150    4.7920
   21.165    5.0202
   21.180    4.8447
   21.195    4.7393
   21.210    4.7920
   21.225    4.8973
   21.240    5.2308
   21.255    4.8798
   21.270    5.0904
   21.285    5.2659
   21.300    5.1606
   21.315    5.0026
   21.330    4.8622
   21.345    5.2659
   21.360    4.8095
   21.375    4.6867
   21.390    4.8095
   21.405    5.0553
   21.420    4.7920
   21.435    5.1255
   21.450    4.7744
   21.465    4.6691
   21.480    5.3010
   21.495    5.1782
   21.510    5.0377
   21.525    4.9500
   21.540    5.0904
   21.555    4.9500
   21.570    4.8622
   21.585    5.3537
   21.600    5.0377
   21.615    4.7393
   21.630    4.7042
   21.645    4.7218
   21.660    5.0904
   21.675    5.1431
   21.690    4.8973
   21.705    4.7744
   21.720    4.6691
   21.735    4.6516
   21.750    4.9675
   21.765    4.8447
   21.780    5.2659
   21.795    5.0026
   21.810    5.1080
   21.825    5.9505
   21.840    5.5819
   21.855    5.0553
   21.870    4.7042
   21.885    4.8447
   21.900    5.0904
   21.915    4.8798
   21.930    4.5287
   21.945    4.2127
   21.960    4.5989
   21.975    4.4585
   21.990    4.7042
   22.005    4.8798
   22.020    4.7218
   22.035    4.5989
   22.050    5.0553
   22.065    4.7920
   22.080    5.1606
   22.095    4.9500
   22.110    5.4941
   22.125    4.7393
   22.140    4.9149
   22.155    4.9851
   22.170    4.9500
   22.185    4.7920
   22.200    4.9675
   22.215    4.8798
   22.230    5.1782
   22.245    4.8973
   22.260    5.1782
   22.275    4.7920
   22.290    4.6516
   22.305    4.7218
   22.320    4.7569
   22.335    5.0553
   22.350    4.8973
   22.365    4.7744
   22.380    4.8447
   22.395    4.8622
   22.410    4.8095
   22.425    5.0377
   22.440    5.1431
   22.455    4.6867
   22.470    4.7218
   22.485    4.9851
   22.500    5.0904
   22.515    4.9500
   22.530    5.1782
   22.545    4.9149
   22.560    4.7744
   22.575    4.9675
   22.590    5.1255
   22.605    4.6516
   22.620    4.5989
   22.635    5.1431
   22.650    4.6340
   22.665    4.5814
   22.680    4.4409
   22.695    4.1425
   22.710    4.5463
   22.725    4.7042
   22.740    4.7569
   22.755    4.6691
   22.770    4.4234
   22.785    4.5638
   22.800    4.5287
   22.815    4.7920
   22.830    4.7920
   22.845    4.5638
   22.860    5.0728
   22.875    4.8622
   22.890    4.8095
   22.905    4.6340
   22.920    4.9851
   22.935    4.8622
   22.950    5.2835
   22.965    5.7399
   22.980    5.2484
   22.995    5.0202
   23.010    4.6691
   23.025    4.5287
   23.040    4.7042
   23.055    4.6867
   23.070    4.4058
   23.085    4.8095
   23.100    4.5638
   23.115    4.5638
   23.130    4.4585
   23.145    4.8271
   23.160    4.6516
   23.175    4.7393
   23.190    5.0553
   23.205    4.4058
   23.220    4.1074
   23.235    4.4936
   23.250    4.3181
   23.265    4.5111
   23.280    4.5989
   23.295    4.5111
   23.310    4.5463
   23.325    4.5463
   23.340    4.5989
   23.355    4.5989
   23.370    4.6165
   23.385    4.5111
   23.400    4.5989
   23.415    4.4585
   23.430    4.4585
   23.445    4.2830
   23.460    4.3005
   23.475    4.5287
   23.490    4.5287
   23.505    4.5989
   23.520    4.4936
   23.535    4.0723
   23.550    4.4409
   23.565    4.8271
   23.580    4.5638
   23.595    4.5814
   23.610    4.9675
   23.625    4.7218
   23.640    4.6340
   23.655    4.7569
   23.670    4.6691
   23.685    4.2478
   23.700    4.3532
   23.715    4.5989
   23.730    4.3532
   23.745    4.1601
   23.760    4.4058
   23.775    4.7042
   23.790    4.4058
   23.805    4.4409
   23.820    4.4760
   23.835    4.4936
   23.850    4.2303
   23.865    4.5111
   23.880    4.3532
   23.895    4.7393
   23.910    4.4936
   23.925    4.3883
   23.940    4.0021
   23.955    4.4234
   23.970    4.0723
   23.985    4.6340
   24.000    4.5638
   24.015    4.4585
   24.030    4.2830
   24.045    4.4234
   24.060    4.5111
   24.075    4.3883
   24.090    4.0899
   24.105    4.2478
   24.120    4.1601
   24.135    4.3883
   24.150    4.1601
   24.165    4.3005
   24.180    4.7569
   24.195    4.4234
   24.210    3.9846
   24.225    4.0372
   24.240    4.4409
   24.255    4.4585
   24.270    4.5111
   24.285    4.3181
   24.300    4.4234
   24.315    4.5287
   24.330    4.6516
   24.345    4.7569
   24.360    4.5111
   24.375    4.0197
   24.390    4.1425
   24.405    4.3005
   24.420    4.6867
   24.435    4.4409
   24.450    4.4585
   24.465    4.1250
   24.480    4.9500
   24.495    4.2830
   24.510    4.1601
   24.525    4.1776
   24.540    4.3707
   24.555    4.1776
   24.570    4.3356
   24.585    4.1074
   24.600    4.1601
   24.615    4.5287
   24.630    4.3532
   24.645    4.0021
   24.660    4.1952
   24.675    4.0021
   24.690    4.4234
   24.705    4.1952
   24.720    4.1601
   24.735    4.3181
   24.750    4.0548
   24.765    4.3356
   24.780    4.7042
   24.795    4.0899
   24.810    3.7564
   24.825    4.0548
   24.840    4.1952
   24.855    4.2654
   24.870    4.7920
   24.885    4.1601
   24.900    4.3356
   24.915    4.5287
   24.930    3.9494
   24.945    4.4936
   24.960    4.9675
   24.975    4.4936
   24.990    4.3356
   25.005    4.0548
   25.020    3.7564
   25.035    4.1776
   25.050    4.4234
   25.065    4.5638
   25.080    4.5287
   25.095    4.2303
   25.110    4.2478
   25.125    4.1952
   25.140    4.2654
   25.155    4.2127
   25.170    4.1952
   25.185    4.6165
   25.200    4.1952
   25.215    3.9143
   25.230    4.0723
   25.245    5.0728
   25.260    4.3532
   25.275    4.2303
   25.290    4.0372
   25.305    4.3883
   25.320    4.1074
   25.335    4.1425
   25.350    3.8266
   25.365    3.9494
   25.380    4.1425
   25.395    4.0021
   25.410    3.9670
   25.425    4.0021
   25.440    4.3005
   25.455    4.3883
   25.470    3.9846
   25.485    4.3005
   25.500    4.2478
   25.515    4.0548
   25.530    4.0899
   25.545    4.0899
   25.560    4.2830
   25.575    4.5287
   25.590    4.4058
   25.605    4.1776
   25.620    4.1250
   25.635    4.1776
   25.650    4.2478
   25.665    4.3707
   25.680    3.9143
   25.695    4.1074
   25.710    3.9494
   25.725    4.0372
   25.740    4.1074
   25.755    4.2127
   25.770    4.2478
   25.785    4.5111
   25.800    4.2478
   25.815    4.6867
   25.830    4.1952
   25.845    4.4936
   25.860    4.4234
   25.875    3.8266
   25.890    3.9494
   25.905    4.1776
   25.920    4.0021
   25.935    4.2654
   25.950    3.8441
   25.965    4.2478
   25.980    3.9494
   25.995    4.2830
   26.010    4.0197
   26.025    3.9846
   26.040    4.3181
   26.055    4.3356
   26.070    4.3356
   26.085    4.4058
   26.100    4.2478
   26.115    4.5814
   26.130    4.1074
   26.145    3.9143
   26.160    4.3356
   26.175    4.2127
   26.190    4.1425
   26.205    3.7037
   26.220    3.8441
   26.235    4.0197
   26.250    3.8968
   26.265    3.8266
   26.280    3.8792
   26.295    3.8266
   26.310    3.8617
   26.325    3.8792
   26.340    4.4585
   26.355    4.2303
   26.370    3.8617
   26.385    3.9319
   26.400    3.7388
   26.415    3.8266
   26.430    3.6159
   26.445    3.6335
   26.460    3.8617
   26.475    3.8617
   26.490    3.9143
   26.505    4.1425
   26.520    4.1425
   26.535    3.9670
   26.550    3.8968
   26.565    4.1952
   26.580    4.0372
   26.595    4.0372
   26.610    4.2478
   26.625    4.0372
   26.640    3.5984
   26.655    4.0372
   26.670    4.3356
   26.685    3.9846
   26.700    3.7564
   26.715    3.7915
   26.730    4.0372
   26.745    3.6510
   26.760    3.8968
   26.775    3.7564
   26.790    3.9670
   26.805    3.9319
   26.820    3.8617
   26.835    4.2127
   26.850    3.6159
   26.865    4.1601
   26.880    3.8090
   26.895    3.7915
   26.910    3.6335
   26.925    3.6159
   26.940    3.6686
   26.955    3.7739
   26.970    3.7037
   26.985    4.0197
   27.000    4.1952
   27.015    4.2654
   27.030    3.8266
   27.045    3.6686
   27.060    4.0372
   27.075    4.0899
   27.090    3.7388
   27.105    4.0548
   27.120    3.8792
   27.135    3.5633
   27.150    3.7213
   27.165    3.8968
   27.180    3.8266
   27.195    4.1952
   27.210    3.9670
   27.225    3.9494
   27.240    3.8968
   27.255    3.9143
   27.270    3.8441
   27.285    4.1250
   27.300    3.9670
   27.315    3.7037
   27.330    3.7564
   27.345    3.6686
   27.360    3.7564
   27.375    3.6510
   27.390    3.5633
   27.405    3.4404
   27.420    3.7213
   27.435    3.9143
   27.450    4.0548
   27.465    4.0021
   27.480    4.0723
   27.495    3.9319
   27.510    3.4931
   27.525    3.4580
   27.540    3.9670
   27.555    3.4053
   27.570    3.8792
   27.585    3.8441
   27.600    4.1250
   27.615    3.5282
   27.630    3.4931
   27.645    3.7388
   27.660    3.4404
   27.675    3.6335
   27.690    3.8792
   27.705    3.7388
   27.720    3.7739
   27.735    3.9494
   27.750    3.7388
   27.765    3.7388
   27.780    3.5984
   27.795    3.9143
   27.810    3.6862
   27.825    3.6159
   27.840    3.3526
   27.855    3.5808
   27.870    3.4053
   27.885    3.4229
   27.900    3.2824
   27.915    3.5457
   27.930    3.7037
   27.945    3.7037
   27.960    3.6862
   27.975    3.5633
   27.990    3.6862
   28.005    3.4580
   28.020    3.3877
   28.035    3.6686
   28.050    3.7739
   28.065    3.7388
   28.080    3.7564
   28.095    3.6686
   28.110    3.6335
   28.125    3.7388
   28.140    3.8266
   28.155    3.6159
   28.170    3.3351
   28.185    3.5106
   28.200    3.5808
   28.215    3.8090
   28.230    3.8792
   28.245    3.4580
   28.260    3.6159
   28.275    3.4755
   28.290    3.4931
   28.305    3.7739
   28.320    3.8441
   28.335    3.7388
   28.350    3.8090
   28.365    3.5633
   28.380    3.6159
   28.395    3.5282
   28.410    3.7388
   28.425    3.7213
   28.440    3.6335
   28.455    3.5984
   28.470    3.7213
   28.485    3.8792
   28.500    3.7388
   28.515    3.7388
   28.530    3.6686
   28.545    3.4755
   28.560    3.7037
   28.575    3.2824
   28.590    3.3702
   28.605    3.5457
   28.620    3.6686
   28.635    3.3702
   28.650    3.6510
   28.665    3.4580
   28.680    3.3526
   28.695    3.5808
   28.710    3.8792
   28.725    3.8266
   28.740    3.8090
   28.755    3.3702
   28.770    3.3351
   28.785    3.3702
   28.800    3.6510
   28.815    3.6686
   28.830    3.6335
   28.845    3.5984
   28.860    3.2298
   28.875    3.5984
   28.890    3.4931
   28.905    3.9143
   28.920    3.7564
   28.935    3.4755
   28.950    3.3351
   28.965    3.5106
   28.980    3.6335
   28.995    3.6510
   29.010    3.8266
   29.025    3.8792
   29.040    3.4755
   29.055    3.4053
   29.070    3.7037
   29.085    3.8090
   29.100    3.2649
   29.115    3.6159
   29.130    3.8617
   29.145    3.7388
   29.160    3.6862
   29.175    3.2824
   29.190    3.3351
   29.205    3.4580
   29.220    3.8441
   29.235    3.8617
   29.250    3.6159
   29.265    3.3877
   29.280    3.3877
   29.295    3.3000
   29.310    3.3877
   29.325    3.2473
   29.340    3.3175
   29.355    3.6686
   29.370    3.6159
   29.385    3.2473
   29.400    3.3702
   29.415    3.6159
   29.430    3.6686
   29.445    3.7915
   29.460    3.1596
   29.475    3.1596
   29.490    3.1420
   29.505    3.4053
   29.520    3.5808
   29.535    3.4931
   29.550    3.6862
   29.565    3.2298
   29.580    3.0016
   29.595    3.3351
   29.610    3.1245
   29.625    3.2824
   29.640    3.3351
   29.655    3.1069
   29.670    3.3000
   29.685    3.3351
   29.700    3.2824
   29.715    3.1245
   29.730    3.1245
   29.745    3.1771
   29.760    3.0542
   29.775    3.1420
   29.790    3.2298
   29.805    3.1245
   29.820    3.4755
   29.835    3.3877
   29.850    3.2122
   29.865    3.4404
   29.880    3.2824
   29.895    3.1596
   29.910    2.8963
   29.925    2.8085
   29.940    3.4931
   29.955    3.2649
   29.970    3.2649
   29.985    3.4755
   30.000    3.5106
   30.015    3.2298
   30.030    3.4580
   30.045    3.3000
   30.060    2.9665
   30.075    3.2473
   30.090    3.2649
   30.105    3.2649
   30.120    3.6335
   30.135    3.3526
   30.150    3.2649
   30.165    3.5282
   30.180    3.0542
   30.195    2.8963
   30.210    3.0718
   30.225    3.1947
   30.240    3.4580
   30.255    3.2122
   30.270    3.2824
   30.285    3.1069
   30.300    3.0367
   30.315    3.2122
   30.330    2.9314
   30.345    3.0016
   30.360    3.0893
   30.375    3.4404
   30.390    3.2649
   30.405    3.1069
   30.420    2.6681
   30.435    2.8963
   30.450    3.2649
   30.465    3.2122
   30.480    3.2298
   30.495    3.1947
   30.510    2.8963
   30.525    2.9489
   30.540    3.3877
   30.555    3.3351
   30.570    3.2824
   30.585    2.9665
   30.600    3.5106
   30.615    3.3702
   30.630    3.1069
   30.645    3.6159
   30.660    3.3877
   30.675    3.2122
   30.690    3.2824
   30.705    3.1771
   30.720    3.0191
   30.735    3.1771
   30.750    3.3000
   30.765    3.6862
   30.780    3.0016
   30.795    3.1596
   30.810    3.2298
   30.825    2.9489
   30.840    3.0542
   30.855    2.6505
   30.870    3.0191
   30.885    2.8612
   30.900    2.8260
   30.915    3.3526
   30.930    2.7207
   30.945    2.9665
   30.960    2.8085
   30.975    2.8612
   30.990    2.8612
   31.005    3.2298
   31.020    3.1069
   31.035    2.9665
   31.050    3.1947
   31.065    3.0191
   31.080    3.0191
   31.095    2.9314
   31.110    2.9840
   31.125    2.8436
   31.140    2.8436
   31.155    2.9840
   31.170    3.2473
   31.185    2.8085
   31.200    2.6681
   31.215    2.7909
   31.230    3.2122
   31.245    2.7558
   31.260    2.9489
   31.275    3.0893
   31.290    2.9138
   31.305    3.3000
   31.320    3.0893
   31.335    2.9138
   31.350    2.8436
   31.365    2.8963
   31.380    2.9489
   31.395    3.1420
   31.410    3.1069
   31.425    2.8436
   31.440    3.0718
   31.455    3.1771
   31.470    3.1596
   31.485    3.1069
   31.500    2.8963
   31.515    3.2473
   31.530    3.1771
   31.545    3.2298
   31.560    3.0016
   31.575    3.1069
   31.590    2.7909
   31.605    2.7734
   31.620    2.6681
   31.635    2.9489
   31.650    2.8436
   31.665    2.9840
   31.680    2.9665
   31.695    2.8260
   31.710    3.2122
   31.725    3.1069
   31.740    3.1947
   31.755    3.0893
   31.770    2.9314
   31.785    2.7558
   31.800    3.0191
   31.815    3.0718
   31.830    2.8787
   31.845    2.6856
   31.860    3.1771
   31.875    2.8787
   31.890    2.8085
   31.905    2.7032
   31.920    3.1947
   31.935    3.3877
   31.950    2.7909
   31.965    2.8436
   31.980    2.9665
   31.995    2.7383
   32.010    2.7383
   32.025    2.8963
   32.040    2.7734
   32.055    2.9665
   32.070    3.0718
   32.085    2.8963
   32.100    3.1420
   32.115    3.0367
   32.130    2.6856
   32.145    3.1245
   32.160    3.1420
   32.175    2.7383
   32.190    2.9314
   32.205    3.0893
   32.220    2.7734
   32.235    2.5628
   32.250    2.7032
   32.265    2.8612
   32.280    2.7909
   32.295    2.8787
   32.310    2.8787
   32.325    2.8260
   32.340    2.7383
   32.355    2.9665
   32.370    2.4750
   32.385    2.5979
   32.400    3.0893
   32.415    2.7383
   32.430    2.9489
   32.445    2.6505
   32.460    2.8787
   32.475    3.0016
   32.490    2.7032
   32.505    2.9840
   32.520    3.1771
   32.535    3.1420
   32.550    2.7383
   32.565    2.5276
   32.580    2.5276
   32.595    2.5628
   32.610    2.5979
   32.625    2.8963
   32.640    2.9665
   32.655    2.5628
   32.670    2.8787
   32.685    3.0016
   32.700    2.5628
   32.715    2.7734
   32.730    2.7383
   32.745    2.7207
   32.760    3.1069
   32.775    2.9138
   32.790    2.9314
   32.805    2.8436
   32.820    2.6681
   32.835    2.6330
   32.850    2.8612
   32.865    2.5628
   32.880    2.8260
   32.895    2.8260
   32.910    2.6154
   32.925    2.5979
   32.940    2.6856
   32.955    2.8085
   32.970    2.8436
   32.985    2.8436
   33.000    2.6681
   33.015    2.6681
   33.030    3.0367
   33.045    2.8085
   33.060    2.6154
   33.075    2.8612
   33.090    2.8436
   33.105    3.0718
   33.120    2.7032
   33.135    2.7909
   33.150    2.9489
   33.165    2.9665
   33.180    2.5803
   33.195    2.6681
   33.210    2.7558
   33.225    2.4399
   33.240    2.5979
   33.255    2.4399
   33.270    2.5803
   33.285    2.7032
   33.300    2.7207
   33.315    2.7032
   33.330    3.0367
   33.345    3.0016
   33.360    2.6154
   33.375    2.5979
   33.390    2.4223
   33.405    2.5452
   33.420    2.7909
   33.435    2.8085
   33.450    2.6681
   33.465    2.6505
   33.480    2.8260
   33.495    2.5979
   33.510    2.7734
   33.525    2.6505
   33.540    2.8436
   33.555    2.5979
   33.570    2.6856
   33.585    2.5979
   33.600    2.5628
   33.615    2.9138
   33.630    2.9314
   33.645    2.7909
   33.660    2.8085
   33.675    2.5452
   33.690    2.6330
   33.705    3.0367
   33.720    2.5276
   33.735    2.6154
   33.750    2.8787
   33.765    2.4750
   33.780    2.6154
   33.795    2.6154
   33.810    2.7383
   33.825    2.7734
   33.840    2.9840
   33.855    2.8085
   33.870    2.5276
   33.885    2.6154
   33.900    2.5979
   33.915    2.7734
   33.930    2.5101
   33.945    2.9489
   33.960    2.8085
   33.975    2.6856
   33.990    2.7383
   34.005    2.6505
   34.020    2.7383
   34.035    2.7558
   34.050    2.3697
   34.065    2.6681
   34.080    2.8787
   34.095    2.7383
   34.110    2.7558
   34.125    2.5276
   34.140    3.0016
   34.155    2.4399
   34.170    2.5803
   34.185    2.8787
   34.200    2.5101
   34.215    2.7909
   34.230    2.7558
   34.245    2.8612
   34.260    2.6154
   34.275    2.8436
   34.290    2.6681
   34.305    2.5452
   34.320    2.6505
   34.335    2.6681
   34.350    2.6681
   34.365    2.6856
   34.380    2.6154
   34.395    2.4574
   34.410    2.6330
   34.425    2.2995
   34.440    2.5979
   34.455    2.8436
   34.470    2.8085
   34.485    2.7734
   34.500    2.8260
   34.515    2.6330
   34.530    2.3170
   34.545    2.4750
   34.560    2.4750
   34.575    2.7207
   34.590    2.6681
   34.605    2.5452
   34.620    2.6505
   34.635    2.8085
   34.650    2.5276
   34.665    2.5276
   34.680    2.7383
   34.695    2.6154
   34.710    2.6154
   34.725    2.5101
   34.740    2.8260
   34.755    2.9840
   34.770    2.8436
   34.785    2.8787
   34.800    2.6681
   34.815    2.6330
   34.830    2.5452
   34.845    2.8085
   34.860    2.8787
   34.875    2.5628
   34.890    2.3346
   34.905    2.5628
   34.920    2.7207
   34.935    2.7207
   34.950    2.5101
   34.965    2.9314
   34.980    2.5276
   34.995    2.4048
   35.010    2.5452
   35.025    2.3697
   35.040    2.5276
   35.055    2.4574
   35.070    2.5979
   35.085    2.9314
   35.100    2.7383
   35.115    2.6154
   35.130    2.7558
   35.145    2.5452
   35.160    2.7558
   35.175    2.9314
   35.190    2.8085
   35.205    2.7909
   35.220    2.5628
   35.235    2.4574
   35.250    2.6154
   35.265    2.4574
   35.280    2.4925
   35.295    2.4048
   35.310    2.5101
   35.325    2.5803
   35.340    2.7383
   35.355    2.4750
   35.370    3.0191
   35.385    2.5276
   35.400    2.5101
   35.415    2.6330
   35.430    2.7734
   35.445    2.5452
   35.460    2.5452
   35.475    2.4750
   35.490    2.5276
   35.505    2.4750
   35.520    2.4223
   35.535    2.8436
   35.550    2.6330
   35.565    2.5803
   35.580    2.6681
   35.595    2.6681
   35.610    2.8787
   35.625    2.5101
   35.640    2.5276
   35.655    2.5979
   35.670    2.8085
   35.685    2.5276
   35.700    2.5979
   35.715    2.7734
   35.730    2.5276
   35.745    2.5452
   35.760    2.5979
   35.775    2.4223
   35.790    2.6330
   35.805    2.5628
   35.820    2.6681
   35.835    2.7734
   35.850    2.6505
   35.865    2.7909
   35.880    2.7032
   35.895    2.7383
   35.910    2.4223
   35.925    2.7558
   35.940    2.4048
   35.955    2.0537
   35.970    2.7207
   35.985    2.5979
   36.000    2.6330
   36.015    2.6681
   36.030    2.5979
   36.045    2.4399
   36.060    2.5803
   36.075    2.6154
   36.090    2.2819
   36.105    2.2468
   36.120    2.5276
   36.135    2.4399
   36.150    2.7032
   36.165    2.6681
   36.180    2.6330
   36.195    2.3521
   36.210    2.5276
   36.225    2.7032
   36.240    2.7383
   36.255    2.5276
   36.270    2.3346
   36.285    2.4048
   36.300    2.5101
   36.315    2.4223
   36.330    2.5628
   36.345    3.0893
   36.360    2.9840
   36.375    2.5452
   36.390    2.5979
   36.405    2.2468
   36.420    2.2995
   36.435    2.4048
   36.450    2.5979
   36.465    2.6330
   36.480    2.7909
   36.495    2.4750
   36.510    2.2643
   36.525    2.3872
   36.540    2.5979
   36.555    2.6505
   36.570    2.6505
   36.585    2.9314
   36.600    2.6681
   36.615    2.7032
   36.630    2.6505
   36.645    2.4574
   36.660    2.4925
   36.675    2.5452
   36.690    2.5803
   36.705    2.5276
   36.720    2.5979
   36.735    2.8085
   36.750    2.6330
   36.765    2.5628
   36.780    2.1239
   36.795    2.2643
   36.810    2.1766
   36.825    2.4223
   36.840    2.7207
   36.855    2.3872
   36.870    2.3872
   36.885    2.8612
   36.900    2.1415
   36.915    2.7383
   36.930    2.5803
   36.945    2.6681
   36.960    2.6505
   36.975    2.5628
   36.990    2.5979
   37.005    2.4048
   37.020    2.4048
   37.035    2.7909
   37.050    2.4574
   37.065    2.1415
   37.080    2.2995
   37.095    2.4925
   37.110    2.5101
   37.125    2.6505
   37.140    2.8260
   37.155    2.9138
   37.170    2.8436
   37.185    2.7383
   37.200    2.5803
   37.215    2.7734
   37.230    2.8612
   37.245    2.6330
   37.260    2.4048
   37.275    2.6681
   37.290    2.4399
   37.305    2.4223
   37.320    2.5979
   37.335    2.5276
   37.350    2.4925
   37.365    2.4574
   37.380    2.4399
   37.395    2.6330
   37.410    2.2292
   37.425    2.3697
   37.440    2.4574
   37.455    2.3521
   37.470    2.3346
   37.485    2.3170
   37.500    2.5452
   37.515    2.3872
   37.530    2.6154
   37.545    2.5452
   37.560    2.3872
   37.575    2.3346
   37.590    2.5276
   37.605    2.6856
   37.620    2.9138
   37.635    3.0191
   37.650    2.3521
   37.665    2.5276
   37.680    2.7734
   37.695    2.6856
   37.710    2.2643
   37.725    2.3170
   37.740    2.3697
   37.755    2.3521
   37.770    2.4925
   37.785    2.4574
   37.800    2.2117
   37.815    2.4750
   37.830    2.5979
   37.845    2.4048
   37.860    2.3697
   37.875    2.4048
   37.890    2.5101
   37.905    2.4574
   37.920    2.4399
   37.935    2.1239
   37.950    2.3872
   37.965    2.5101
   37.980    2.5979
   37.995    2.7558
   38.010    2.4574
   38.025    2.7207
   38.040    2.5803
   38.055    2.2819
   38.070    2.4399
   38.085    2.4399
   38.100    2.5628
   38.115    2.4223
   38.130    2.6154
   38.145    2.4399
   38.160    2.2292
   38.175    2.5276
   38.190    2.6856
   38.205    2.4223
   38.220    2.4399
   38.235    2.6154
   38.250    2.5452
   38.265    2.6330
   38.280    2.7383
   38.295    2.2995
   38.310    2.4750
   38.325    2.4574
   38.340    2.4223
   38.355    2.4223
   38.370    2.5452
   38.385    2.4574
   38.400    2.4925
   38.415    2.6681
   38.430    2.3346
   38.445    2.2117
   38.460    2.0888
   38.475    2.1941
   38.490    2.7207
   38.505    2.3521
   38.520    2.2292
   38.535    2.5452
   38.550    2.5452
   38.565    2.4574
   38.580    2.5979
   38.595    2.5101
   38.610    2.4925
   38.625    2.4048
   38.640    2.4048
   38.655    2.4399
   38.670    2.4399
   38.685    2.1766
   38.700    2.1415
   38.715    2.4048
   38.730    2.2468
   38.745    2.4399
   38.760    2.4048
   38.775    2.4223
   38.790    2.3346
   38.805    2.4574
   38.820    2.1064
   38.835    2.4223
   38.850    2.6505
   38.865    2.3521
   38.880    2.3170
   38.895    2.4048
   38.910    2.1415
   38.925    2.3872
   38.940    2.5803
   38.955    2.6856
   38.970    2.5452
   38.985    2.4399
   39.000    2.3521
   39.015    2.4574
   39.030    2.4048
   39.045    2.5276
   39.060    2.4574
   39.075    2.3346
   39.090    2.3521
   39.105    2.3521
   39.120    2.4399
   39.135    2.5276
   39.150    2.5101
   39.165    2.5452
   39.180    2.1941
   39.195    2.5452
   39.210    2.4925
   39.225    2.3521
   39.240    2.3521
   39.255    2.5628
   39.270    2.4750
   39.285    2.3872
   39.300    2.3521
   39.315    2.5276
   39.330    2.4574
   39.345    2.4223
   39.360    2.1941
   39.375    2.4223
   39.390    2.2819
   39.405    2.3346
   39.420    2.5452
   39.435    2.5101
   39.450    2.6505
   39.465    2.3346
   39.480    2.5276
   39.495    2.4223
   39.510    2.2292
   39.525    2.0888
   39.540    2.6154
   39.555    2.4925
   39.570    2.4750
   39.585    2.3697
   39.600    2.4925
   39.615    2.2643
   39.630    2.4048
   39.645    2.6330
   39.660    2.2995
   39.675    2.3521
   39.690    2.1415
   39.705    2.2819
   39.720    2.4048
   39.735    2.4048
   39.750    2.2468
   39.765    2.2819
   39.780    2.7032
   39.795    2.3872
   39.810    2.2643
   39.825    2.3697
   39.840    2.4223
   39.855    2.4574
   39.870    2.5276
   39.885    2.5628
   39.900    2.1239
   39.915    2.1590
   39.930    2.3521
   39.945    2.0888
   39.960    2.4574
   39.975    2.1941
   39.990    2.1766
