    1.500   17.5671
    1.515   17.7672
    1.530   17.3670
    1.545   17.5145
    1.560   17.0721
    1.575   17.1248
    1.590   17.0511
    1.605   16.7983
    1.620   17.0090
    1.635   16.8931
    1.650   15.9136
    1.665   16.1559
    1.680   15.4081
    1.695   15.7662
    1.710   15.0816
    1.725   15.0816
    1.740   14.9447
    1.755   14.9763
    1.770   14.5761
    1.785   14.2391
    1.800   14.3023
    1.815   13.4281
    1.830   13.7757
    1.845   14.1969
    1.860   13.5545
    1.875   13.0384
    1.890   12.9015
    1.905   12.7751
    1.920   13.5229
    1.935   13.3017
    1.950   12.7751
    1.965   12.5645
    1.980   12.7330
    1.995   12.4065
    2.010   12.2591
    2.025   11.7114
    2.040   11.7641
    2.055   11.2691
    2.070   11.2691
    2.085   11.5324
    2.100   11.4060
    2.115   11.5850
    2.130   11.9010
    2.145   11.3428
    2.160   10.9742
    2.175   10.9426
    2.190   10.8794
    2.205   11.0479
    2.220   10.7109
    2.235   10.7425
    2.250   10.2686
    2.265   10.3949
    2.280   10.3528
    2.295   10.5003
    2.310   10.2159
    2.325    9.9105
    2.340   10.0579
    2.355   10.5740
    2.370   10.1843
    2.385    9.9315
    2.400    9.6367
    2.415    9.7946
    2.430    9.9631
    2.445    9.3312
    2.460    9.3312
    2.475    9.4681
    2.490    9.4365
    2.505    9.4260
    2.520    9.1522
    2.535    9.1943
    2.550    9.2259
    2.565    9.4365
    2.580    9.4997
    2.595    9.2996
    2.610    9.2470
    2.625    8.9942
    2.640    8.8678
    2.655    9.0995
    2.670    9.0047
    2.685    8.8046
    2.700    8.8678
    2.715    8.9731
    2.730    9.0258
    2.745    8.7836
    2.760    8.7836
    2.775    9.1101
    2.790    9.2154
    2.805    9.3734
    2.820    8.7836
    2.835    8.9205
    2.850    9.3207
    2.865    9.1101
    2.880    9.5103
    2.895    9.8368
    2.910    8.9626
    2.925    9.4155
    2.940    9.3523
    2.955    9.2154
    2.970   10.2054
    2.985   10.6056
    3.000   10.2580
    3.015   10.4897
    3.030   10.5740
    3.045   10.8583
    3.060   11.1743
    3.075   11.5850
    3.090   11.8378
    3.105   12.0379
    3.120   12.4592
    3.135   13.2175
    3.150   13.2175
    3.165   13.2175
    3.180   13.7757
    3.195   14.4602
    3.210   15.0500
    3.225   15.8820
    3.240   16.5140
    3.255   17.5987
    3.270   18.3570
    3.285   19.1996
    3.300   20.4529
    3.315   21.6851
    3.330   22.6856
    3.345   24.3181
    3.360   25.4028
    3.375   26.6983
    3.390   28.4360
    3.405   30.0790
    3.420   31.2164
    3.435   33.0068
    3.450   33.4913
    3.465   35.2817
    3.480   36.2612
    3.495   35.2923
    3.510   35.9874
    3.525   37.5777
    3.540   38.8626
    3.555   39.2944
    3.570   41.4639
    3.585   43.6440
    3.600   45.8873
    3.615   50.4265
    3.630   55.3555
    3.645   57.6935
    3.660   61.5061
    3.675   66.7404
    3.690   73.7125
    3.705   79.7894
    3.720   88.7204
    3.735   97.9042
    3.750  107.8041
    3.765  120.8847
    3.780  137.9989
    3.795  160.0211
    3.810  195.4187
    3.825  241.2638
    3.840  271.1427
    3.855  277.5988
    3.870  258.1991
    3.885  209.9737
    3.900  139.3892
    3.915   62.0432
    3.930   23.6967
    3.945   13.7441
    3.960   11.9958
    3.975   11.1743
    3.990   11.4165
    4.005   11.0690
    4.020   11.1111
    4.035   11.1638
    4.050   10.8162
    4.065    9.9210
    4.080    9.8262
    4.095   10.0369
    4.110    9.4471
    4.125    9.0153
    4.140    9.1417
    4.155    9.2786
    4.170    9.1627
    4.185    9.0890
    4.200    8.6572
    4.215    8.3728
    4.230    7.6461
    4.245    7.6145
    4.260    7.3934
    4.275    7.6567
    4.290    7.5197
    4.305    7.1827
    4.320    6.9721
    4.335    6.6772
    4.350    6.5719
    4.365    6.4034
    4.380    6.2559
    4.395    6.4350
    4.410    5.9610
    4.425    6.2349
    4.440    6.2033
    4.455    6.2665
    4.470    6.0453
    4.485    5.8452
    4.500    5.5503
    4.515    5.5398
    4.530    5.4134
    4.545    5.5503
    4.560    5.6135
    4.575    6.0453
    4.590    5.5082
    4.605    5.5714
    4.620    5.5082
    4.635    5.4239
    4.650    5.5608
    4.665    5.2343
    4.680    5.3818
    4.695    5.5503
    4.710    5.4134
    4.725    5.6451
    4.740    5.4450
    4.755    5.3818
    4.770    5.3818
    4.785    5.3607
    4.800    5.7083
    4.815    5.4766
    4.830    5.3607
    4.845    5.3081
    4.860    5.1817
    4.875    5.3923
    4.890    5.2449
    4.905    5.3712
    4.920    5.5187
    4.935    5.8557
    4.950    5.8241
    4.965    5.8347
    4.980    6.4244
    4.995    6.1085
    5.010    6.3191
    5.025    6.1717
    5.040    6.5192
    5.055    6.6140
    5.070    6.6983
    5.085    7.0353
    5.100    7.3196
    5.115    7.6251
    5.130    8.0358
    5.145    8.4781
    5.160    8.7414
    5.175    9.4050
    5.190    9.7209
    5.205   10.4897
    5.220   11.2164
    5.235   11.7114
    5.250   12.3539
    5.265   14.1969
    5.280   15.0606
    5.295   16.0295
    5.310   17.8304
    5.325   19.8947
    5.340   22.0326
    5.355   24.6867
    5.370   26.3928
    5.385   30.1211
    5.400   34.9552
    5.415   41.8220
    5.430   50.7425
    5.445   63.0542
    5.460   71.2164
    5.475   73.8810
    5.490   68.4781
    5.505   57.8304
    5.520   39.7472
    5.535   19.3470
    5.550    8.9415
    5.565    6.0137
    5.580    4.8973
    5.595    5.1395
    5.610    5.0658
    5.625    4.6340
    5.640    5.2659
    5.655    5.0342
    5.670    4.7393
    5.685    4.3813
    5.700    4.6867
    5.715    4.6551
    5.730    4.7288
    5.745    4.8973
    5.760    4.9078
    5.775    4.7288
    5.790    4.5076
    5.805    4.6130
    5.820    4.6024
    5.835    4.3813
    5.850    4.3286
    5.865    4.5498
    5.880    4.5498
    5.895    5.0764
    5.910    4.9710
    5.925    4.6445
    5.940    4.6445
    5.955    4.7077
    5.970    4.5919
    5.985    4.4234
    6.000    4.4550
    6.015    4.5182
    6.030    4.6235
    6.045    4.5392
    6.060    4.4866
    6.075    4.6761
    6.090    4.5708
    6.105    4.4339
    6.120    4.7815
    6.135    4.6235
    6.150    4.7393
    6.165    4.6024
    6.180    4.3286
    6.195    4.5708
    6.210    4.8341
    6.225    4.6867
    6.240    4.3181
    6.255    4.6130
    6.270    4.3602
    6.285    4.6656
    6.300    4.4866
    6.315    4.6235
    6.330    4.6445
    6.345    4.8657
    6.360    4.8236
    6.375    4.8341
    6.390    4.9921
    6.405    5.0974
    6.420    5.1501
    6.435    5.0869
    6.450    5.0026
    6.465    5.3291
    6.480    6.1611
    6.495    6.0558
    6.510    5.9821
    6.525    6.0558
    6.540    6.3296
    6.555    6.5192
    6.570    7.1301
    6.585    7.7725
    6.600    8.3728
    6.615    9.1417
    6.630    9.8262
    6.645   11.1006
    6.660   12.4908
    6.675   14.6709
    6.690   16.9352
    6.705   19.2944
    6.720   19.6946
    6.735   18.9258
    6.750   16.0190
    6.765   12.0379
    6.780    7.7304
    6.795    5.5503
    6.810    4.9605
    6.825    4.8447
    6.840    4.8868
    6.855    4.9500
    6.870    5.0553
    6.885    5.3186
    6.900    5.2449
    6.915    5.3712
    6.930    5.3607
    6.945    5.5714
    6.960    5.1185
    6.975    5.1290
    6.990    5.3923
    7.005    4.9921
    7.020    5.1080
    7.035    5.0553
    7.050    5.0026
    7.065    4.5498
    7.080    4.5182
    7.095    4.4655
    7.110    4.7393
    7.125    5.0869
    7.140    4.5919
    7.155    4.4339
    7.170    4.2759
    7.185    4.5392
    7.200    4.6024
    7.215    4.3075
    7.230    4.3286
    7.245    4.2654
    7.260    4.4444
    7.275    4.1917
    7.290    4.2443
    7.305    4.4339
    7.320    4.2654
    7.335    4.4128
    7.350    4.7709
    7.365    4.0969
    7.380    4.2127
    7.395    4.1180
    7.410    4.3918
    7.425    4.6130
    7.440    4.3602
    7.455    4.7393
    7.470    4.5919
    7.485    4.6551
    7.500    4.9921
    7.515    5.1290
    7.530    5.0658
    7.545    5.5503
    7.560    5.2449
    7.575    5.6135
    7.590    5.7188
    7.605    6.4560
    7.620    6.7088
    7.635    6.9721
    7.650    7.8778
    7.665    7.7936
    7.680    8.8152
    7.695    9.8052
    7.710   11.2270
    7.725   14.0706
    7.740   16.1453
    7.755   17.9042
    7.770   18.8204
    7.785   18.4202
    7.800   15.9663
    7.815   11.5429
    7.830    7.1406
    7.845    5.0342
    7.860    4.6235
    7.875    4.7709
    7.890    4.3391
    7.905    4.2865
    7.920    4.4550
    7.935    4.3813
    7.950    4.3391
    7.965    4.3707
    7.980    4.2549
    7.995    4.3918
    8.010    4.4234
    8.025    4.2865
    8.040    4.5392
    8.055    4.4971
    8.070    4.3075
    8.085    4.5392
    8.100    4.4971
    8.115    4.2022
    8.130    4.2338
    8.145    4.0548
    8.160    4.5919
    8.175    4.6867
    8.190    4.1706
    8.205    4.3813
    8.220    4.2338
    8.235    4.0337
    8.250    4.4655
    8.265    4.5708
    8.280    4.2127
    8.295    4.5814
    8.310    4.3602
    8.325    4.1601
    8.340    4.4339
    8.355    4.7183
    8.370    4.6130
    8.385    4.4866
    8.400    4.4128
    8.415    4.3602
    8.430    4.2654
    8.445    4.1180
    8.460    4.2759
    8.475    4.1285
    8.490    4.2970
    8.505    4.6867
    8.520    4.8131
    8.535    4.5603
    8.550    4.3918
    8.565    4.6972
    8.580    4.3602
    8.595    4.6235
    8.610    4.7604
    8.625    5.0658
    8.640    4.8236
    8.655    5.1395
    8.670    5.5398
    8.685    5.8768
    8.700    5.7293
    8.715    5.4344
    8.730    5.1395
    8.745    4.4866
    8.760    4.7604
    8.775    4.1496
    8.790    3.8441
    8.805    4.1390
    8.820    3.9284
    8.835    4.1285
    8.850    4.0864
    8.865    3.9494
    8.880    3.9389
    8.895    3.9705
    8.910    4.0337
    8.925    3.9389
    8.940    4.1601
    8.955    3.9284
    8.970    4.1811
    8.985    4.1601
    9.000    4.0758
    9.015    3.9705
    9.030    3.9179
    9.045    4.0864
    9.060    4.0442
    9.075    3.7283
    9.090    3.5598
    9.105    3.9179
    9.120    4.0653
    9.135    4.0969
    9.150    4.3286
    9.165    4.1917
    9.180    4.2022
    9.195    3.9705
    9.210    4.2549
    9.225    4.2865
    9.240    4.2865
    9.255    4.4128
    9.270    4.8025
    9.285    4.4128
    9.300    4.7393
    9.315    5.0869
    9.330    5.7820
    9.345    6.0874
    9.360    6.3296
    9.375    7.0669
    9.390    7.8041
    9.405    8.5519
    9.420   10.0895
    9.435   11.3007
    9.450   13.1964
    9.465   15.5345
    9.480   19.3786
    9.495   24.5814
    9.510   29.6367
    9.525   31.8483
    9.540   31.3533
    9.555   27.5724
    9.570   21.7588
    9.585   13.6704
    9.600    7.8884
    9.615    5.2343
    9.630    4.2443
    9.645    4.1706
    9.660    3.9810
    9.675    3.9073
    9.690    4.1074
    9.705    3.8336
    9.720    3.8652
    9.735    3.9284
    9.750    4.0864
    9.765    3.7809
    9.780    3.5492
    9.795    3.7493
    9.810    3.9494
    9.825    4.1917
    9.840    4.1285
    9.855    3.7177
    9.870    3.7177
    9.885    3.8020
    9.900    3.8652
    9.915    3.8231
    9.930    4.0969
    9.945    4.2654
    9.960    4.0021
    9.975    3.6019
    9.990    3.4966
   10.005    3.8547
   10.020    4.2233
   10.035    4.0337
   10.050    4.1285
   10.065    4.0758
   10.080    4.2127
   10.095    4.0126
   10.110    4.0758
   10.125    4.7815
   10.140    5.0974
   10.155    4.9184
   10.170    5.1185
   10.185    5.5398
   10.200    5.9716
   10.215    7.1195
   10.230    7.7093
   10.245    9.1101
   10.260   11.1427
   10.275   12.3223
   10.290   13.4702
   10.305   13.6493
   10.320   12.6804
   10.335   11.0795
   10.350    8.3623
   10.365    6.0032
   10.380    4.6656
   10.395    4.0653
   10.410    3.7599
   10.425    3.8336
   10.440    3.6756
   10.455    3.6651
   10.470    3.5914
   10.485    3.7599
   10.500    3.8125
   10.515    3.8231
   10.530    3.9073
   10.545    4.0232
   10.560    3.7809
   10.575    3.5703
   10.590    3.9073
   10.605    3.9600
   10.620    3.9073
   10.635    3.7915
   10.650    3.6230
   10.665    3.5703
   10.680    3.8231
   10.695    3.7177
   10.710    3.8441
   10.725    3.8757
   10.740    3.6756
   10.755    3.3807
   10.770    3.8968
   10.785    3.9179
   10.800    4.0969
   10.815    4.2127
   10.830    4.2443
   10.845    4.3497
   10.860    4.6130
   10.875    4.8131
   10.890    4.8341
   10.905    5.5187
   10.920    5.9189
   10.935    6.5613
   10.950    7.2038
   10.965    8.4044
   10.980   10.3002
   10.995   11.5534
   11.010   12.3328
   11.025   12.2801
   11.040   11.6166
   11.055   10.0369
   11.070    7.5513
   11.085    5.4239
   11.100    4.0021
   11.115    3.5282
   11.130    3.7704
   11.145    3.8863
   11.160    3.9073
   11.175    3.9810
   11.190    3.6967
   11.205    3.7704
   11.220    3.8863
   11.235    3.8547
   11.250    3.6335
   11.265    3.8863
   11.280    3.8125
   11.295    3.7283
   11.310    3.8441
   11.325    3.6756
   11.340    3.6546
   11.355    3.6546
   11.370    3.7493
   11.385    4.0442
   11.400    3.8020
   11.415    3.6967
   11.430    3.6335
   11.445    3.5914
   11.460    4.1180
   11.475    4.1601
   11.490    3.8547
   11.505    4.1285
   11.520    4.0232
   11.535    4.1917
   11.550    4.6024
   11.565    4.8447
   11.580    5.3081
   11.595    5.8452
   11.610    6.6456
   11.625    7.4566
   11.640    9.0258
   11.655   10.9110
   11.670   12.4487
   11.685   13.7230
   11.700   13.0279
   11.715   11.9853
   11.730    9.8368
   11.745    7.2565
   11.760    5.3397
   11.775    4.1706
   11.790    4.0337
   11.805    3.8863
   11.820    3.8652
   11.835    3.8020
   11.850    3.9284
   11.865    3.8020
   11.880    3.7177
   11.895    3.7072
   11.910    3.6230
   11.925    3.6440
   11.940    3.7704
   11.955    3.8968
   11.970    3.6756
   11.985    3.8968
   12.000    3.7809
   12.015    3.6756
   12.030    3.5598
   12.045    3.4439
   12.060    3.4229
   12.075    3.6124
   12.090    3.7177
   12.105    3.5176
   12.120    3.6546
   12.135    4.2654
   12.150    4.1917
   12.165    3.7493
   12.180    3.5598
   12.195    3.6335
   12.210    3.7177
   12.225    4.3286
   12.240    4.0864
   12.255    4.0653
   12.270    4.3602
   12.285    4.5392
   12.300    4.8236
   12.315    5.0342
   12.330    5.1290
   12.345    4.8025
   12.360    4.9184
   12.375    4.5919
   12.390    3.8968
   12.405    3.8863
   12.420    3.5176
   12.435    3.9284
   12.450    3.9810
   12.465    3.8125
   12.480    3.7072
   12.495    3.6230
   12.510    3.5492
   12.525    3.4650
   12.540    3.5598
   12.555    3.5703
   12.570    3.6862
   12.585    3.7072
   12.600    3.8441
   12.615    3.5598
   12.630    3.7599
   12.645    3.4229
   12.660    3.7177
   12.675    3.7177
   12.690    3.6862
   12.705    3.6230
   12.720    3.7704
   12.735    3.7599
   12.750    3.8336
   12.765    3.9705
   12.780    4.0864
   12.795    4.2759
   12.810    4.1706
   12.825    4.2338
   12.840    4.4760
   12.855    5.0553
   12.870    6.0032
   12.885    6.5719
   12.900    8.2359
   12.915    9.1732
   12.930    9.5313
   12.945    9.6893
   12.960    8.7730
   12.975    7.4460
   12.990    5.9716
   13.005    4.8552
   13.020    4.0021
   13.035    4.0758
   13.050    3.7915
   13.065    3.7177
   13.080    3.4860
   13.095    3.5492
   13.110    3.6230
   13.125    3.7599
   13.140    3.6335
   13.155    3.6651
   13.170    3.7177
   13.185    3.2859
   13.200    3.6335
   13.215    3.6124
   13.230    3.5387
   13.245    3.5176
   13.260    3.6756
   13.275    3.5071
   13.290    3.3913
   13.305    3.4755
   13.320    3.7809
   13.335    4.0758
   13.350    3.8968
   13.365    3.7177
   13.380    3.9600
   13.395    3.8441
   13.410    4.0969
   13.425    4.0337
   13.440    4.6445
   13.455    5.0869
   13.470    5.3186
   13.485    6.1295
   13.500    6.5508
   13.515    7.1933
   13.530    6.5613
   13.545    6.2981
   13.560    5.8978
   13.575    5.0764
   13.590    4.3707
   13.605    3.8020
   13.620    3.5387
   13.635    3.8968
   13.650    3.7493
   13.665    3.9600
   13.680    3.6124
   13.695    3.5598
   13.710    3.4966
   13.725    3.6756
   13.740    3.8968
   13.755    3.5176
   13.770    3.6862
   13.785    3.7809
   13.800    3.7388
   13.815    3.7388
   13.830    3.5914
   13.845    3.4544
   13.860    3.5387
   13.875    3.3913
   13.890    3.6862
   13.905    3.7493
   13.920    3.9179
   13.935    3.7072
   13.950    4.0969
   13.965    4.3707
   13.980    4.7709
   13.995    5.1817
   14.010    5.7820
   14.025    6.5298
   14.040    7.5408
   14.055    8.3623
   14.070    8.7730
   14.085    8.8994
   14.100    7.9200
   14.115    6.7720
   14.130    5.4660
   14.145    4.5708
   14.160    3.9073
   14.175    3.6124
   14.190    3.4860
   14.205    3.5914
   14.220    3.5282
   14.235    3.2754
   14.250    3.4544
   14.265    3.6862
   14.280    3.8336
   14.295    3.7177
   14.310    3.6124
   14.325    3.5071
   14.340    3.4544
   14.355    3.4123
   14.370    3.7072
   14.385    3.4755
   14.400    3.6756
   14.415    3.7283
   14.430    3.5071
   14.445    3.7599
   14.460    3.5914
   14.475    3.5176
   14.490    3.3913
   14.505    3.6230
   14.520    3.6019
   14.535    3.4229
   14.550    3.5492
   14.565    3.4755
   14.580    3.6546
   14.595    3.6967
   14.610    3.5914
   14.625    3.3175
   14.640    3.6019
   14.655    3.7283
   14.670    3.5808
   14.685    3.7493
   14.700    3.8231
   14.715    3.6440
   14.730    3.4018
   14.745    3.5914
   14.760    3.4123
   14.775    3.7915
   14.790    3.5071
   14.805    3.5598
   14.820    3.9600
   14.835    3.5282
   14.850    3.4966
   14.865    3.6440
   14.880    3.5703
   14.895    3.5176
   14.910    3.5914
   14.925    3.5808
   14.940    3.5387
   14.955    3.5282
   14.970    3.6862
   14.985    3.5071
   15.000    3.3807
   15.015    3.5282
   15.030    3.4966
   15.045    3.7599
   15.060    4.2022
   15.075    4.0337
   15.090    4.1074
   15.105    4.8552
   15.120    4.8973
   15.135    4.6761
   15.150    4.7499
   15.165    4.4760
   15.180    3.9494
   15.195    3.7599
   15.210    3.6967
   15.225    3.5492
   15.240    3.5282
   15.255    3.6546
   15.270    3.4755
   15.285    3.4123
   15.300    3.4650
   15.315    3.6440
   15.330    3.6651
   15.345    3.5176
   15.360    3.3702
   15.375    3.4966
   15.390    3.7493
   15.405    3.4966
   15.420    3.8125
   15.435    3.7177
   15.450    3.3913
   15.465    3.3386
   15.480    3.5492
   15.495    3.8020
   15.510    3.6440
   15.525    3.5598
   15.540    3.4229
   15.555    3.4650
   15.570    3.6335
   15.585    3.3597
   15.600    3.6651
   15.615    3.7177
   15.630    3.5598
   15.645    3.6124
   15.660    3.6546
   15.675    3.7915
   15.690    3.5387
   15.705    3.5703
   15.720    3.3913
   15.735    3.6230
   15.750    3.4229
   15.765    3.6756
   15.780    3.8125
   15.795    3.8547
   15.810    3.9179
   15.825    3.7072
   15.840    3.7493
   15.855    3.7388
   15.870    3.6862
   15.885    3.7388
   15.900    3.7493
   15.915    3.9600
   15.930    3.4860
   15.945    3.3807
   15.960    3.7915
   15.975    3.7388
   15.990    3.4123
   16.005    3.5703
   16.020    3.6230
   16.035    3.9179
   16.050    3.8231
   16.065    4.1496
   16.080    4.3918
   16.095    4.6551
   16.110    4.7709
   16.125    4.6761
   16.140    4.5287
   16.155    4.5392
   16.170    3.8757
   16.185    3.8441
   16.200    3.4860
   16.215    3.5808
   16.230    3.6967
   16.245    3.8020
   16.260    3.8968
   16.275    3.6124
   16.290    3.4755
   16.305    3.5914
   16.320    3.7599
   16.335    3.6546
   16.350    3.5808
   16.365    3.7072
   16.380    3.5914
   16.395    3.5071
   16.410    3.4755
   16.425    3.7704
   16.440    3.6967
   16.455    3.5598
   16.470    3.9916
   16.485    3.8547
   16.500    3.8020
   16.515    3.8652
   16.530    4.2338
   16.545    4.6235
   16.560    5.0764
   16.575    4.9500
   16.590    5.2554
   16.605    5.3186
   16.620    4.7499
   16.635    4.6551
   16.650    4.0021
   16.665    3.7177
   16.680    3.8547
   16.695    3.5914
   16.710    3.6335
   16.725    3.4544
   16.740    3.5282
   16.755    3.3175
   16.770    3.5176
   16.785    3.3281
   16.800    3.8336
   16.815    3.7388
   16.830    3.6019
   16.845    3.8336
   16.860    3.5387
   16.875    3.5282
   16.890    3.7599
   16.905    4.0864
   16.920    3.9073
   16.935    4.0653
   16.950    4.3075
   16.965    4.8341
   16.980    5.0553
   16.995    6.0558
   17.010    7.0458
   17.025    7.5619
   17.040    8.1306
   17.055    8.1938
   17.070    7.7725
   17.085    7.0669
   17.100    5.6661
   17.115    4.9184
   17.130    4.2865
   17.145    3.7283
   17.160    3.4334
   17.175    3.3807
   17.190    3.5703
   17.205    3.6230
   17.220    3.8757
   17.235    3.6546
   17.250    3.7177
   17.265    3.6651
   17.280    3.5914
   17.295    3.5703
   17.310    3.6546
   17.325    3.6019
   17.340    3.8863
   17.355    3.9916
   17.370    3.6124
   17.385    3.4755
   17.400    3.4860
   17.415    3.5598
   17.430    3.7809
   17.445    4.3497
   17.460    4.6445
   17.475    4.2970
   17.490    4.8763
   17.505    4.6024
   17.520    4.1811
   17.535    4.0548
   17.550    4.0969
   17.565    3.6546
   17.580    3.5703
   17.595    3.4544
   17.610    3.6019
   17.625    3.6124
   17.640    3.4334
   17.655    3.5492
   17.670    3.3175
   17.685    3.3702
   17.700    3.4229
   17.715    3.6862
   17.730    3.5282
   17.745    3.6756
   17.760    3.4018
   17.775    3.5492
   17.790    3.9179
   17.805    3.5703
   17.820    3.8125
   17.835    3.7072
   17.850    3.6756
   17.865    3.6862
   17.880    3.7493
   17.895    4.5708
   17.910    4.7183
   17.925    4.7815
   17.940    4.5498
   17.955    4.5498
   17.970    4.4971
   17.985    3.9705
   18.000    3.7599
   18.015    3.8125
   18.030    3.6651
   18.045    3.7177
   18.060    3.7599
   18.075    3.6335
   18.090    3.6230
   18.105    3.7599
   18.120    3.4650
   18.135    3.4966
   18.150    3.6651
   18.165    3.7283
   18.180    3.5703
   18.195    3.5703
   18.210    3.7072
   18.225    3.7809
   18.240    3.7493
   18.255    3.9600
   18.270    3.8547
   18.285    4.2443
   18.300    4.0232
   18.315    4.2338
   18.330    4.6235
   18.345    4.9289
   18.360    5.0026
   18.375    5.2238
   18.390    4.5603
   18.405    4.2759
   18.420    3.8441
   18.435    4.1601
   18.450    3.6019
   18.465    3.8863
   18.480    3.8863
   18.495    3.4860
   18.510    3.6756
   18.525    3.5282
   18.540    3.4544
   18.555    3.4334
   18.570    3.3070
   18.585    3.6651
   18.600    3.7388
   18.615    3.7177
   18.630    3.6546
   18.645    3.3070
   18.660    3.7388
   18.675    3.8020
   18.690    3.7704
   18.705    4.1496
   18.720    3.9494
   18.735    3.6756
   18.750    3.6019
   18.765    3.9494
   18.780    4.2654
   18.795    4.4866
   18.810    4.1074
   18.825    3.8652
   18.840    3.7177
   18.855    3.8125
   18.870    3.8652
   18.885    3.6019
   18.900    3.5703
   18.915    3.6967
   18.930    4.3602
   18.945    4.3391
   18.960    4.3181
   18.975    4.6551
   18.990    4.6551
   19.005    4.3707
   19.020    3.8968
   19.035    4.1917
   19.050    3.7809
   19.065    3.8336
   19.080    3.7177
   19.095    3.7072
   19.110    3.9916
   19.125    3.6335
   19.140    3.5176
   19.155    4.0442
   19.170    4.2338
   19.185    3.7388
   19.200    3.8968
   19.215    3.8652
   19.230    4.0653
   19.245    3.7177
   19.260    3.6967
   19.275    3.7388
   19.290    3.6756
   19.305    3.7177
   19.320    3.3386
   19.335    3.4966
   19.350    3.6546
   19.365    3.5071
   19.380    3.6335
   19.395    3.5387
   19.410    3.6756
   19.425    3.6124
   19.440    3.5703
   19.455    3.4123
   19.470    3.5176
   19.485    3.7599
   19.500    3.7177
   19.515    3.9179
   19.530    4.5603
   19.545    4.6761
   19.560    4.9289
   19.575    5.0553
   19.590    5.1606
   19.605    5.0342
   19.620    4.9710
   19.635    4.5392
   19.650    4.1706
   19.665    4.0442
   19.680    3.5598
   19.695    3.4334
   19.710    3.6440
   19.725    3.7072
   19.740    3.5598
   19.755    3.7599
   19.770    3.9284
   19.785    3.9179
   19.800    3.6756
   19.815    3.6019
   19.830    3.7072
   19.845    3.5492
   19.860    3.6651
   19.875    3.8652
   19.890    3.6967
   19.905    3.8441
   19.920    3.8863
   19.935    3.8757
   19.950    4.0232
   19.965    4.1917
   19.980    3.7704
   19.995    3.7704
   20.010    4.0021
   20.025    3.7283
   20.040    3.5598
   20.055    3.4966
   20.070    3.6440
   20.085    3.6335
   20.100    3.7809
   20.115    3.4966
   20.130    3.6335
   20.145    3.4860
   20.160    3.9494
   20.175    3.5492
   20.190    3.5598
   20.205    3.7704
   20.220    3.9284
   20.235    3.8441
   20.250    3.7283
   20.265    3.8336
   20.280    4.1496
   20.295    4.6761
   20.310    5.7293
   20.325    6.5508
   20.340    6.7720
   20.355    6.8878
   20.370    7.0248
   20.385    6.5087
   20.400    6.4244
   20.415    5.9505
   20.430    5.0974
   20.445    4.4023
   20.460    4.1285
   20.475    3.8020
   20.490    3.8863
   20.505    3.9600
   20.520    3.7283
   20.535    3.6124
   20.550    3.5492
   20.565    3.8441
   20.580    3.8020
   20.595    3.6440
   20.610    3.6335
   20.625    3.6862
   20.640    3.6862
   20.655    3.7599
   20.670    3.8336
   20.685    3.5808
   20.700    3.7388
   20.715    3.5808
   20.730    3.6546
   20.745    3.8863
   20.760    3.6756
   20.775    3.8125
   20.790    3.8863
   20.805    4.0021
   20.820    3.8336
   20.835    3.6967
   20.850    3.6019
   20.865    3.6967
   20.880    3.9389
   20.895    3.5282
   20.910    3.7283
   20.925    3.7388
   20.940    3.6756
   20.955    3.9073
   20.970    3.9916
   20.985    3.7072
   21.000    3.6124
   21.015    3.6440
   21.030    3.5492
   21.045    3.5703
   21.060    3.9179
   21.075    3.6124
   21.090    3.5071
   21.105    3.5914
   21.120    3.8336
   21.135    3.7493
   21.150    3.4860
   21.165    3.7493
   21.180    3.6124
   21.195    3.6967
   21.210    3.6756
   21.225    3.7704
   21.240    4.0021
   21.255    3.7915
   21.270    3.8231
   21.285    3.7177
   21.300    3.5703
   21.315    3.3807
   21.330    3.4439
   21.345    3.7704
   21.360    3.6756
   21.375    3.5071
   21.390    3.7283
   21.405    3.6967
   21.420    3.6124
   21.435    3.6124
   21.450    3.8968
   21.465    3.7388
   21.480    3.5808
   21.495    3.5914
   21.510    3.8441
   21.525    3.8231
   21.540    3.7388
   21.555    3.3597
   21.570    3.4018
   21.585    3.4018
   21.600    3.7072
   21.615    3.4966
   21.630    3.4650
   21.645    3.2438
   21.660    3.3807
   21.675    3.9284
   21.690    3.5492
   21.705    3.4544
   21.720    3.6019
   21.735    3.6756
   21.750    3.7072
   21.765    4.0969
   21.780    4.1390
   21.795    4.3707
   21.810    4.5603
   21.825    4.7183
   21.840    4.8341
   21.855    4.9500
   21.870    5.0448
   21.885    4.7499
   21.900    4.6656
   21.915    4.0442
   21.930    3.8125
   21.945    3.9389
   21.960    3.7599
   21.975    3.3386
   21.990    3.6124
   22.005    3.6230
   22.020    3.6756
   22.035    3.9179
   22.050    3.7493
   22.065    4.0126
   22.080    3.9600
   22.095    3.3702
   22.110    3.5598
   22.125    3.9810
   22.140    4.4234
   22.155    4.5498
   22.170    4.5498
   22.185    4.6656
   22.200    4.8236
   22.215    4.8868
   22.230    4.4550
   22.245    4.3813
   22.260    4.2022
   22.275    3.7599
   22.290    3.9073
   22.305    3.8125
   22.320    3.6967
   22.335    3.7072
   22.350    3.4229
   22.365    3.5492
   22.380    3.8968
   22.395    4.1601
   22.410    3.9073
   22.425    3.7704
   22.440    3.6546
   22.455    4.0232
   22.470    4.8868
   22.485    5.6240
   22.500    5.9926
   22.515    6.2349
   22.530    7.4144
   22.545    7.5408
   22.560    7.4144
   22.575    6.9616
   22.590    6.1927
   22.605    6.0769
   22.620    5.1711
   22.635    4.2443
   22.650    3.7809
   22.665    3.8863
   22.680    3.7072
   22.695    3.8757
   22.710    3.6230
   22.725    3.6335
   22.740    3.7072
   22.755    3.7388
   22.770    4.0337
   22.785    4.2127
   22.800    4.2654
   22.815    4.4655
   22.830    5.2238
   22.845    6.1927
   22.860    6.7404
   22.875    6.9932
   22.890    7.7725
   22.905    7.3618
   22.920    6.8352
   22.935    6.3823
   22.950    5.5398
   22.965    4.8447
   22.980    4.3813
   22.995    4.4128
   23.010    4.0548
   23.025    3.7599
   23.040    3.9073
   23.055    3.8125
   23.070    4.1074
   23.085    4.0758
   23.100    4.0021
   23.115    4.2549
   23.130    4.3918
   23.145    4.2865
   23.160    4.2549
   23.175    4.4655
   23.190    4.6130
   23.205    4.8447
   23.220    5.1711
   23.235    5.0764
   23.250    4.7815
   23.265    4.7815
   23.280    4.2127
   23.295    4.2338
   23.310    4.0337
   23.325    3.7072
   23.340    3.7283
   23.355    3.9179
   23.370    3.8863
   23.385    3.5282
   23.400    3.5598
   23.415    3.6756
   23.430    3.5492
   23.445    3.8125
   23.460    3.8757
   23.475    3.9705
   23.490    3.7493
   23.505    3.4650
   23.520    3.6440
   23.535    3.7493
   23.550    3.5598
   23.565    4.1180
   23.580    4.0758
   23.595    3.8441
   23.610    3.8336
   23.625    4.0442
   23.640    3.8652
   23.655    3.7809
   23.670    3.6862
   23.685    3.5176
   23.700    3.9073
   23.715    3.6230
   23.730    3.8547
   23.745    3.9389
   23.760    3.6440
   23.775    3.4860
   23.790    3.7388
   23.805    3.5598
   23.820    3.8757
   23.835    4.0442
   23.850    4.2970
   23.865    4.3497
   23.880    4.5392
   23.895    4.6867
   23.910    4.8657
   23.925    4.9605
   23.940    4.6551
   23.955    4.0758
   23.970    3.9284
   23.985    3.8547
   24.000    3.8231
   24.015    3.7599
   24.030    3.7599
   24.045    3.7283
   24.060    3.7388
   24.075    3.4123
   24.090    3.7283
   24.105    3.8757
   24.120    3.7493
   24.135    3.6335
   24.150    3.8231
   24.165    3.9494
   24.180    3.5808
   24.195    3.4334
   24.210    3.2859
   24.225    3.6756
   24.240    3.7599
   24.255    3.7177
   24.270    3.8547
   24.285    3.9073
   24.300    3.6440
   24.315    3.9073
   24.330    3.7809
   24.345    3.7493
   24.360    3.7493
   24.375    3.5914
   24.390    3.4123
   24.405    3.8652
   24.420    3.6124
   24.435    3.8968
   24.450    3.8757
   24.465    3.9600
   24.480    4.1074
   24.495    3.9179
   24.510    3.8336
   24.525    3.9073
   24.540    3.8863
   24.555    4.0653
   24.570    3.7388
   24.585    3.6967
   24.600    3.9916
   24.615    3.6124
   24.630    3.7072
   24.645    3.5914
   24.660    3.7072
   24.675    3.6862
   24.690    3.7388
   24.705    3.6440
   24.720    3.5914
   24.735    3.8757
   24.750    3.8020
   24.765    3.6651
   24.780    3.1806
   24.795    3.4123
   24.810    3.5808
   24.825    3.9284
   24.840    3.7493
   24.855    3.5808
   24.870    3.9705
   24.885    3.8547
   24.900    3.6546
   24.915    3.7493
   24.930    3.8547
   24.945    3.7599
   24.960    3.5703
   24.975    3.5703
   24.990    3.3597
   25.005    3.5071
   25.020    3.6124
   25.035    3.5914
   25.050    3.7072
   25.065    3.6335
   25.080    3.4755
   25.095    3.5703
   25.110    3.7493
   25.125    3.9916
   25.140    3.8336
   25.155    4.1074
   25.170    4.3602
   25.185    4.0864
   25.200    3.9705
   25.215    3.9179
   25.230    3.8547
   25.245    3.8863
   25.260    3.7915
   25.275    3.5703
   25.290    3.6546
   25.305    3.6335
   25.320    3.4439
   25.335    3.4650
   25.350    3.6230
   25.365    3.4334
   25.380    3.4860
   25.395    3.5071
   25.410    3.7072
   25.425    3.6967
   25.440    3.7809
   25.455    3.9179
   25.470    3.9916
   25.485    3.9073
   25.500    4.0021
   25.515    4.3391
   25.530    4.1706
   25.545    3.8336
   25.560    3.5071
   25.575    3.7388
   25.590    3.6967
   25.605    3.4966
   25.620    3.6335
   25.635    3.6124
   25.650    3.6019
   25.665    3.3913
   25.680    3.7388
   25.695    3.5176
   25.710    4.0864
   25.725    4.4550
   25.740    5.0974
   25.755    5.5608
   25.770    5.7609
   25.785    6.4876
   25.800    6.4982
   25.815    5.9294
   25.830    6.1401
   25.845    5.4871
   25.860    5.0132
   25.875    4.5182
   25.890    3.9494
   25.905    3.6651
   25.920    3.4123
   25.935    3.4018
   25.950    3.4439
   25.965    3.8441
   25.980    3.4966
   25.995    3.5282
   26.010    3.5071
   26.025    3.6756
   26.040    3.4650
   26.055    3.5071
   26.070    3.6440
   26.085    3.5387
   26.100    3.5071
   26.115    3.7177
   26.130    3.9179
   26.145    3.7072
   26.160    3.6230
   26.175    3.3913
   26.190    3.5282
   26.205    3.5598
   26.220    3.3491
   26.235    3.3913
   26.250    3.4544
   26.265    3.5387
   26.280    3.4966
   26.295    3.4755
   26.310    3.5176
   26.325    3.8968
   26.340    4.0126
   26.355    3.9494
   26.370    3.9494
   26.385    4.1390
   26.400    4.1285
   26.415    4.4339
   26.430    4.4444
   26.445    4.5076
   26.460    4.3181
   26.475    3.9600
   26.490    3.9179
   26.505    3.8020
   26.520    3.5282
   26.535    3.3597
   26.550    3.4544
   26.565    3.2438
   26.580    3.4123
   26.595    3.3070
   26.610    3.2122
   26.625    3.5176
   26.640    3.3070
   26.655    3.1912
   26.670    3.1806
   26.685    3.3597
   26.700    3.5176
   26.715    3.4018
   26.730    3.1912
   26.745    3.4755
   26.760    3.4650
   26.775    3.3807
   26.790    3.4544
   26.805    3.3597
   26.820    3.4860
   26.835    3.4966
   26.850    3.4650
   26.865    3.4439
   26.880    3.4966
   26.895    3.4334
   26.910    3.7493
   26.925    3.6756
   26.940    3.8547
   26.955    4.1285
   26.970    4.3918
   26.985    4.9184
   27.000    4.4760
   27.015    4.7920
   27.030    4.5392
   27.045    4.2022
   27.060    4.2338
   27.075    3.8652
   27.090    4.0758
   27.105    3.8020
   27.120    3.4229
   27.135    3.8441
   27.150    3.5387
   27.165    3.6124
   27.180    3.5071
   27.195    3.4755
   27.210    3.4966
   27.225    3.3491
   27.240    3.1912
   27.255    3.1280
   27.270    3.3491
   27.285    3.5176
   27.300    3.7388
   27.315    3.3281
   27.330    3.4860
   27.345    3.6440
   27.360    3.4650
   27.375    3.4439
   27.390    3.4334
   27.405    3.4650
   27.420    3.4755
   27.435    3.5914
   27.450    3.4966
   27.465    3.2965
   27.480    3.6019
   27.495    3.6019
   27.510    3.8441
   27.525    3.8652
   27.540    4.2654
   27.555    4.0126
   27.570    4.2443
   27.585    4.2549
   27.600    4.3813
   27.615    4.2127
   27.630    4.0126
   27.645    4.1601
   27.660    3.8231
   27.675    3.4229
   27.690    3.2543
   27.705    3.3070
   27.720    3.4966
   27.735    3.5703
   27.750    3.4860
   27.765    3.4229
   27.780    3.4439
   27.795    3.5387
   27.810    3.7704
   27.825    3.8020
   27.840    3.8547
   27.855    3.7177
   27.870    3.8125
   27.885    4.1180
   27.900    4.1390
   27.915    4.2443
   27.930    4.3602
   27.945    4.2865
   27.960    4.3181
   27.975    4.4234
   27.990    4.1390
   28.005    4.2127
   28.020    4.3707
   28.035    4.3391
   28.050    4.1180
   28.065    3.5914
   28.080    3.8863
   28.095    4.0969
   28.110    4.3813
   28.125    4.3918
   28.140    4.6445
   28.155    4.7920
   28.170    4.7604
   28.185    4.5182
   28.200    4.4023
   28.215    4.1180
   28.230    3.8020
   28.245    3.8336
   28.260    3.6651
   28.275    3.5387
   28.290    3.3281
   28.305    3.4860
   28.320    3.5282
   28.335    3.4439
   28.350    3.4229
   28.365    3.7915
   28.380    4.1390
   28.395    4.3497
   28.410    4.4128
   28.425    4.7499
   28.440    4.4444
   28.455    4.4866
   28.470    4.3075
   28.485    3.9600
   28.500    3.9600
   28.515    3.7283
   28.530    3.5598
   28.545    3.4018
   28.560    3.3491
   28.575    3.5703
   28.590    3.5492
   28.605    3.3491
   28.620    3.3175
   28.635    3.2543
   28.650    3.1912
   28.665    3.4544
   28.680    3.5808
   28.695    3.4650
   28.710    3.4018
   28.725    3.2965
   28.740    3.5703
   28.755    3.2227
   28.770    3.1174
   28.785    3.3491
   28.800    3.2227
   28.815    3.2649
   28.830    3.2438
   28.845    3.2543
   28.860    3.1912
   28.875    3.2333
   28.890    3.6967
   28.905    3.8968
   28.920    3.9600
   28.935    4.1811
   28.950    4.2549
   28.965    4.1390
   28.980    4.2654
   28.995    4.2549
   29.010    3.6967
   29.025    3.9284
   29.040    3.6019
   29.055    3.4755
   29.070    3.2438
   29.085    3.3070
   29.100    3.4439
   29.115    3.4229
   29.130    3.3175
   29.145    3.4966
   29.160    3.6862
   29.175    3.6019
   29.190    3.7704
   29.205    3.8125
   29.220    3.8441
   29.235    3.6967
   29.250    4.2338
   29.265    4.1285
   29.280    4.0864
   29.295    4.2338
   29.310    3.9916
   29.325    3.9810
   29.340    3.6546
   29.355    3.8125
   29.370    3.6546
   29.385    3.5176
   29.400    3.5071
   29.415    3.2333
   29.430    3.3913
   29.445    3.4755
   29.460    3.4123
   29.475    3.4650
   29.490    3.5703
   29.505    3.2543
   29.520    3.4123
   29.535    3.3491
   29.550    3.4229
   29.565    3.1596
   29.580    2.9910
   29.595    3.0016
   29.610    3.4229
   29.625    3.3175
   29.640    3.2227
   29.655    3.0648
   29.670    2.9805
   29.685    3.4439
   29.700    3.4123
   29.715    3.4229
   29.730    3.7283
   29.745    3.7599
   29.760    3.7809
   29.775    3.5387
   29.790    3.8125
   29.805    3.6756
   29.820    3.5071
   29.835    3.7493
   29.850    3.4966
   29.865    3.7493
   29.880    3.4650
   29.895    3.6862
   29.910    3.4544
   29.925    3.4650
   29.940    3.0964
   29.955    3.2543
   29.970    3.1280
   29.985    3.2543
   30.000    3.3597
   30.015    3.3491
   30.030    3.5282
   30.045    3.4544
   30.060    3.2227
   30.075    3.4860
   30.090    3.5282
   30.105    3.4229
   30.120    3.6756
   30.135    3.2438
   30.150    3.1280
   30.165    3.2649
   30.180    3.2649
   30.195    3.3386
   30.210    3.5914
   30.225    3.5387
   30.240    3.4229
   30.255    3.4755
   30.270    3.4755
   30.285    3.2017
   30.300    3.4018
   30.315    3.6440
   30.330    3.1806
   30.345    2.8963
   30.360    3.4860
   30.375    3.6546
   30.390    3.5598
   30.405    3.4123
   30.420    3.1280
   30.435    3.1280
   30.450    3.2017
   30.465    3.3913
   30.480    3.2017
   30.495    3.2017
   30.510    3.3070
   30.525    3.6862
   30.540    3.6967
   30.555    3.7493
   30.570    3.7915
   30.585    3.7072
   30.600    3.7809
   30.615    3.7283
   30.630    3.6967
   30.645    3.5914
   30.660    3.4966
   30.675    3.2227
   30.690    3.3281
   30.705    3.5598
   30.720    3.2543
   30.735    3.1701
   30.750    3.1806
   30.765    3.1069
   30.780    3.1174
   30.795    3.0437
   30.810    3.1701
   30.825    3.2754
   30.840    3.4650
   30.855    3.4650
   30.870    3.4650
   30.885    3.2543
   30.900    3.2859
   30.915    3.3597
   30.930    3.3281
   30.945    3.1280
   30.960    3.2122
   30.975    3.4123
   30.990    3.2017
   31.005    3.2965
   31.020    3.3386
   31.035    3.6019
   31.050    3.4229
   31.065    3.3175
   31.080    3.2649
   31.095    3.3175
   31.110    3.3175
   31.125    3.3175
   31.140    2.9910
   31.155    3.1385
   31.170    3.2859
   31.185    3.3175
   31.200    3.2649
   31.215    3.4123
   31.230    3.1385
   31.245    3.1385
   31.260    3.3597
   31.275    3.0226
   31.290    3.3386
   31.305    3.1701
   31.320    3.4123
   31.335    3.4650
   31.350    3.5703
   31.365    3.9494
   31.380    3.8441
   31.395    3.8231
   31.410    3.6862
   31.425    3.7599
   31.440    3.2543
   31.455    3.1174
   31.470    3.3807
   31.485    3.3702
   31.500    3.2227
   31.515    3.4018
   31.530    3.1912
   31.545    3.4439
   31.560    3.3597
   31.575    3.2017
   31.590    3.2333
   31.605    3.4860
   31.620    3.2649
   31.635    3.3491
   31.650    3.6651
   31.665    3.5492
   31.680    3.3597
   31.695    3.3702
   31.710    3.3597
   31.725    3.4018
   31.740    3.4966
   31.755    3.6335
   31.770    3.5282
   31.785    3.7072
   31.800    3.4544
   31.815    3.6440
   31.830    3.5492
   31.845    3.6335
   31.860    3.5703
   31.875    3.7809
   31.890    3.6862
   31.905    3.6651
   31.920    3.2859
   31.935    3.5176
   31.950    3.6335
   31.965    3.4229
   31.980    3.4966
   31.995    3.7283
   32.010    4.0864
   32.025    4.0864
   32.040    4.5919
   32.055    4.7393
   32.070    5.1922
   32.085    5.0132
   32.100    4.9605
   32.115    4.8236
   32.130    4.6445
   32.145    4.2127
   32.160    4.0548
   32.175    3.8125
   32.190    3.6967
   32.205    3.4334
   32.220    3.4229
   32.235    3.1701
   32.250    3.0753
   32.265    3.2438
   32.280    3.2543
   32.295    3.2965
   32.310    3.2754
   32.325    3.3491
   32.340    3.3491
   32.355    3.3913
   32.370    3.2333
   32.385    3.0648
   32.400    3.0648
   32.415    3.2543
   32.430    3.1596
   32.445    3.1490
   32.460    3.3807
   32.475    3.4229
   32.490    2.8963
   32.505    3.1280
   32.520    3.2965
   32.535    3.1806
   32.550    3.1174
   32.565    3.0858
   32.580    3.3702
   32.595    3.2965
   32.610    3.3913
   32.625    3.2649
   32.640    3.1596
   32.655    3.3070
   32.670    3.2333
   32.685    3.2017
   32.700    3.2122
   32.715    3.1174
   32.730    3.2965
   32.745    3.1490
   32.760    3.2649
   32.775    3.5282
   32.790    3.0332
   32.805    3.1490
   32.820    3.2438
   32.835    3.4755
   32.850    3.4860
   32.865    3.8863
   32.880    3.5914
   32.895    3.7809
   32.910    3.6967
   32.925    3.4755
   32.940    3.2754
   32.955    3.1701
   32.970    3.3070
   32.985    3.1385
   33.000    3.0226
   33.015    3.2122
   33.030    3.2965
   33.045    3.0332
   33.060    3.2227
   33.075    3.1912
   33.090    3.0858
   33.105    2.8541
   33.120    2.9595
   33.135    3.0437
   33.150    2.9805
   33.165    3.0542
   33.180    3.0964
   33.195    3.2965
   33.210    3.1280
   33.225    3.3702
   33.240    3.2227
   33.255    3.2017
   33.270    3.1596
   33.285    3.0858
   33.300    2.9700
   33.315    3.1280
   33.330    3.0226
   33.345    3.0332
   33.360    3.3281
   33.375    3.1596
   33.390    2.9700
   33.405    3.1701
   33.420    3.0332
   33.435    3.3807
   33.450    3.2017
   33.465    2.9595
   33.480    2.9595
   33.495    3.0542
   33.510    3.0437
   33.525    3.0964
   33.540    3.2017
   33.555    3.0753
   33.570    3.5176
   33.585    3.4229
   33.600    3.3597
   33.615    3.2754
   33.630    2.9805
   33.645    3.1701
   33.660    3.1912
   33.675    3.3175
   33.690    3.1385
   33.705    3.1280
   33.720    3.3597
   33.735    3.6230
   33.750    3.6230
   33.765    3.8547
   33.780    4.0442
   33.795    4.1706
   33.810    4.1074
   33.825    4.0758
   33.840    4.2549
   33.855    4.3707
   33.870    4.2127
   33.885    3.6440
   33.900    3.9916
   33.915    3.7177
   33.930    3.6124
   33.945    3.4544
   33.960    3.7283
   33.975    3.4650
   33.990    3.0121
   34.005    3.2543
   34.020    3.2965
   34.035    2.9805
   34.050    3.1069
   34.065    3.1806
   34.080    3.1174
   34.095    3.1174
   34.110    3.2754
   34.125    3.1701
   34.140    3.3281
   34.155    3.0648
   34.170    3.2859
   34.185    3.1806
   34.200    3.2017
   34.215    3.0858
   34.230    3.0753
   34.245    3.2754
   34.260    3.3807
   34.275    3.0858
   34.290    3.2649
   34.305    3.3175
   34.320    3.2333
   34.335    3.2227
   34.350    2.9279
   34.365    3.0332
   34.380    3.1069
   34.395    2.9910
   34.410    2.8752
   34.425    2.9700
   34.440    2.8436
   34.455    2.9384
   34.470    3.1280
   34.485    3.0858
   34.500    3.0437
   34.515    2.9595
   34.530    3.0858
   34.545    3.0648
   34.560    3.1912
   34.575    3.0648
   34.590    3.1069
   34.605    3.0121
   34.620    2.9068
   34.635    3.1385
   34.650    2.8436
   34.665    2.8225
   34.680    3.2649
   34.695    3.0542
   34.710    2.9910
   34.725    3.0753
   34.740    3.4544
   34.755    3.2438
   34.770    3.2227
   34.785    3.1385
   34.800    3.3491
   34.815    3.5387
   34.830    2.9489
   34.845    3.2438
   34.860    3.2649
   34.875    3.1912
   34.890    2.5382
   34.905    2.6962
   34.920    3.1385
   34.935    2.8436
   34.950    2.9700
   34.965    2.8857
   34.980    2.7067
   34.995    2.8331
   35.010    3.0648
   35.025    3.0121
   35.040    2.8225
   35.055    2.7804
   35.070    3.0226
   35.085    3.0964
   35.100    2.8647
   35.115    2.9805
   35.130    3.1490
   35.145    2.8015
   35.160    2.9279
   35.175    3.1701
   35.190    3.2122
   35.205    2.9384
   35.220    3.0121
   35.235    3.1701
   35.250    3.2333
   35.265    3.0332
   35.280    2.9700
   35.295    2.9805
   35.310    3.1596
   35.325    2.7804
   35.340    2.8436
   35.355    2.9384
   35.370    3.0226
   35.385    2.7804
   35.400    2.7383
   35.415    3.2438
   35.430    3.0226
   35.445    2.9068
   35.460    2.8436
   35.475    3.0016
   35.490    3.0542
   35.505    3.1806
   35.520    2.9595
   35.535    2.9068
   35.550    2.8541
   35.565    2.7699
   35.580    3.2122
   35.595    3.1069
   35.610    3.3913
   35.625    3.3070
   35.640    2.9595
   35.655    3.0437
   35.670    3.2649
   35.685    3.1596
   35.700    3.1280
   35.715    2.9595
   35.730    3.1174
   35.745    3.1701
   35.760    3.0226
   35.775    3.2859
   35.790    3.2227
   35.805    2.8225
   35.820    2.7593
   35.835    3.0753
   35.850    3.0542
   35.865    3.0121
   35.880    3.2438
   35.895    3.0226
   35.910    3.2122
   35.925    3.0332
   35.940    3.1806
   35.955    3.2543
   35.970    2.8647
   35.985    2.8647
   36.000    3.0121
   36.015    3.1385
   36.030    3.0542
   36.045    2.6119
   36.060    2.7488
   36.075    3.0226
   36.090    3.0648
   36.105    2.9279
   36.120    2.8541
   36.135    3.0121
   36.150    2.8331
   36.165    3.1701
   36.180    3.0753
   36.195    2.9384
   36.210    3.0858
   36.225    2.8752
   36.240    2.9173
   36.255    2.9700
   36.270    2.9068
   36.285    2.9489
   36.300    2.8963
   36.315    2.9279
   36.330    2.8647
   36.345    2.8120
   36.360    2.6646
   36.375    2.8015
   36.390    3.1490
   36.405    3.2438
   36.420    3.3913
   36.435    3.0964
   36.450    2.8120
   36.465    2.9595
   36.480    2.8963
   36.495    2.8436
   36.510    2.8752
   36.525    2.9910
   36.540    3.1596
   36.555    3.2122
   36.570    3.2754
   36.585    3.5914
   36.600    3.1280
   36.615    3.4018
   36.630    3.2649
   36.645    2.9805
   36.660    3.1596
   36.675    3.0542
   36.690    3.0437
   36.705    3.2227
   36.720    3.3070
   36.735    2.9805
   36.750    2.7593
   36.765    2.9173
   36.780    3.0226
   36.795    2.8120
   36.810    2.8541
   36.825    2.9805
   36.840    2.8752
   36.855    2.7067
   36.870    2.9384
   36.885    2.8331
   36.900    3.0121
   36.915    3.0542
   36.930    3.1280
   36.945    3.2122
   36.960    2.8857
   36.975    3.0332
   36.990    3.1385
   37.005    3.1174
   37.020    3.1490
   37.035    2.9910
   37.050    3.2122
   37.065    3.3913
   37.080    3.3175
   37.095    3.1596
   37.110    3.0648
   37.125    2.9279
   37.140    2.7488
   37.155    3.3597
   37.170    3.2649
   37.185    3.1280
   37.200    2.7067
   37.215    2.8015
   37.230    3.0016
   37.245    3.1596
   37.260    2.7278
   37.275    2.9279
   37.290    2.8015
   37.305    2.8331
   37.320    2.6856
   37.335    2.6224
   37.350    2.9279
   37.365    2.8120
   37.380    2.9068
   37.395    2.9595
   37.410    2.7699
   37.425    3.0332
   37.440    3.1385
   37.455    2.9595
   37.470    3.1385
   37.485    3.0016
   37.500    2.9595
   37.515    3.0964
   37.530    3.0964
   37.545    3.0332
   37.560    2.9489
   37.575    2.7488
   37.590    2.6962
   37.605    2.9173
   37.620    2.7067
   37.635    3.0437
   37.650    3.1490
   37.665    2.8647
   37.680    2.9700
   37.695    2.6962
   37.710    3.0332
   37.725    3.2122
   37.740    2.9279
   37.755    3.2859
   37.770    2.9068
   37.785    3.2543
   37.800    3.1174
   37.815    3.0753
   37.830    3.1280
   37.845    2.8647
   37.860    3.0964
   37.875    2.7488
   37.890    3.2649
   37.905    3.2122
   37.920    3.1806
   37.935    3.0542
   37.950    2.8752
   37.965    2.9595
   37.980    2.9910
   37.995    3.0437
   38.010    3.2754
   38.025    3.0437
   38.040    2.9173
   38.055    2.7804
   38.070    2.9384
   38.085    2.9910
   38.100    2.8857
   38.115    3.1280
   38.130    2.9700
   38.145    2.9068
   38.160    2.8541
   38.175    2.9805
   38.190    2.7593
   38.205    2.8541
   38.220    2.9068
   38.235    2.8015
   38.250    2.9910
   38.265    2.8436
   38.280    2.7278
   38.295    2.8225
   38.310    2.9068
   38.325    2.8647
   38.340    3.0016
   38.355    2.8752
   38.370    2.8225
   38.385    2.9068
   38.400    3.0858
   38.415    2.8541
   38.430    2.7488
   38.445    2.9279
   38.460    2.7383
   38.475    2.9173
   38.490    2.9279
   38.505    3.0858
   38.520    2.9595
   38.535    2.9595
   38.550    3.2965
   38.565    3.1385
   38.580    3.1490
   38.595    3.3491
   38.610    3.1280
   38.625    3.4860
   38.640    3.2122
   38.655    3.2122
   38.670    3.1912
   38.685    2.9384
   38.700    3.0753
   38.715    2.8541
   38.730    2.8752
   38.745    2.8331
   38.760    2.9489
   38.775    3.0332
   38.790    2.9700
   38.805    2.7909
   38.820    2.7067
   38.835    2.8857
   38.850    2.9279
   38.865    2.7804
   38.880    2.7699
   38.895    2.7067
   38.910    2.7593
   38.925    2.9489
   38.940    2.7593
   38.955    2.9068
   38.970    2.7488
   38.985    2.7172
   39.000    2.7488
   39.015    2.7593
   39.030    2.7699
   39.045    2.9173
   39.060    2.7067
   39.075    2.8857
   39.090    2.8225
   39.105    3.1280
   39.120    3.1280
   39.135    3.1490
   39.150    2.9910
   39.165    3.1701
   39.180    2.8963
   39.195    2.9700
   39.210    3.1280
   39.225    2.8541
   39.240    2.9384
   39.255    3.0226
   39.270    3.1490
   39.285    2.8857
   39.300    3.0858
   39.315    3.0648
   39.330    2.6646
   39.345    2.6330
   39.360    2.9068
   39.375    3.0226
   39.390    2.9384
   39.405    3.1385
   39.420    3.0016
   39.435    2.8015
   39.450    3.0016
   39.465    2.7278
   39.480    2.8120
   39.495    2.8857
   39.510    2.8752
   39.525    2.9805
   39.540    2.6962
   39.555    3.0753
   39.570    2.9279
   39.585    2.9068
   39.600    3.0437
   39.615    3.0016
   39.630    3.0648
   39.645    3.0332
   39.660    2.9595
   39.675    2.9700
   39.690    3.0753
   39.705    3.1596
   39.720    3.0016
   39.735    2.7278
   39.750    2.5698
   39.765    2.9384
   39.780    3.1912
   39.795    2.9805
   39.810    2.9173
   39.825    3.1385
   39.840    3.0542
   39.855    2.8857
   39.870    3.2122
   39.885    3.0226
   39.900    2.9489
   39.915    2.8436
   39.930    2.8752
   39.945    2.9489
   39.960    2.9068
   39.975    3.0016
   39.990    2.9595
