    1.500   14.0284
    1.515   14.3865
    1.530   13.6809
    1.545   14.0179
    1.560   13.8389
    1.575   13.2385
    1.590   12.7541
    1.605   13.3544
    1.620   12.9226
    1.635   12.7330
    1.650   11.8799
    1.665   11.9747
    1.680   11.5850
    1.695   11.3323
    1.710   11.9010
    1.725   11.2270
    1.740   11.6377
    1.755   11.2586
    1.770   11.0163
    1.785   10.6266
    1.800   10.3002
    1.815    9.9631
    1.830   10.0053
    1.845   10.2791
    1.860    9.9631
    1.875    9.6893
    1.890    9.4787
    1.905   10.2159
    1.920    9.8789
    1.935    9.3523
    1.950    9.1838
    1.965    9.2786
    1.980    8.7730
    1.995    9.0363
    2.010    8.8994
    2.025    8.9205
    2.040    8.9731
    2.055    8.3623
    2.070    8.2675
    2.085    8.1727
    2.100    8.0674
    2.115    7.8673
    2.130    8.0253
    2.145    7.7409
    2.160    8.3096
    2.175    8.3518
    2.190    7.9621
    2.205    8.1201
    2.220    7.7199
    2.235    7.6461
    2.250    7.7620
    2.265    7.7514
    2.280    7.5303
    2.295    7.2670
    2.310    7.4987
    2.325    7.4355
    2.340    7.0879
    2.355    6.9616
    2.370    6.8352
    2.385    6.8562
    2.400    7.3723
    2.415    7.2880
    2.430    6.7299
    2.445    6.6140
    2.460    6.8246
    2.475    6.7299
    2.490    6.8668
    2.505    6.7509
    2.520    6.8246
    2.535    6.9405
    2.550    6.6877
    2.565    6.3718
    2.580    6.3191
    2.595    6.3086
    2.610    6.4244
    2.625    6.4666
    2.640    6.3928
    2.655    6.5403
    2.670    6.4982
    2.685    6.4666
    2.700    6.4139
    2.715    6.1085
    2.730    6.2559
    2.745    6.1822
    2.760    5.7293
    2.775    6.0348
    2.790    5.9716
    2.805    6.2138
    2.820    6.0558
    2.835    6.1822
    2.850    6.2349
    2.865    6.0348
    2.880    6.0979
    2.895    6.5508
    2.910    5.8662
    2.925    5.6661
    2.940    6.3296
    2.955    6.1190
    2.970    5.7188
    2.985    5.5819
    3.000    5.4766
    3.015    5.9189
    3.030    6.1085
    3.045    5.7715
    3.060    5.5292
    3.075    5.5924
    3.090    5.6029
    3.105    5.7399
    3.120    5.5714
    3.135    5.9505
    3.150    5.8662
    3.165    5.6872
    3.180    5.7083
    3.195    5.5608
    3.210    5.5187
    3.225    5.7188
    3.240    5.7083
    3.255    5.1817
    3.270    5.5398
    3.285    5.5398
    3.300    5.6767
    3.315    5.8768
    3.330    5.3712
    3.345    5.4450
    3.360    5.4555
    3.375    5.4239
    3.390    5.4239
    3.405    5.6451
    3.420    5.3818
    3.435    5.7504
    3.450    5.5082
    3.465    5.4976
    3.480    5.5187
    3.495    5.5924
    3.510    5.4555
    3.525    5.4134
    3.540    5.2238
    3.555    5.3081
    3.570    5.1711
    3.585    5.4555
    3.600    5.7820
    3.615    5.4028
    3.630    5.3712
    3.645    5.0237
    3.660    5.1711
    3.675    5.7609
    3.690    5.2449
    3.705    4.9710
    3.720    4.8341
    3.735    5.2027
    3.750    5.2975
    3.765    5.3607
    3.780    5.4344
    3.795    5.4344
    3.810    5.3712
    3.825    5.3923
    3.840    5.1711
    3.855    4.8973
    3.870    5.2027
    3.885    5.2870
    3.900    5.2870
    3.915    5.0869
    3.930    5.4871
    3.945    5.0342
    3.960    5.0026
    3.975    5.1290
    3.990    4.9710
    4.005    5.2870
    4.020    5.1922
    4.035    4.8763
    4.050    5.2238
    4.065    5.2870
    4.080    5.4344
    4.095    4.9921
    4.110    5.3291
    4.125    5.3818
    4.140    5.1290
    4.155    5.1606
    4.170    5.1922
    4.185    5.1080
    4.200    4.9184
    4.215    5.2975
    4.230    5.2343
    4.245    5.1711
    4.260    5.3186
    4.275    5.2449
    4.290    4.8447
    4.305    4.9710
    4.320    5.0026
    4.335    5.0448
    4.350    5.2659
    4.365    5.1606
    4.380    4.8763
    4.395    5.0764
    4.410    4.8131
    4.425    4.9500
    4.440    5.0869
    4.455    5.0553
    4.470    5.1501
    4.485    4.9605
    4.500    5.1501
    4.515    5.1922
    4.530    4.8763
    4.545    5.1080
    4.560    4.8657
    4.575    5.4344
    4.590    5.0974
    4.605    5.0974
    4.620    5.0764
    4.635    4.6235
    4.650    4.6867
    4.665    5.1290
    4.680    5.1606
    4.695    4.8657
    4.710    5.2027
    4.725    5.1290
    4.740    5.0026
    4.755    4.8341
    4.770    4.7393
    4.785    4.7077
    4.800    4.9394
    4.815    4.8236
    4.830    4.9605
    4.845    4.9500
    4.860    4.9078
    4.875    4.9500
    4.890    4.9710
    4.905    4.9184
    4.920    4.9816
    4.935    4.7604
    4.950    5.2133
    4.965    5.4660
    4.980    5.0132
    4.995    5.1080
    5.010    4.9921
    5.025    5.4028
    5.040    5.2343
    5.055    5.0448
    5.070    5.1501
    5.085    4.9816
    5.100    5.0448
    5.115    4.8763
    5.130    4.9710
    5.145    4.8025
    5.160    4.5919
    5.175    5.1185
    5.190    4.8973
    5.205    5.0026
    5.220    5.2027
    5.235    5.0869
    5.250    4.8131
    5.265    4.6445
    5.280    4.8341
    5.295    5.0237
    5.310    4.7183
    5.325    4.8341
    5.340    5.0658
    5.355    4.8236
    5.370    5.2238
    5.385    4.8552
    5.400    5.0026
    5.415    5.2343
    5.430    5.2027
    5.445    4.8868
    5.460    4.8447
    5.475    4.9289
    5.490    4.9605
    5.505    4.8868
    5.520    4.8131
    5.535    4.6130
    5.550    4.8341
    5.565    4.9710
    5.580    4.7920
    5.595    4.9500
    5.610    5.0342
    5.625    4.8025
    5.640    4.9078
    5.655    5.1080
    5.670    4.7604
    5.685    4.8447
    5.700    4.9394
    5.715    5.4028
    5.730    5.6767
    5.745    4.8552
    5.760    4.8973
    5.775    5.0448
    5.790    5.2343
    5.805    4.7920
    5.820    4.7499
    5.835    4.7393
    5.850    4.7499
    5.865    4.9078
    5.880    4.9289
    5.895    4.8447
    5.910    4.8131
    5.925    4.9921
    5.940    5.2027
    5.955    4.8973
    5.970    4.9289
    5.985    4.9816
    6.000    5.1185
    6.015    4.6972
    6.030    4.6340
    6.045    4.8763
    6.060    5.0342
    6.075    4.7183
    6.090    4.4444
    6.105    4.5708
    6.120    5.0132
    6.135    5.0026
    6.150    5.2133
    6.165    4.7077
    6.180    4.8131
    6.195    4.8025
    6.210    4.9710
    6.225    4.8973
    6.240    5.0342
    6.255    4.8447
    6.270    4.9605
    6.285    5.0132
    6.300    5.1080
    6.315    5.2027
    6.330    5.0764
    6.345    5.0764
    6.360    4.8552
    6.375    4.8763
    6.390    5.2133
    6.405    5.0974
    6.420    4.9078
    6.435    4.8552
    6.450    4.7183
    6.465    5.1395
    6.480    5.1080
    6.495    5.1185
    6.510    4.8236
    6.525    4.7288
    6.540    4.7815
    6.555    5.0869
    6.570    4.9710
    6.585    4.8973
    6.600    5.0974
    6.615    5.0132
    6.630    4.8552
    6.645    4.8552
    6.660    5.3397
    6.675    4.9710
    6.690    5.2975
    6.705    4.7709
    6.720    5.0658
    6.735    4.8657
    6.750    4.9605
    6.765    4.8131
    6.780    4.9605
    6.795    5.0553
    6.810    4.9394
    6.825    4.8657
    6.840    5.0237
    6.855    5.1080
    6.870    5.4555
    6.885    4.6656
    6.900    4.8763
    6.915    5.1817
    6.930    5.1290
    6.945    4.8236
    6.960    5.1606
    6.975    5.1606
    6.990    4.8025
    7.005    4.9078
    7.020    5.2133
    7.035    5.1290
    7.050    5.1185
    7.065    5.2449
    7.080    5.0132
    7.095    5.0132
    7.110    5.2659
    7.125    5.3818
    7.140    5.2870
    7.155    4.8236
    7.170    4.8447
    7.185    4.5287
    7.200    4.9184
    7.215    5.1711
    7.230    5.3186
    7.245    5.3607
    7.260    5.4028
    7.275    5.2765
    7.290    4.7815
    7.305    4.8341
    7.320    4.9605
    7.335    4.3181
    7.350    4.9078
    7.365    5.1922
    7.380    5.0026
    7.395    4.8447
    7.410    4.8236
    7.425    5.0132
    7.440    4.9184
    7.455    5.2343
    7.470    5.2870
    7.485    5.2027
    7.500    5.1817
    7.515    5.2343
    7.530    5.2659
    7.545    5.1395
    7.560    5.1501
    7.575    4.7920
    7.590    5.3081
    7.605    5.1817
    7.620    5.0237
    7.635    5.0658
    7.650    5.0869
    7.665    5.4028
    7.680    4.9394
    7.695    5.0342
    7.710    5.2870
    7.725    4.9921
    7.740    4.9605
    7.755    5.1817
    7.770    4.9816
    7.785    5.1080
    7.800    4.9078
    7.815    4.8552
    7.830    4.7183
    7.845    4.8341
    7.860    5.2027
    7.875    4.8131
    7.890    4.9500
    7.905    5.4344
    7.920    5.2238
    7.935    5.0237
    7.950    5.0764
    7.965    5.2343
    7.980    5.0974
    7.995    5.0869
    8.010    4.9289
    8.025    5.0448
    8.040    5.1817
    8.055    5.3186
    8.070    5.0658
    8.085    5.0448
    8.100    5.0658
    8.115    4.7183
    8.130    4.7077
    8.145    5.3607
    8.160    5.4871
    8.175    5.4660
    8.190    5.2659
    8.205    5.1922
    8.220    5.0974
    8.235    5.2975
    8.250    5.1817
    8.265    5.3502
    8.280    5.3818
    8.295    4.8763
    8.310    4.6130
    8.325    5.1185
    8.340    5.3923
    8.355    5.2659
    8.370    5.2659
    8.385    4.8657
    8.400    5.1606
    8.415    5.0764
    8.430    4.8868
    8.445    4.8552
    8.460    5.1711
    8.475    5.2133
    8.490    5.1290
    8.505    5.3081
    8.520    5.4976
    8.535    4.9500
    8.550    4.8868
    8.565    5.1606
    8.580    5.1711
    8.595    5.0764
    8.610    5.4555
    8.625    5.2870
    8.640    5.2554
    8.655    5.2133
    8.670    5.4028
    8.685    5.7293
    8.700    5.2027
    8.715    4.8868
    8.730    5.4660
    8.745    5.2975
    8.760    5.1922
    8.775    5.5608
    8.790    5.2975
    8.805    5.7715
    8.820    5.2975
    8.835    5.2870
    8.850    5.4028
    8.865    5.0237
    8.880    5.4239
    8.895    5.4450
    8.910    5.2133
    8.925    5.2975
    8.940    5.2975
    8.955    5.0658
    8.970    5.0237
    8.985    4.9289
    9.000    5.1185
    9.015    5.3186
    9.030    5.1817
    9.045    5.0553
    9.060    5.6556
    9.075    5.2975
    9.090    5.2765
    9.105    5.2027
    9.120    5.1817
    9.135    5.3186
    9.150    5.5082
    9.165    5.0342
    9.180    5.2343
    9.195    5.0869
    9.210    5.1080
    9.225    5.4028
    9.240    4.9605
    9.255    5.4344
    9.270    5.3186
    9.285    5.1501
    9.300    5.1711
    9.315    4.7288
    9.330    4.9816
    9.345    4.6972
    9.360    4.9921
    9.375    4.9605
    9.390    4.8236
    9.405    5.4239
    9.420    5.1711
    9.435    5.1817
    9.450    5.0658
    9.465    5.2133
    9.480    5.3712
    9.495    5.0553
    9.510    5.4134
    9.525    5.2343
    9.540    5.2133
    9.555    5.1185
    9.570    4.8763
    9.585    5.0553
    9.600    5.3502
    9.615    5.2659
    9.630    5.3081
    9.645    5.2133
    9.660    5.2133
    9.675    4.9500
    9.690    5.2765
    9.705    5.1290
    9.720    4.8763
    9.735    4.8025
    9.750    4.8973
    9.765    5.2238
    9.780    4.9605
    9.795    5.0132
    9.810    5.0974
    9.825    4.8236
    9.840    4.6972
    9.855    5.2554
    9.870    5.0342
    9.885    5.0448
    9.900    5.1185
    9.915    5.0658
    9.930    5.1606
    9.945    5.2765
    9.960    5.5082
    9.975    5.1501
    9.990    5.2975
   10.005    5.1395
   10.020    5.1922
   10.035    5.1922
   10.050    5.0237
   10.065    4.7604
   10.080    5.0974
   10.095    5.5082
   10.110    5.3923
   10.125    5.3081
   10.140    5.0869
   10.155    5.1711
   10.170    5.2870
   10.185    5.1711
   10.200    5.3818
   10.215    5.0026
   10.230    5.2870
   10.245    5.1080
   10.260    5.1290
   10.275    4.9078
   10.290    4.7393
   10.305    5.0342
   10.320    5.1395
   10.335    4.7183
   10.350    5.3607
   10.365    5.2027
   10.380    4.9289
   10.395    4.9500
   10.410    4.9394
   10.425    4.9184
   10.440    4.9500
   10.455    5.0237
   10.470    5.2659
   10.485    5.0869
   10.500    4.9394
   10.515    4.9078
   10.530    5.1817
   10.545    5.0132
   10.560    5.2765
   10.575    4.9921
   10.590    5.1606
   10.605    4.6867
   10.620    5.2133
   10.635    5.0869
   10.650    5.2027
   10.665    4.9500
   10.680    5.4028
   10.695    4.9184
   10.710    5.1501
   10.725    4.6340
   10.740    4.7709
   10.755    5.1080
   10.770    5.3923
   10.785    5.2659
   10.800    5.2133
   10.815    4.8868
   10.830    4.9710
   10.845    5.2238
   10.860    5.0237
   10.875    4.8236
   10.890    4.8131
   10.905    4.9184
   10.920    5.0658
   10.935    5.0974
   10.950    5.0658
   10.965    4.8447
   10.980    5.2133
   10.995    5.3186
   11.010    4.8552
   11.025    5.0342
   11.040    5.2870
   11.055    4.8236
   11.070    4.7815
   11.085    4.6761
   11.100    5.0764
   11.115    5.6135
   11.130    5.2027
   11.145    4.9394
   11.160    5.0342
   11.175    4.9394
   11.190    4.8341
   11.205    5.0658
   11.220    4.8025
   11.235    4.7920
   11.250    5.0553
   11.265    4.9921
   11.280    4.9289
   11.295    4.7288
   11.310    4.9078
   11.325    4.8657
   11.340    4.9394
   11.355    4.8236
   11.370    4.8868
   11.385    4.9184
   11.400    4.9289
   11.415    4.8447
   11.430    4.8236
   11.445    5.2343
   11.460    5.2659
   11.475    5.1606
   11.490    4.6656
   11.505    4.3813
   11.520    4.4444
   11.535    4.6761
   11.550    4.8025
   11.565    4.9605
   11.580    5.3712
   11.595    5.0026
   11.610    4.8552
   11.625    4.7604
   11.640    5.0342
   11.655    5.2765
   11.670    4.7499
   11.685    4.6024
   11.700    4.7077
   11.715    4.9605
   11.730    4.9184
   11.745    4.8131
   11.760    4.8341
   11.775    4.9394
   11.790    4.6972
   11.805    5.0132
   11.820    4.8236
   11.835    4.9605
   11.850    4.9184
   11.865    4.5919
   11.880    4.2127
   11.895    4.3075
   11.910    4.5603
   11.925    4.7077
   11.940    5.0869
   11.955    4.9394
   11.970    4.7604
   11.985    4.8552
   12.000    4.7499
   12.015    4.6235
   12.030    4.6130
   12.045    4.7393
   12.060    4.9078
   12.075    4.6867
   12.090    4.7393
   12.105    4.4971
   12.120    5.0764
   12.135    4.6867
   12.150    4.8763
   12.165    4.7499
   12.180    4.7815
   12.195    5.1185
   12.210    5.0342
   12.225    4.5392
   12.240    4.6656
   12.255    4.6235
   12.270    4.7077
   12.285    4.7709
   12.300    4.5498
   12.315    4.7604
   12.330    4.9078
   12.345    4.6340
   12.360    4.7499
   12.375    4.5287
   12.390    4.6445
   12.405    4.5708
   12.420    4.7815
   12.435    4.8025
   12.450    4.5708
   12.465    4.7499
   12.480    4.8131
   12.495    4.7920
   12.510    4.9605
   12.525    4.8763
   12.540    4.8552
   12.555    4.5814
   12.570    4.7288
   12.585    4.4866
   12.600    4.6340
   12.615    4.6551
   12.630    4.5919
   12.645    4.8657
   12.660    5.1080
   12.675    4.4971
   12.690    4.5919
   12.705    4.6551
   12.720    4.7499
   12.735    4.6445
   12.750    4.4971
   12.765    4.9184
   12.780    4.9605
   12.795    4.7499
   12.810    4.8131
   12.825    4.8025
   12.840    4.7920
   12.855    4.8657
   12.870    4.6235
   12.885    5.0026
   12.900    4.4655
   12.915    4.3707
   12.930    4.7183
   12.945    4.6761
   12.960    4.5919
   12.975    4.6867
   12.990    4.6551
   13.005    4.5182
   13.020    4.5708
   13.035    4.6867
   13.050    4.6340
   13.065    4.8973
   13.080    4.8552
   13.095    4.7815
   13.110    4.5392
   13.125    4.6130
   13.140    4.4760
   13.155    4.3391
   13.170    4.5287
   13.185    4.5287
   13.200    4.4760
   13.215    4.4444
   13.230    4.6551
   13.245    4.7077
   13.260    4.5498
   13.275    4.6867
   13.290    4.6761
   13.305    4.4128
   13.320    4.5708
   13.335    4.5708
   13.350    4.8236
   13.365    4.9710
   13.380    4.4550
   13.395    4.6972
   13.410    4.4128
   13.425    4.3286
   13.440    4.4234
   13.455    4.6130
   13.470    4.3286
   13.485    4.5498
   13.500    4.6024
   13.515    4.4339
   13.530    4.5287
   13.545    4.5814
   13.560    4.4023
   13.575    4.5076
   13.590    4.5603
   13.605    4.4550
   13.620    4.2549
   13.635    4.7920
   13.650    4.4444
   13.665    4.5603
   13.680    4.6867
   13.695    4.5814
   13.710    4.4339
   13.725    4.3391
   13.740    4.4444
   13.755    4.6340
   13.770    4.3918
   13.785    4.3918
   13.800    4.8236
   13.815    4.9078
   13.830    4.5919
   13.845    4.5498
   13.860    4.5392
   13.875    4.5182
   13.890    4.5814
   13.905    4.6445
   13.920    4.4655
   13.935    4.6867
   13.950    4.6551
   13.965    4.3602
   13.980    4.6761
   13.995    4.6445
   14.010    4.4866
   14.025    4.5076
   14.040    4.7815
   14.055    4.3286
   14.070    4.6024
   14.085    4.6340
   14.100    4.8131
   14.115    4.7604
   14.130    4.5182
   14.145    4.8763
   14.160    4.6235
   14.175    4.6551
   14.190    4.8236
   14.205    4.8131
   14.220    4.9500
   14.235    4.4550
   14.250    4.6972
   14.265    4.8868
   14.280    4.9394
   14.295    4.3813
   14.310    4.5392
   14.325    4.6235
   14.340    4.3391
   14.355    4.1811
   14.370    4.4760
   14.385    4.9816
   14.400    4.6761
   14.415    4.3391
   14.430    4.7815
   14.445    4.4971
   14.460    4.3602
   14.475    4.6130
   14.490    4.8973
   14.505    4.5814
   14.520    4.4866
   14.535    4.2233
   14.550    4.4339
   14.565    4.2970
   14.580    4.4128
   14.595    4.6445
   14.610    4.9500
   14.625    4.7815
   14.640    4.2127
   14.655    4.4234
   14.670    4.6235
   14.685    4.6130
   14.700    4.3813
   14.715    4.5287
   14.730    4.4866
   14.745    4.4760
   14.760    4.5392
   14.775    4.4760
   14.790    4.4655
   14.805    4.5814
   14.820    4.7077
   14.835    4.3075
   14.850    4.4550
   14.865    4.8236
   14.880    4.4444
   14.895    4.3391
   14.910    4.5076
   14.925    4.3918
   14.940    4.6235
   14.955    4.3813
   14.970    4.2865
   14.985    4.5392
   15.000    5.0553
   15.015    4.5392
   15.030    4.6972
   15.045    4.6761
   15.060    4.3075
   15.075    4.5076
   15.090    4.3813
   15.105    4.4023
   15.120    4.3813
   15.135    4.2127
   15.150    4.6551
   15.165    4.4339
   15.180    4.5392
   15.195    4.5814
   15.210    4.7077
   15.225    4.6024
   15.240    4.6551
   15.255    4.5498
   15.270    4.5708
   15.285    4.5498
   15.300    4.8657
   15.315    4.4023
   15.330    4.4760
   15.345    4.4760
   15.360    4.6761
   15.375    4.5603
   15.390    4.3391
   15.405    4.6130
   15.420    4.7183
   15.435    4.6867
   15.450    4.3497
   15.465    4.3707
   15.480    4.7499
   15.495    4.6656
   15.510    4.6761
   15.525    4.5076
   15.540    4.4971
   15.555    4.4971
   15.570    4.8236
   15.585    4.7183
   15.600    4.5182
   15.615    4.5498
   15.630    4.9394
   15.645    4.7183
   15.660    4.7393
   15.675    4.6340
   15.690    4.7183
   15.705    4.7288
   15.720    4.4550
   15.735    4.7920
   15.750    4.6340
   15.765    4.8341
   15.780    4.8025
   15.795    4.6972
   15.810    4.7183
   15.825    4.9184
   15.840    4.6972
   15.855    4.8973
   15.870    5.0026
   15.885    4.9289
   15.900    4.7077
   15.915    4.5498
   15.930    4.5603
   15.945    4.7499
   15.960    4.5392
   15.975    4.9394
   15.990    4.9078
   16.005    4.8657
   16.020    4.6656
   16.035    4.4655
   16.050    4.6235
   16.065    4.7604
   16.080    4.7709
   16.095    4.6972
   16.110    4.5392
   16.125    4.3918
   16.140    4.5814
   16.155    5.2238
   16.170    4.7604
   16.185    4.7077
   16.200    4.6551
   16.215    4.7183
   16.230    4.8131
   16.245    4.7920
   16.260    4.6867
   16.275    4.6761
   16.290    4.7077
   16.305    4.8763
   16.320    4.7815
   16.335    4.3181
   16.350    4.6130
   16.365    4.9078
   16.380    4.9710
   16.395    4.5076
   16.410    4.7288
   16.425    4.7288
   16.440    4.6656
   16.455    4.3497
   16.470    4.6656
   16.485    4.6130
   16.500    4.4655
   16.515    4.4550
   16.530    4.8552
   16.545    4.5603
   16.560    4.6656
   16.575    4.6656
   16.590    4.7709
   16.605    4.9605
   16.620    4.4866
   16.635    4.6340
   16.650    4.7920
   16.665    4.2549
   16.680    4.6551
   16.695    4.6130
   16.710    4.5392
   16.725    4.5287
   16.740    4.6445
   16.755    4.5603
   16.770    4.7815
   16.785    4.7499
   16.800    4.8552
   16.815    4.9078
   16.830    4.2759
   16.845    4.6551
   16.860    4.2443
   16.875    4.6656
   16.890    4.4234
   16.905    4.6656
   16.920    4.6340
   16.935    4.5498
   16.950    4.6656
   16.965    4.6340
   16.980    4.4550
   16.995    5.0658
   17.010    4.5814
   17.025    4.5708
   17.040    4.3813
   17.055    4.6235
   17.070    4.3391
   17.085    4.4760
   17.100    4.4971
   17.115    4.4234
   17.130    4.3286
   17.145    4.3497
   17.160    4.6340
   17.175    4.7604
   17.190    4.6972
   17.205    4.0969
   17.220    4.3813
   17.235    4.4234
   17.250    4.4760
   17.265    4.6656
   17.280    4.7499
   17.295    4.4655
   17.310    4.6867
   17.325    4.7183
   17.340    4.3497
   17.355    4.4128
   17.370    5.0342
   17.385    4.8341
   17.400    4.7183
   17.415    4.6235
   17.430    4.8341
   17.445    4.8025
   17.460    4.8025
   17.475    5.0658
   17.490    4.6551
   17.505    4.7077
   17.520    4.7499
   17.535    4.6130
   17.550    4.5287
   17.565    4.5076
   17.580    4.9605
   17.595    4.9289
   17.610    4.7604
   17.625    4.6445
   17.640    4.5919
   17.655    4.8763
   17.670    4.4023
   17.685    4.2865
   17.700    4.5814
   17.715    4.3286
   17.730    4.5182
   17.745    4.6972
   17.760    4.5076
   17.775    4.8025
   17.790    4.8447
   17.805    4.9289
   17.820    4.8763
   17.835    4.4550
   17.850    4.5182
   17.865    4.6340
   17.880    4.7077
   17.895    4.7815
   17.910    4.6551
   17.925    4.6972
   17.940    4.8236
   17.955    4.5182
   17.970    4.7499
   17.985    4.7709
   18.000    4.5182
   18.015    4.4655
   18.030    4.7288
   18.045    4.6761
   18.060    4.6972
   18.075    4.5076
   18.090    4.8131
   18.105    4.9289
   18.120    4.6130
   18.135    4.6445
   18.150    4.7709
   18.165    4.3918
   18.180    4.4655
   18.195    4.2865
   18.210    4.3075
   18.225    4.2022
   18.240    4.5708
   18.255    4.8131
   18.270    4.4023
   18.285    4.1180
   18.300    4.2549
   18.315    4.3497
   18.330    4.6024
   18.345    5.0132
   18.360    4.4866
   18.375    4.4444
   18.390    4.8025
   18.405    4.7183
   18.420    4.5392
   18.435    4.6972
   18.450    4.6551
   18.465    4.6445
   18.480    4.7709
   18.495    4.5708
   18.510    4.7077
   18.525    4.6130
   18.540    4.6656
   18.555    4.5182
   18.570    4.8131
   18.585    4.7288
   18.600    4.8236
   18.615    4.4866
   18.630    4.8236
   18.645    4.3286
   18.660    4.3602
   18.675    4.7604
   18.690    4.6761
   18.705    4.9078
   18.720    4.9710
   18.735    4.8236
   18.750    4.8341
   18.765    4.7499
   18.780    4.8341
   18.795    4.6340
   18.810    5.1290
   18.825    4.9394
   18.840    4.6656
   18.855    4.9921
   18.870    4.9078
   18.885    5.0764
   18.900    5.2133
   18.915    4.9394
   18.930    6.0348
   18.945    5.6556
   18.960    5.5608
   18.975    5.8347
   18.990    5.4766
   19.005    5.7293
   19.020    5.9821
   19.035    6.0137
   19.050    5.3607
   19.065    4.9816
   19.080    5.0869
   19.095    4.8236
   19.110    4.6445
   19.125    4.6656
   19.140    4.7604
   19.155    4.9184
   19.170    4.9078
   19.185    4.5392
   19.200    4.3813
   19.215    4.5182
   19.230    4.5814
   19.245    4.8131
   19.260    4.4866
   19.275    4.8763
   19.290    4.5076
   19.305    4.8552
   19.320    5.0026
   19.335    4.6235
   19.350    4.5814
   19.365    4.4760
   19.380    4.6130
   19.395    4.7288
   19.410    4.4971
   19.425    4.4971
   19.440    4.5392
   19.455    4.6972
   19.470    4.8341
   19.485    4.6024
   19.500    4.5814
   19.515    4.4023
   19.530    4.6656
   19.545    4.9078
   19.560    4.6024
   19.575    4.5498
   19.590    4.8657
   19.605    4.7709
   19.620    4.5919
   19.635    4.8025
   19.650    4.4550
   19.665    4.6972
   19.680    4.9605
   19.695    4.8657
   19.710    4.7815
   19.725    4.7393
   19.740    5.2975
   19.755    5.0026
   19.770    4.9500
   19.785    5.2027
   19.800    4.8341
   19.815    4.6656
   19.830    4.8552
   19.845    4.7183
   19.860    4.8447
   19.875    4.6867
   19.890    4.7604
   19.905    4.6445
   19.920    4.4339
   19.935    4.6867
   19.950    4.9500
   19.965    4.5708
   19.980    4.7920
   19.995    4.7920
   20.010    4.6761
   20.025    4.6551
   20.040    4.8657
   20.055    4.8657
   20.070    5.0448
   20.085    4.9816
   20.100    5.1711
   20.115    5.0448
   20.130    4.4550
   20.145    4.8973
   20.160    5.0132
   20.175    4.6972
   20.190    4.5498
   20.205    4.7499
   20.220    5.0974
   20.235    4.7815
   20.250    4.6130
   20.265    4.9921
   20.280    4.7393
   20.295    4.7393
   20.310    4.7288
   20.325    4.7920
   20.340    4.4760
   20.355    4.7183
   20.370    5.0026
   20.385    4.3813
   20.400    4.7077
   20.415    5.0342
   20.430    4.7183
   20.445    4.6235
   20.460    4.6024
   20.475    4.9184
   20.490    4.7604
   20.505    4.9500
   20.520    4.4866
   20.535    4.6551
   20.550    4.6972
   20.565    4.9500
   20.580    5.0658
   20.595    5.0448
   20.610    4.6656
   20.625    4.8025
   20.640    4.9289
   20.655    4.9710
   20.670    4.6551
   20.685    4.5814
   20.700    4.5708
   20.715    4.6235
   20.730    4.5287
   20.745    5.1080
   20.760    4.6656
   20.775    4.9394
   20.790    5.0132
   20.805    4.8552
   20.820    4.8973
   20.835    5.2133
   20.850    4.8868
   20.865    4.5814
   20.880    4.7183
   20.895    4.9605
   20.910    4.7920
   20.925    4.9184
   20.940    5.0658
   20.955    4.8657
   20.970    4.7499
   20.985    4.8763
   21.000    4.7393
   21.015    4.8763
   21.030    4.8973
   21.045    4.7709
   21.060    4.6972
   21.075    4.9394
   21.090    4.7709
   21.105    4.6445
   21.120    4.7288
   21.135    4.9394
   21.150    4.7709
   21.165    4.7183
   21.180    4.7604
   21.195    4.8131
   21.210    4.7604
   21.225    4.7815
   21.240    5.1290
   21.255    4.5814
   21.270    4.5814
   21.285    4.9289
   21.300    4.8025
   21.315    4.5814
   21.330    4.7288
   21.345    4.6130
   21.360    4.5603
   21.375    4.5392
   21.390    4.8973
   21.405    4.6972
   21.420    4.9710
   21.435    5.1501
   21.450    5.1290
   21.465    4.7815
   21.480    4.8131
   21.495    4.7499
   21.510    4.9289
   21.525    5.0553
   21.540    4.8868
   21.555    5.4450
   21.570    4.7709
   21.585    4.5919
   21.600    5.1395
   21.615    4.9921
   21.630    4.5498
   21.645    4.5603
   21.660    4.9078
   21.675    4.9289
   21.690    4.8341
   21.705    4.8552
   21.720    4.8868
   21.735    5.2027
   21.750    4.7920
   21.765    4.5814
   21.780    4.9289
   21.795    4.9184
   21.810    4.6761
   21.825    4.6867
   21.840    5.0764
   21.855    4.7499
   21.870    4.8236
   21.885    4.7920
   21.900    4.5182
   21.915    4.4550
   21.930    4.7920
   21.945    4.8868
   21.960    4.7920
   21.975    4.6656
   21.990    5.0342
   22.005    4.9184
   22.020    4.7183
   22.035    4.6761
   22.050    4.6235
   22.065    4.9289
   22.080    5.0974
   22.095    4.8763
   22.110    4.9500
   22.125    5.0237
   22.140    4.9078
   22.155    5.0658
   22.170    5.1501
   22.185    4.7499
   22.200    4.8973
   22.215    4.9078
   22.230    4.9500
   22.245    4.7815
   22.260    4.8763
   22.275    4.8763
   22.290    5.0764
   22.305    4.5182
   22.320    4.9289
   22.335    4.6551
   22.350    5.0448
   22.365    4.7077
   22.380    4.7077
   22.395    4.8973
   22.410    4.9394
   22.425    4.8341
   22.440    4.8236
   22.455    4.6445
   22.470    4.7288
   22.485    4.6340
   22.500    5.0448
   22.515    4.9500
   22.530    4.6656
   22.545    5.1185
   22.560    5.3291
   22.575    4.8868
   22.590    5.1185
   22.605    5.2870
   22.620    4.8868
   22.635    4.8973
   22.650    4.9816
   22.665    4.6867
   22.680    4.5919
   22.695    4.5603
   22.710    5.0974
   22.725    5.0132
   22.740    4.8025
   22.755    4.9184
   22.770    4.9394
   22.785    5.0342
   22.800    4.5814
   22.815    4.9605
   22.830    4.8657
   22.845    4.6551
   22.860    4.4444
   22.875    4.8341
   22.890    4.7183
   22.905    4.7077
   22.920    4.8552
   22.935    5.2133
   22.950    5.0974
   22.965    5.3397
   22.980    5.0132
   22.995    5.0132
   23.010    4.8341
   23.025    4.8973
   23.040    5.0553
   23.055    5.2554
   23.070    5.0764
   23.085    5.1922
   23.100    5.0869
   23.115    5.3081
   23.130    5.0764
   23.145    4.8868
   23.160    4.6761
   23.175    5.1080
   23.190    5.0237
   23.205    4.8657
   23.220    4.7077
   23.235    4.8131
   23.250    4.9816
   23.265    5.1606
   23.280    4.7183
   23.295    4.8973
   23.310    4.4023
   23.325    4.6445
   23.340    4.6340
   23.355    4.7393
   23.370    4.7183
   23.385    4.4655
   23.400    4.7183
   23.415    4.7709
   23.430    5.1080
   23.445    4.6656
   23.460    4.5182
   23.475    4.8657
   23.490    4.9816
   23.505    4.7920
   23.520    4.8657
   23.535    4.8341
   23.550    4.5708
   23.565    4.9394
   23.580    5.0342
   23.595    4.9710
   23.610    4.9184
   23.625    4.6024
   23.640    5.0658
   23.655    4.6656
   23.670    4.5392
   23.685    4.8447
   23.700    4.4866
   23.715    4.8341
   23.730    4.9500
   23.745    4.8131
   23.760    4.8763
   23.775    4.9710
   23.790    4.8447
   23.805    4.5182
   23.820    4.6656
   23.835    4.8447
   23.850    4.8025
   23.865    5.0132
   23.880    4.9184
   23.895    4.9921
   23.910    4.8447
   23.925    4.4655
   23.940    4.4444
   23.955    4.4128
   23.970    4.7183
   23.985    4.7709
   24.000    4.8236
   24.015    4.9500
   24.030    4.9078
   24.045    4.7077
   24.060    4.7815
   24.075    4.6761
   24.090    4.6340
   24.105    4.6551
   24.120    4.7077
   24.135    4.4444
   24.150    4.5076
   24.165    5.0026
   24.180    4.8236
   24.195    4.8131
   24.210    4.2022
   24.225    4.3813
   24.240    4.9921
   24.255    4.8763
   24.270    4.7288
   24.285    4.6024
   24.300    4.7815
   24.315    4.5287
   24.330    4.5603
   24.345    4.6340
   24.360    4.5182
   24.375    4.5814
   24.390    4.6235
   24.405    4.6235
   24.420    4.7709
   24.435    4.7499
   24.450    4.6445
   24.465    4.7077
   24.480    4.7499
   24.495    4.7499
   24.510    5.0342
   24.525    5.1185
   24.540    4.7920
   24.555    4.6656
   24.570    4.7709
   24.585    4.9710
   24.600    4.7604
   24.615    4.9710
   24.630    4.8025
   24.645    4.4655
   24.660    4.6445
   24.675    4.8973
   24.690    4.4128
   24.705    4.6656
   24.720    4.6867
   24.735    4.6024
   24.750    4.6235
   24.765    4.6656
   24.780    4.7077
   24.795    4.5814
   24.810    4.4444
   24.825    4.6551
   24.840    4.4866
   24.855    4.5603
   24.870    4.1811
   24.885    4.5814
   24.900    4.8447
   24.915    4.6130
   24.930    4.7604
   24.945    4.8763
   24.960    5.2659
   24.975    4.9605
   24.990    4.7604
   25.005    4.9816
   25.020    5.0974
   25.035    4.5919
   25.050    4.8341
   25.065    4.8763
   25.080    4.4128
   25.095    4.7499
   25.110    4.6024
   25.125    4.8025
   25.140    4.7183
   25.155    4.4971
   25.170    4.5814
   25.185    4.6551
   25.200    4.5814
   25.215    4.5814
   25.230    4.7709
   25.245    4.9500
   25.260    4.7920
   25.275    4.7077
   25.290    4.6445
   25.305    4.6340
   25.320    4.6656
   25.335    4.6235
   25.350    4.7288
   25.365    4.6761
   25.380    4.8236
   25.395    4.6761
   25.410    4.8657
   25.425    4.6551
   25.440    4.6130
   25.455    4.7183
   25.470    4.5814
   25.485    4.8763
   25.500    4.8973
   25.515    4.8657
   25.530    4.9816
   25.545    4.6867
   25.560    4.5182
   25.575    4.7815
   25.590    4.8025
   25.605    4.6445
   25.620    4.4760
   25.635    4.6551
   25.650    4.2549
   25.665    4.6445
   25.680    4.7288
   25.695    4.7815
   25.710    4.2338
   25.725    4.4760
   25.740    4.8341
   25.755    4.8552
   25.770    4.6024
   25.785    4.6235
   25.800    4.4760
   25.815    4.4234
   25.830    4.3918
   25.845    4.7499
   25.860    4.7499
   25.875    4.6024
   25.890    4.6656
   25.905    4.4234
   25.920    4.5708
   25.935    4.6867
   25.950    4.5919
   25.965    5.0237
   25.980    4.9394
   25.995    4.8025
   26.010    4.7815
   26.025    4.6130
   26.040    4.4550
   26.055    4.6972
   26.070    4.8447
   26.085    4.5708
   26.100    4.6340
   26.115    4.6340
   26.130    4.3181
   26.145    4.2022
   26.160    4.5287
   26.175    4.6235
   26.190    4.3813
   26.205    4.4760
   26.220    4.5708
   26.235    4.4234
   26.250    4.4023
   26.265    4.6656
   26.280    4.7815
   26.295    4.7183
   26.310    4.4023
   26.325    4.2970
   26.340    4.4866
   26.355    4.4128
   26.370    4.6235
   26.385    4.6235
   26.400    4.4339
   26.415    4.8552
   26.430    4.7393
   26.445    4.4550
   26.460    4.7183
   26.475    4.6551
   26.490    4.7815
   26.505    4.5287
   26.520    4.6551
   26.535    4.5392
   26.550    4.1811
   26.565    4.6761
   26.580    4.4971
   26.595    4.5076
   26.610    4.2127
   26.625    4.3602
   26.640    4.3707
   26.655    4.5287
   26.670    4.5392
   26.685    4.5287
   26.700    4.5076
   26.715    4.4760
   26.730    4.3497
   26.745    4.6445
   26.760    4.3813
   26.775    4.4339
   26.790    4.5603
   26.805    4.2654
   26.820    4.3918
   26.835    4.4550
   26.850    4.2443
   26.865    4.5287
   26.880    4.5708
   26.895    4.1706
   26.910    4.6972
   26.925    4.4234
   26.940    4.2970
   26.955    4.6130
   26.970    4.5603
   26.985    4.5287
   27.000    4.4866
   27.015    4.4760
   27.030    4.6340
   27.045    4.8236
   27.060    4.5182
   27.075    4.2654
   27.090    4.1390
   27.105    4.5076
   27.120    4.5182
   27.135    4.5392
   27.150    4.0653
   27.165    4.0232
   27.180    4.1706
   27.195    4.0969
   27.210    4.5182
   27.225    4.1811
   27.240    4.4971
   27.255    4.6340
   27.270    4.4550
   27.285    4.1601
   27.300    4.4866
   27.315    4.5076
   27.330    4.2127
   27.345    4.5498
   27.360    4.6024
   27.375    4.3075
   27.390    4.1074
   27.405    4.4444
   27.420    4.2443
   27.435    4.3497
   27.450    4.4128
   27.465    4.2654
   27.480    4.3707
   27.495    4.5182
   27.510    4.3391
   27.525    4.1917
   27.540    4.2127
   27.555    3.8968
   27.570    4.2127
   27.585    4.2865
   27.600    4.6761
   27.615    4.3075
   27.630    4.2127
   27.645    4.0232
   27.660    4.2338
   27.675    4.2233
   27.690    4.3497
   27.705    4.4023
   27.720    4.4760
   27.735    4.3602
   27.750    4.2233
   27.765    4.1811
   27.780    4.2022
   27.795    4.3813
   27.810    4.6445
   27.825    4.2338
   27.840    4.1074
   27.855    4.5919
   27.870    4.4866
   27.885    4.8552
   27.900    4.8447
   27.915    4.4339
   27.930    4.8131
   27.945    5.2975
   27.960    5.2659
   27.975    5.1711
   27.990    5.3502
   28.005    5.5924
   28.020    5.3081
   28.035    4.9921
   28.050    5.0132
   28.065    4.8025
   28.080    4.8868
   28.095    4.6656
   28.110    4.8025
   28.125    4.6551
   28.140    4.2338
   28.155    4.1917
   28.170    4.3181
   28.185    4.3813
   28.200    4.1601
   28.215    4.2654
   28.230    4.3918
   28.245    4.1074
   28.260    4.0442
   28.275    4.2338
   28.290    4.1074
   28.305    4.2865
   28.320    4.2233
   28.335    4.2443
   28.350    4.3286
   28.365    4.2233
   28.380    4.2127
   28.395    4.5182
   28.410    4.5076
   28.425    4.2127
   28.440    4.4339
   28.455    4.3707
   28.470    4.3918
   28.485    4.3707
   28.500    4.3602
   28.515    4.2970
   28.530    4.0969
   28.545    4.1811
   28.560    4.2970
   28.575    4.1601
   28.590    4.2443
   28.605    4.0021
   28.620    4.2022
   28.635    4.2443
   28.650    4.5287
   28.665    4.5708
   28.680    4.1917
   28.695    3.9916
   28.710    4.1285
   28.725    4.3286
   28.740    4.3602
   28.755    4.5287
   28.770    4.2127
   28.785    4.0337
   28.800    4.2654
   28.815    4.4655
   28.830    4.4971
   28.845    4.6445
   28.860    4.7077
   28.875    4.5076
   28.890    4.6024
   28.905    4.8447
   28.920    4.9605
   28.935    4.9500
   28.950    4.7815
   28.965    4.9184
   28.980    4.9394
   28.995    4.8236
   29.010    4.6551
   29.025    4.6761
   29.040    4.5182
   29.055    4.5603
   29.070    4.2233
   29.085    4.3075
   29.100    4.5708
   29.115    4.6130
   29.130    4.7815
   29.145    4.2970
   29.160    4.1706
   29.175    4.3391
   29.190    4.2549
   29.205    4.3075
   29.220    4.1917
   29.235    4.2338
   29.250    3.9705
   29.265    3.8652
   29.280    4.4234
   29.295    4.1601
   29.310    4.0442
   29.325    4.2549
   29.340    4.1601
   29.355    4.0548
   29.370    3.8020
   29.385    4.1390
   29.400    4.2233
   29.415    4.3391
   29.430    4.1390
   29.445    3.9494
   29.460    4.0126
   29.475    4.0758
   29.490    4.2443
   29.505    4.0758
   29.520    4.1811
   29.535    4.2338
   29.550    4.2654
   29.565    4.1285
   29.580    4.1180
   29.595    4.0442
   29.610    3.6230
   29.625    4.1496
   29.640    4.2865
   29.655    4.1180
   29.670    4.1601
   29.685    4.1811
   29.700    4.3075
   29.715    3.9705
   29.730    4.0548
   29.745    3.8652
   29.760    3.7915
   29.775    4.2127
   29.790    4.1285
   29.805    4.0126
   29.820    4.1180
   29.835    4.3497
   29.850    4.1706
   29.865    4.2022
   29.880    4.2549
   29.895    3.9810
   29.910    4.0758
   29.925    4.0653
   29.940    4.0337
   29.955    4.0864
   29.970    4.4023
   29.985    4.2443
   30.000    4.1811
   30.015    4.2549
   30.030    4.2970
   30.045    4.3918
   30.060    4.2233
   30.075    4.2127
   30.090    4.1390
   30.105    4.4760
   30.120    4.3181
   30.135    4.1180
   30.150    4.2022
   30.165    4.1390
   30.180    3.9494
   30.195    3.9705
   30.210    3.9284
   30.225    3.9389
   30.240    4.3813
   30.255    4.1074
   30.270    4.4023
   30.285    4.2443
   30.300    3.8547
   30.315    4.0126
   30.330    4.2338
   30.345    4.4128
   30.360    4.3813
   30.375    4.2338
   30.390    4.0758
   30.405    4.0653
   30.420    4.2865
   30.435    3.8020
   30.450    4.3075
   30.465    4.3075
   30.480    4.0758
   30.495    3.7704
   30.510    3.8757
   30.525    3.9073
   30.540    4.0126
   30.555    4.1074
   30.570    3.9705
   30.585    3.8863
   30.600    4.1285
   30.615    4.0337
   30.630    4.1390
   30.645    3.6546
   30.660    3.7599
   30.675    4.0337
   30.690    4.3075
   30.705    4.1811
   30.720    4.2549
   30.735    4.0337
   30.750    3.4966
   30.765    3.6651
   30.780    4.0337
   30.795    4.1601
   30.810    4.2022
   30.825    3.9916
   30.840    3.7493
   30.855    3.8757
   30.870    3.6440
   30.885    4.0758
   30.900    4.0337
   30.915    3.9705
   30.930    4.0758
   30.945    4.0758
   30.960    3.8968
   30.975    3.9389
   30.990    4.0864
   31.005    4.3391
   31.020    4.1706
   31.035    4.0969
   31.050    3.8652
   31.065    3.6651
   31.080    4.0758
   31.095    3.9073
   31.110    3.9705
   31.125    3.7704
   31.140    3.6756
   31.155    3.7915
   31.170    3.8652
   31.185    3.8125
   31.200    4.0864
   31.215    4.0758
   31.230    4.1180
   31.245    3.8441
   31.260    3.9073
   31.275    4.1285
   31.290    4.0864
   31.305    4.0021
   31.320    3.9705
   31.335    4.1390
   31.350    4.0021
   31.365    3.8757
   31.380    3.6124
   31.395    4.0232
   31.410    3.8336
   31.425    3.8757
   31.440    3.9916
   31.455    4.2970
   31.470    3.6862
   31.485    3.9810
   31.500    3.9600
   31.515    3.7599
   31.530    3.9179
   31.545    3.9284
   31.560    3.9810
   31.575    4.1390
   31.590    3.9810
   31.605    3.8968
   31.620    3.7809
   31.635    3.9284
   31.650    4.1601
   31.665    4.4128
   31.680    4.1811
   31.695    3.9179
   31.710    4.0548
   31.725    4.1601
   31.740    4.4971
   31.755    4.0548
   31.770    4.2233
   31.785    4.1390
   31.800    4.2233
   31.815    4.2970
   31.830    4.0864
   31.845    4.2022
   31.860    4.2970
   31.875    4.0864
   31.890    3.8757
   31.905    3.7915
   31.920    4.0337
   31.935    3.7809
   31.950    4.3075
   31.965    4.1496
   31.980    4.3602
   31.995    4.6340
   32.010    5.0974
   32.025    5.0132
   32.040    5.5187
   32.055    5.6451
   32.070    5.9716
   32.085    5.8978
   32.100    5.5608
   32.115    5.4766
   32.130    5.7609
   32.145    5.8031
   32.160    5.4555
   32.175    5.0237
   32.190    4.7709
   32.205    4.9394
   32.220    4.2443
   32.235    3.9705
   32.250    3.9284
   32.265    4.2759
   32.280    4.3286
   32.295    4.0969
   32.310    3.5703
   32.325    3.6756
   32.340    3.8441
   32.355    3.7388
   32.370    4.0758
   32.385    3.9600
   32.400    3.9916
   32.415    4.0232
   32.430    4.0864
   32.445    3.8652
   32.460    3.9705
   32.475    3.8441
   32.490    3.7599
   32.505    3.8020
   32.520    3.8863
   32.535    3.9284
   32.550    3.6651
   32.565    3.6651
   32.580    3.9494
   32.595    4.0758
   32.610    3.7704
   32.625    3.8757
   32.640    4.0758
   32.655    3.6230
   32.670    3.6335
   32.685    4.1180
   32.700    3.7704
   32.715    3.7072
   32.730    3.7599
   32.745    3.6651
   32.760    3.8757
   32.775    3.7072
   32.790    3.5492
   32.805    3.5282
   32.820    3.4755
   32.835    3.3597
   32.850    3.7177
   32.865    3.6546
   32.880    3.6546
   32.895    3.6862
   32.910    3.6862
   32.925    3.5387
   32.940    3.4334
   32.955    3.7915
   32.970    4.0442
   32.985    3.8231
   33.000    3.7704
   33.015    3.7809
   33.030    3.4755
   33.045    3.4018
   33.060    3.6546
   33.075    3.6546
   33.090    3.6335
   33.105    3.5914
   33.120    3.7283
   33.135    3.6019
   33.150    3.8863
   33.165    3.8020
   33.180    3.8125
   33.195    3.5598
   33.210    4.0126
   33.225    3.5914
   33.240    3.7915
   33.255    3.7915
   33.270    3.5387
   33.285    3.3070
   33.300    3.4755
   33.315    3.7809
   33.330    3.6335
   33.345    3.5492
   33.360    3.2333
   33.375    3.5492
   33.390    3.7283
   33.405    3.7599
   33.420    3.7493
   33.435    3.4650
   33.450    3.8231
   33.465    3.8441
   33.480    3.7915
   33.495    3.5808
   33.510    3.7493
   33.525    3.5387
   33.540    3.4860
   33.555    3.7915
   33.570    3.7704
   33.585    3.6862
   33.600    3.7704
   33.615    3.8020
   33.630    3.5808
   33.645    3.7177
   33.660    3.8125
   33.675    3.5492
   33.690    4.0232
   33.705    4.0337
   33.720    3.8547
   33.735    4.1074
   33.750    4.1706
   33.765    4.2549
   33.780    4.3707
   33.795    4.4866
   33.810    4.4023
   33.825    4.6972
   33.840    4.5603
   33.855    4.5392
   33.870    4.3391
   33.885    4.0864
   33.900    4.1601
   33.915    4.5498
   33.930    3.9705
   33.945    4.0442
   33.960    3.7493
   33.975    3.7599
   33.990    3.8125
   34.005    3.6019
   34.020    3.8020
   34.035    3.6967
   34.050    3.6967
   34.065    3.5492
   34.080    3.5071
   34.095    3.4334
   34.110    3.8336
   34.125    3.8336
   34.140    3.6440
   34.155    3.7283
   34.170    3.6019
   34.185    3.4018
   34.200    3.4544
   34.215    3.6230
   34.230    3.4439
   34.245    3.6440
   34.260    3.5598
   34.275    3.4439
   34.290    3.5282
   34.305    3.4544
   34.320    3.6862
   34.335    3.6862
   34.350    3.4544
   34.365    3.4860
   34.380    3.4018
   34.395    3.4123
   34.410    3.5703
   34.425    3.5071
   34.440    3.3807
   34.455    3.5071
   34.470    3.3702
   34.485    3.4650
   34.500    3.5808
   34.515    3.8547
   34.530    3.7177
   34.545    3.3913
   34.560    3.4650
   34.575    3.6756
   34.590    3.7177
   34.605    3.6651
   34.620    3.3702
   34.635    3.2122
   34.650    3.3281
   34.665    3.9179
   34.680    3.5071
   34.695    3.4650
   34.710    3.5071
   34.725    3.6546
   34.740    3.3702
   34.755    3.3281
   34.770    3.3702
   34.785    3.3281
   34.800    3.6019
   34.815    3.5176
   34.830    3.5808
   34.845    3.6546
   34.860    3.4755
   34.875    3.2017
   34.890    3.3702
   34.905    3.3281
   34.920    3.3070
   34.935    3.4018
   34.950    3.4123
   34.965    3.6440
   34.980    3.5808
   34.995    3.3702
   35.010    3.4755
   35.025    3.5914
   35.040    3.5387
   35.055    3.3070
   35.070    3.2965
   35.085    3.4755
   35.100    3.5703
   35.115    3.5176
   35.130    3.4334
   35.145    3.2438
   35.160    3.0121
   35.175    3.3913
   35.190    3.4966
   35.205    3.4334
   35.220    3.2122
   35.235    3.4439
   35.250    3.6124
   35.265    3.6967
   35.280    3.5282
   35.295    3.4439
   35.310    3.4123
   35.325    3.0964
   35.340    3.3070
   35.355    3.3386
   35.370    3.2754
   35.385    3.4544
   35.400    3.5703
   35.415    3.4439
   35.430    3.2965
   35.445    3.4860
   35.460    3.2543
   35.475    3.3386
   35.490    3.3070
   35.505    3.3386
   35.520    3.3807
   35.535    3.4123
   35.550    3.3175
   35.565    3.5914
   35.580    3.6546
   35.595    3.3491
   35.610    3.2965
   35.625    3.3070
   35.640    3.3070
   35.655    3.5492
   35.670    3.6124
   35.685    3.5282
   35.700    3.5598
   35.715    3.2227
   35.730    3.1069
   35.745    3.3281
   35.760    3.4544
   35.775    3.6019
   35.790    3.1174
   35.805    3.5071
   35.820    3.1280
   35.835    3.0648
   35.850    3.3070
   35.865    3.4334
   35.880    3.2649
   35.895    3.3597
   35.910    3.3491
   35.925    3.3807
   35.940    3.4439
   35.955    3.5598
   35.970    3.4123
   35.985    3.2227
   36.000    3.1806
   36.015    3.1174
   36.030    3.2649
   36.045    3.3913
   36.060    3.4123
   36.075    3.5071
   36.090    3.5492
   36.105    3.5703
   36.120    3.2965
   36.135    3.5492
   36.150    3.4650
   36.165    3.3702
   36.180    3.2965
   36.195    3.2543
   36.210    3.0858
   36.225    3.3597
   36.240    3.2227
   36.255    3.2227
   36.270    3.1596
   36.285    3.2017
   36.300    3.1806
   36.315    3.2859
   36.330    3.2438
   36.345    2.9595
   36.360    3.2227
   36.375    3.2965
   36.390    3.1174
   36.405    2.9910
   36.420    3.1701
   36.435    3.4755
   36.450    3.4018
   36.465    3.1385
   36.480    3.1806
   36.495    3.1912
   36.510    3.0753
   36.525    3.3702
   36.540    3.7809
   36.555    3.3807
   36.570    3.2649
   36.585    3.6124
   36.600    3.2649
   36.615    3.2543
   36.630    3.3597
   36.645    3.2859
   36.660    3.2017
   36.675    2.8857
   36.690    3.0964
   36.705    2.9384
   36.720    3.2227
   36.735    2.9595
   36.750    3.3913
   36.765    3.1912
   36.780    3.2543
   36.795    3.0648
   36.810    3.0121
   36.825    3.0332
   36.840    3.1596
   36.855    2.9489
   36.870    3.0964
   36.885    3.3281
   36.900    3.0016
   36.915    3.3070
   36.930    3.1596
   36.945    3.1701
   36.960    3.1806
   36.975    3.1385
   36.990    3.3491
   37.005    3.4650
   37.020    3.4018
   37.035    3.3702
   37.050    3.4018
   37.065    3.1806
   37.080    3.0542
   37.095    3.2227
   37.110    3.2017
   37.125    3.0648
   37.140    3.2227
   37.155    3.3913
   37.170    3.1806
   37.185    3.1385
   37.200    3.2754
   37.215    2.9489
   37.230    3.0121
   37.245    3.3597
   37.260    3.1701
   37.275    3.2543
   37.290    3.2122
   37.305    3.0226
   37.320    3.1069
   37.335    3.3386
   37.350    3.2649
   37.365    3.1385
   37.380    3.2017
   37.395    3.2333
   37.410    3.0648
   37.425    2.9384
   37.440    2.9595
   37.455    3.4439
   37.470    3.2754
   37.485    3.3070
   37.500    3.0332
   37.515    3.1596
   37.530    3.2859
   37.545    3.3913
   37.560    2.9700
   37.575    3.0016
   37.590    3.2438
   37.605    3.1280
   37.620    3.1912
   37.635    3.2859
   37.650    3.2754
   37.665    3.1490
   37.680    3.1596
   37.695    3.3386
   37.710    3.1490
   37.725    3.2017
   37.740    3.4966
   37.755    3.2543
   37.770    3.3070
   37.785    3.1912
   37.800    3.0964
   37.815    2.9910
   37.830    3.0332
   37.845    3.1174
   37.860    3.5387
   37.875    3.3807
   37.890    3.1174
   37.905    3.0858
   37.920    3.3281
   37.935    3.1912
   37.950    3.1385
   37.965    3.2965
   37.980    3.3175
   37.995    3.3597
   38.010    3.4755
   38.025    3.0437
   38.040    3.0542
   38.055    3.1069
   38.070    3.0753
   38.085    3.3807
   38.100    3.3175
   38.115    3.2438
   38.130    3.0858
   38.145    3.3597
   38.160    3.2122
   38.175    3.1385
   38.190    3.3386
   38.205    3.1174
   38.220    3.0437
   38.235    3.1596
   38.250    3.4334
   38.265    3.0437
   38.280    2.9910
   38.295    3.2649
   38.310    3.2017
   38.325    3.3175
   38.340    3.5071
   38.355    3.4334
   38.370    3.4650
   38.385    3.1385
   38.400    3.2543
   38.415    3.0753
   38.430    3.2333
   38.445    3.3702
   38.460    3.2754
   38.475    3.2543
   38.490    3.2859
   38.505    3.4650
   38.520    3.2965
   38.535    3.6019
   38.550    3.5176
   38.565    3.5282
   38.580    3.6124
   38.595    3.5808
   38.610    3.5387
   38.625    3.6019
   38.640    3.5914
   38.655    3.6862
   38.670    3.6230
   38.685    3.6230
   38.700    3.4439
   38.715    3.3597
   38.730    3.1912
   38.745    3.0858
   38.760    3.2859
   38.775    3.3597
   38.790    3.2017
   38.805    3.0648
   38.820    2.9700
   38.835    3.2649
   38.850    3.4544
   38.865    3.3281
   38.880    3.0332
   38.895    3.1385
   38.910    3.3913
   38.925    3.2649
   38.940    3.6124
   38.955    3.2859
   38.970    3.1701
   38.985    3.0437
   39.000    3.0753
   39.015    3.1280
   39.030    3.2438
   39.045    3.1701
   39.060    3.2438
   39.075    3.1701
   39.090    3.2122
   39.105    3.2859
   39.120    3.2754
   39.135    3.1490
   39.150    3.1596
   39.165    3.2122
   39.180    3.0964
   39.195    3.3175
   39.210    3.1912
   39.225    3.3597
   39.240    3.1490
   39.255    3.0964
   39.270    3.1806
   39.285    3.3386
   39.300    3.0858
   39.315    2.9489
   39.330    3.2227
   39.345    3.0648
   39.360    3.0858
   39.375    3.4544
   39.390    3.2965
   39.405    3.1490
   39.420    3.3386
   39.435    3.3281
   39.450    3.1806
   39.465    2.9910
   39.480    3.0121
   39.495    3.0437
   39.510    3.1806
   39.525    3.2333
   39.540    3.2859
   39.555    3.1385
   39.570    3.0964
   39.585    3.0648
   39.600    2.9805
   39.615    3.2754
   39.630    3.2122
   39.645    3.2333
   39.660    3.2227
   39.675    3.5282
   39.690    3.3386
   39.705    3.2333
   39.720    3.4334
   39.735    2.9910
   39.750    3.1280
   39.765    3.2438
   39.780    3.0648
   39.795    3.1385
   39.810    2.9910
   39.825    3.1385
   39.840    3.3070
   39.855    3.0753
   39.870    3.3491
   39.885    3.2333
   39.900    3.2333
   39.915    3.1596
   39.930    3.0648
   39.945    3.1174
   39.960    3.2333
   39.975    3.0437
   39.990    2.8541
