    1.500    5.7925
    1.515    5.8276
    1.530    5.7574
    1.545    5.7223
    1.560    5.6170
    1.575    5.7223
    1.590    5.4415
    1.605    5.7750
    1.620    5.0377
    1.635    5.1957
    1.650    4.9675
    1.665    5.0026
    1.680    5.0553
    1.695    4.8622
    1.710    5.1080
    1.725    4.8973
    1.740    4.9324
    1.755    4.8447
    1.770    4.6867
    1.785    4.6516
    1.800    5.0026
    1.815    4.9851
    1.830    4.7744
    1.845    5.0026
    1.860    4.6867
    1.875    5.0553
    1.890    4.8622
    1.905    4.1425
    1.920    4.6165
    1.935    4.3707
    1.950    4.5287
    1.965    4.3356
    1.980    4.6340
    1.995    4.1601
    2.010    4.3883
    2.025    4.0899
    2.040    3.7915
    2.055    4.1601
    2.070    4.1776
    2.085    4.3181
    2.100    4.6165
    2.115    4.1425
    2.130    4.1074
    2.145    4.1074
    2.160    4.0723
    2.175    4.0548
    2.190    4.3005
    2.205    4.3181
    2.220    3.8968
    2.235    4.1601
    2.250    4.2127
    2.265    3.9494
    2.280    3.6159
    2.295    3.7564
    2.310    3.7213
    2.325    3.7564
    2.340    4.0548
    2.355    3.9846
    2.370    4.0021
    2.385    3.8792
    2.400    4.0899
    2.415    3.7388
    2.430    3.7037
    2.445    3.6335
    2.460    3.5457
    2.475    3.9846
    2.490    3.8968
    2.505    3.4755
    2.520    3.7037
    2.535    3.6686
    2.550    3.5633
    2.565    3.7388
    2.580    3.6510
    2.595    3.6335
    2.610    3.8266
    2.625    3.4229
    2.640    3.6686
    2.655    3.8792
    2.670    3.7037
    2.685    3.7388
    2.700    3.5106
    2.715    3.6335
    2.730    3.5808
    2.745    3.7739
    2.760    3.3526
    2.775    3.2298
    2.790    3.6335
    2.805    3.4580
    2.820    3.1947
    2.835    3.5457
    2.850    3.8090
    2.865    3.3351
    2.880    3.7388
    2.895    3.6686
    2.910    3.2122
    2.925    4.1776
    2.940    3.5633
    2.955    3.6862
    2.970    3.6335
    2.985    3.7037
    3.000    4.0723
    3.015    3.6686
    3.030    3.6159
    3.045    4.1425
    3.060    4.0372
    3.075    3.8266
    3.090    4.5287
    3.105    4.3707
    3.120    4.5287
    3.135    4.5463
    3.150    4.3181
    3.165    4.3356
    3.180    4.9324
    3.195    5.1782
    3.210    5.1431
    3.225    5.4766
    3.240    5.7223
    3.255    5.8452
    3.270    6.0207
    3.285    6.0909
    3.300    6.2313
    3.315    5.8276
    3.330    7.2670
    3.345    7.5127
    3.360    7.6532
    3.375    7.5127
    3.390    8.3377
    3.405    8.4957
    3.420    8.9170
    3.435    9.7595
    3.450    9.9351
    3.465   10.2861
    3.480   11.2691
    3.495   11.5675
    3.510   12.4978
    3.525   13.2877
    3.540   14.2005
    3.555   15.1132
    3.570   16.4121
    3.585   17.2722
    3.600   18.4659
    3.615   19.9228
    3.630   21.6079
    3.645   23.3105
    3.660   25.0132
    3.675   26.8387
    3.690   30.1562
    3.705   31.6658
    3.720   35.6503
    3.735   38.7572
    3.750   44.3567
    3.765   50.0263
    3.780   58.4167
    3.795   67.1582
    3.810   80.9373
    3.825   94.1197
    3.840   95.7346
    3.855   87.0458
    3.870   70.9847
    3.885   51.4657
    3.900   34.5445
    3.915   19.4313
    3.930   11.0233
    3.945    7.2494
    3.960    5.4766
    3.975    5.0553
    3.990    4.3883
    4.005    3.6510
    4.020    3.7915
    4.035    3.6510
    4.050    3.2298
    4.065    3.0718
    4.080    3.1596
    4.095    3.0016
    4.110    3.1245
    4.125    2.8612
    4.140    2.8963
    4.155    2.8260
    4.170    2.8963
    4.185    2.8085
    4.200    3.0367
    4.215    2.6330
    4.230    2.8612
    4.245    2.7383
    4.260    2.8260
    4.275    2.4574
    4.290    2.5803
    4.305    2.3872
    4.320    2.5979
    4.335    2.7909
    4.350    2.5276
    4.365    2.6856
    4.380    2.8963
    4.395    2.9314
    4.410    2.6856
    4.425    2.5979
    4.440    2.8436
    4.455    2.8963
    4.470    2.8787
    4.485    2.8787
    4.500    2.8436
    4.515    2.4574
    4.530    2.4048
    4.545    2.4925
    4.560    2.5979
    4.575    2.5101
    4.590    2.4574
    4.605    2.3521
    4.620    2.5452
    4.635    2.5452
    4.650    2.4925
    4.665    2.7383
    4.680    2.6681
    4.695    2.5452
    4.710    2.7207
    4.725    2.7207
    4.740    2.5803
    4.755    2.5803
    4.770    2.4925
    4.785    2.5628
    4.800    2.5628
    4.815    2.6154
    4.830    2.6154
    4.845    2.3697
    4.860    2.2995
    4.875    2.3346
    4.890    2.7558
    4.905    2.7383
    4.920    2.5628
    4.935    2.4223
    4.950    3.1420
    4.965    2.9314
    4.980    2.8436
    4.995    2.6505
    5.010    2.6681
    5.025    3.0191
    5.040    3.0367
    5.055    3.1245
    5.070    2.8612
    5.085    3.0718
    5.100    3.1069
    5.115    3.4404
    5.130    3.7037
    5.145    3.8617
    5.160    4.1074
    5.175    4.4936
    5.190    4.8271
    5.205    4.5287
    5.220    5.0904
    5.235    5.4064
    5.250    5.3010
    5.265    5.9505
    5.280    6.6175
    5.295    7.4074
    5.310    8.1095
    5.325    8.3728
    5.340    9.5138
    5.355   10.2861
    5.370   11.1638
    5.385   13.1648
    5.400   14.1478
    5.415   17.7462
    5.430   21.2568
    5.445   24.3286
    5.460   25.4695
    5.475   23.9073
    5.490   20.5722
    5.505   14.9201
    5.520   11.0409
    5.535    7.5303
    5.550    4.5287
    5.565    3.2824
    5.580    3.4053
    5.595    3.1245
    5.610    2.8260
    5.625    2.5803
    5.640    2.4574
    5.655    2.3697
    5.670    2.4750
    5.685    2.5276
    5.700    2.3697
    5.715    2.4048
    5.730    2.3170
    5.745    2.5276
    5.760    2.3521
    5.775    2.5101
    5.790    2.3521
    5.805    2.5979
    5.820    2.5979
    5.835    2.3697
    5.850    2.6505
    5.865    2.2995
    5.880    2.3521
    5.895    2.2468
    5.910    2.3697
    5.925    2.2819
    5.940    2.4223
    5.955    2.4574
    5.970    2.4048
    5.985    2.4925
    6.000    2.3697
    6.015    2.6330
    6.030    2.2117
    6.045    2.2468
    6.060    2.3697
    6.075    2.2643
    6.090    2.1064
    6.105    2.1415
    6.120    2.5101
    6.135    2.3521
    6.150    2.1590
    6.165    2.2643
    6.180    2.1415
    6.195    2.1590
    6.210    2.4223
    6.225    2.2643
    6.240    2.1941
    6.255    2.6154
    6.270    2.5979
    6.285    2.4925
    6.300    2.3697
    6.315    2.5276
    6.330    2.4223
    6.345    2.2995
    6.360    2.1766
    6.375    2.3521
    6.390    2.3521
    6.405    2.6330
    6.420    2.3872
    6.435    2.7558
    6.450    2.8436
    6.465    2.4750
    6.480    2.6505
    6.495    2.4574
    6.510    2.6856
    6.525    2.8436
    6.540    3.3877
    6.555    3.2824
    6.570    3.2298
    6.585    3.4404
    6.600    3.6335
    6.615    4.0548
    6.630    4.8798
    6.645    4.7744
    6.660    5.0202
    6.675    6.0558
    6.690    6.7930
    6.705    7.5654
    6.720    6.4771
    6.735    5.7925
    6.750    5.4590
    6.765    4.2654
    6.780    3.1947
    6.795    2.7207
    6.810    2.1941
    6.825    2.5101
    6.840    2.4750
    6.855    2.4048
    6.870    2.2468
    6.885    2.2292
    6.900    2.3521
    6.915    2.2292
    6.930    2.3521
    6.945    2.4750
    6.960    2.3346
    6.975    1.9484
    6.990    2.3521
    7.005    2.4048
    7.020    2.4574
    7.035    2.1415
    7.050    2.4399
    7.065    2.5628
    7.080    2.4399
    7.095    2.2468
    7.110    2.2995
    7.125    2.2819
    7.140    2.3697
    7.155    2.1590
    7.170    2.2643
    7.185    2.5101
    7.200    2.3521
    7.215    1.8606
    7.230    2.0011
    7.245    2.1064
    7.260    2.0713
    7.275    1.6324
    7.290    2.2117
    7.305    2.1415
    7.320    2.2292
    7.335    2.2643
    7.350    2.2292
    7.365    2.2995
    7.380    2.1239
    7.395    2.6505
    7.410    2.5276
    7.425    2.3697
    7.440    2.4223
    7.455    2.5979
    7.470    2.5101
    7.485    2.4925
    7.500    2.6681
    7.515    2.5101
    7.530    2.4750
    7.545    2.4048
    7.560    2.6856
    7.575    2.7383
    7.590    3.0718
    7.605    3.2298
    7.620    3.1771
    7.635    3.7037
    7.650    3.8792
    7.665    4.1776
    7.680    4.4058
    7.695    4.6340
    7.710    5.8101
    7.725    6.5824
    7.740    6.9861
    7.755    7.5654
    7.770    7.3372
    7.785    6.8808
    7.800    5.5117
    7.815    4.4058
    7.830    3.7388
    7.845    3.0718
    7.860    2.5452
    7.875    2.1941
    7.890    2.2292
    7.905    2.1941
    7.920    2.1415
    7.935    2.1941
    7.950    2.4750
    7.965    2.3872
    7.980    2.1766
    7.995    1.9659
    8.010    2.3170
    8.025    2.3170
    8.040    2.1941
    8.055    2.5276
    8.070    2.2468
    8.085    2.1239
    8.100    2.1064
    8.115    2.1590
    8.130    2.0362
    8.145    2.1941
    8.160    2.0713
    8.175    2.3170
    8.190    2.0537
    8.205    2.3521
    8.220    2.3521
    8.235    2.3346
    8.250    1.9133
    8.265    2.1239
    8.280    2.0362
    8.295    2.1415
    8.310    2.1064
    8.325    1.7904
    8.340    2.1941
    8.355    2.1064
    8.370    2.1239
    8.385    2.0537
    8.400    1.6851
    8.415    2.1415
    8.430    2.0362
    8.445    1.9835
    8.460    2.0888
    8.475    2.2643
    8.490    2.2819
    8.505    2.1766
    8.520    2.2819
    8.535    1.9835
    8.550    2.1941
    8.565    2.0713
    8.580    2.4925
    8.595    2.5101
    8.610    2.6330
    8.625    2.4574
    8.640    2.6856
    8.655    2.5276
    8.670    2.6330
    8.685    2.7032
    8.700    2.6681
    8.715    2.5452
    8.730    2.4925
    8.745    2.5101
    8.760    2.3170
    8.775    2.2468
    8.790    2.1590
    8.805    2.1941
    8.820    2.3697
    8.835    2.1064
    8.850    2.1239
    8.865    2.0362
    8.880    2.0186
    8.895    2.1415
    8.910    2.0888
    8.925    2.1239
    8.940    2.2468
    8.955    2.1064
    8.970    1.9308
    8.985    2.2468
    9.000    1.9308
    9.015    2.3872
    9.030    2.0362
    9.045    2.0713
    9.060    2.2819
    9.075    1.8255
    9.090    1.8957
    9.105    2.2292
    9.120    2.1590
    9.135    2.4399
    9.150    2.0537
    9.165    2.1766
    9.180    2.0713
    9.195    2.1415
    9.210    2.1590
    9.225    2.2995
    9.240    2.4399
    9.255    2.2292
    9.270    1.9659
    9.285    2.0713
    9.300    2.6154
    9.315    2.6856
    9.330    2.7032
    9.345    2.6505
    9.360    3.0191
    9.375    2.9489
    9.390    3.9143
    9.405    4.2478
    9.420    4.6340
    9.435    5.4064
    9.450    5.9856
    9.465    6.5824
    9.480    7.1441
    9.495    9.5840
    9.510   10.5670
    9.525   10.7425
    9.540   10.5845
    9.555    9.0223
    9.570    7.0563
    9.585    5.2835
    9.600    3.6510
    9.615    2.8612
    9.630    2.4399
    9.645    2.5803
    9.660    2.4048
    9.675    2.2468
    9.690    2.6154
    9.705    2.0186
    9.720    2.0186
    9.735    2.0011
    9.750    2.0186
    9.765    1.8606
    9.780    2.1590
    9.795    2.1064
    9.810    2.1941
    9.825    2.2292
    9.840    1.7904
    9.855    2.0362
    9.870    2.1766
    9.885    2.1239
    9.900    1.9835
    9.915    2.0713
    9.930    2.1590
    9.945    2.1590
    9.960    1.8431
    9.975    1.8431
    9.990    2.0888
   10.005    2.0362
   10.020    2.0362
   10.035    2.0537
   10.050    2.4223
   10.065    2.5803
   10.080    2.2819
   10.095    2.2643
   10.110    2.0011
   10.125    2.0713
   10.140    2.4399
   10.155    2.6154
   10.170    2.4925
   10.185    2.8963
   10.200    2.8260
   10.215    3.1069
   10.230    3.4229
   10.245    3.9143
   10.260    3.9143
   10.275    4.4058
   10.290    5.3537
   10.305    5.3010
   10.320    4.9851
   10.335    3.6686
   10.350    3.3000
   10.365    2.7032
   10.380    2.3521
   10.395    1.8957
   10.410    2.0537
   10.425    2.0362
   10.440    2.1239
   10.455    2.1415
   10.470    2.2292
   10.485    2.1590
   10.500    2.0537
   10.515    1.8431
   10.530    2.2468
   10.545    2.2292
   10.560    2.0713
   10.575    2.0713
   10.590    2.0362
   10.605    1.9659
   10.620    2.0011
   10.635    2.1239
   10.650    2.2643
   10.665    2.0713
   10.680    2.1590
   10.695    2.1064
   10.710    2.0186
   10.725    2.1415
   10.740    2.0713
   10.755    2.2468
   10.770    2.1239
   10.785    2.0888
   10.800    2.0011
   10.815    2.0713
   10.830    1.9835
   10.845    2.2292
   10.860    2.1239
   10.875    2.2292
   10.890    2.7207
   10.905    2.7032
   10.920    2.9840
   10.935    2.8612
   10.950    3.1771
   10.965    3.9494
   10.980    4.2830
   10.995    5.2133
   11.010    4.9851
   11.025    4.7920
   11.040    4.7042
   11.055    4.2654
   11.070    3.4229
   11.085    2.8260
   11.100    2.4399
   11.115    2.2643
   11.130    2.3170
   11.145    2.0537
   11.160    2.1766
   11.175    2.0011
   11.190    2.0362
   11.205    2.1766
   11.220    2.2819
   11.235    2.0888
   11.250    1.8431
   11.265    1.8957
   11.280    2.0186
   11.295    2.0011
   11.310    2.2292
   11.325    2.0888
   11.340    1.7378
   11.355    1.8606
   11.370    2.0362
   11.385    2.2819
   11.400    1.9835
   11.415    2.1415
   11.430    1.8957
   11.445    1.9308
   11.460    2.1064
   11.475    2.0186
   11.490    2.0362
   11.505    2.0537
   11.520    2.3697
   11.535    2.3346
   11.550    2.1941
   11.565    2.4925
   11.580    2.7734
   11.595    3.1947
   11.610    3.1245
   11.625    3.2298
   11.640    4.2127
   11.655    4.7569
   11.670    5.4766
   11.685    5.2484
   11.700    5.1255
   11.715    4.4585
   11.730    4.0372
   11.745    3.7037
   11.760    3.0016
   11.775    2.3697
   11.790    2.6856
   11.805    2.0537
   11.820    1.7729
   11.835    2.1239
   11.850    2.1239
   11.865    2.0362
   11.880    2.0362
   11.895    2.0186
   11.910    1.7904
   11.925    1.8080
   11.940    1.9835
   11.955    1.9835
   11.970    2.1590
   11.985    1.9308
   12.000    1.6675
   12.015    1.7553
   12.030    1.9484
   12.045    1.9308
   12.060    1.9835
   12.075    1.8606
   12.090    2.0011
   12.105    1.8606
   12.120    1.9133
   12.135    1.8957
   12.150    1.9835
   12.165    2.1590
   12.180    1.9659
   12.195    2.0186
   12.210    2.2117
   12.225    1.9308
   12.240    2.1590
   12.255    2.2117
   12.270    2.4574
   12.285    2.3521
   12.300    2.5803
   12.315    2.8612
   12.330    2.6505
   12.345    2.6505
   12.360    2.4223
   12.375    2.2468
   12.390    2.2292
   12.405    2.2292
   12.420    2.0888
   12.435    1.8255
   12.450    1.8782
   12.465    2.0888
   12.480    2.1941
   12.495    2.1766
   12.510    1.9133
   12.525    2.0011
   12.540    1.7904
   12.555    1.8606
   12.570    1.9835
   12.585    2.1590
   12.600    1.8957
   12.615    1.9484
   12.630    1.9133
   12.645    1.8255
   12.660    1.8782
   12.675    1.8957
   12.690    2.1766
   12.705    2.0888
   12.720    1.9133
   12.735    1.9308
   12.750    1.9484
   12.765    1.9835
   12.780    1.9484
   12.795    2.1415
   12.810    2.1766
   12.825    2.3697
   12.840    2.1766
   12.855    2.6330
   12.870    2.8085
   12.885    3.3877
   12.900    3.2298
   12.915    3.8792
   12.930    4.0548
   12.945    3.4404
   12.960    3.5282
   12.975    3.5808
   12.990    3.0367
   13.005    2.5276
   13.020    2.1590
   13.035    2.2995
   13.050    1.8080
   13.065    1.7553
   13.080    1.9659
   13.095    1.9484
   13.110    1.8606
   13.125    1.8080
   13.140    1.7553
   13.155    1.7729
   13.170    1.9835
   13.185    1.8606
   13.200    2.0537
   13.215    2.1415
   13.230    1.9133
   13.245    1.7553
   13.260    1.7378
   13.275    2.0713
   13.290    2.0362
   13.305    1.7904
   13.320    1.8957
   13.335    1.8782
   13.350    2.2117
   13.365    2.0011
   13.380    1.8606
   13.395    1.7202
   13.410    2.0362
   13.425    2.0537
   13.440    2.4925
   13.455    2.3697
   13.470    2.5979
   13.485    2.6856
   13.500    2.7558
   13.515    2.5276
   13.530    2.6154
   13.545    2.5452
   13.560    2.6330
   13.575    2.6681
   13.590    2.2292
   13.605    1.7729
   13.620    1.9484
   13.635    1.9484
   13.650    1.8431
   13.665    1.7904
   13.680    1.7904
   13.695    1.9659
   13.710    2.0186
   13.725    1.7378
   13.740    2.1590
   13.755    2.0713
   13.770    1.9659
   13.785    2.1590
   13.800    2.0888
   13.815    1.9835
   13.830    1.7904
   13.845    1.9835
   13.860    1.8080
   13.875    1.8431
   13.890    1.7904
   13.905    1.6851
   13.920    1.8080
   13.935    1.9835
   13.950    1.7553
   13.965    2.1064
   13.980    2.2468
   13.995    2.5628
   14.010    2.9138
   14.025    3.1420
   14.040    3.3702
   14.055    3.3526
   14.070    3.4931
   14.085    3.5808
   14.100    3.3175
   14.115    2.8963
   14.130    2.6681
   14.145    2.3170
   14.160    2.2643
   14.175    2.0186
   14.190    1.8255
   14.205    1.9835
   14.220    1.9835
   14.235    2.2117
   14.250    2.0186
   14.265    1.8782
   14.280    1.9308
   14.295    1.6851
   14.310    1.6675
   14.325    1.8255
   14.340    2.0186
   14.355    1.7378
   14.370    1.9308
   14.385    1.7027
   14.400    1.8080
   14.415    1.7202
   14.430    1.8606
   14.445    1.9308
   14.460    1.8431
   14.475    1.6851
   14.490    1.8080
   14.505    1.6500
   14.520    1.6500
   14.535    1.8782
   14.550    1.8957
   14.565    2.0186
   14.580    2.0186
   14.595    1.8957
   14.610    2.0713
   14.625    2.0186
   14.640    2.0011
   14.655    2.0713
   14.670    2.2292
   14.685    2.0186
   14.700    1.9308
   14.715    2.0186
   14.730    1.7553
   14.745    1.8255
   14.760    1.9835
   14.775    2.1590
   14.790    2.0537
   14.805    1.8957
   14.820    1.9133
   14.835    1.6851
   14.850    1.9484
   14.865    2.1064
   14.880    2.0362
   14.895    1.9133
   14.910    1.6675
   14.925    1.8957
   14.940    2.0011
   14.955    1.8080
   14.970    2.1590
   14.985    2.0362
   15.000    2.0888
   15.015    1.9659
   15.030    1.9308
   15.045    1.8957
   15.060    1.8606
   15.075    2.2117
   15.090    2.3697
   15.105    2.1415
   15.120    2.3346
   15.135    2.3697
   15.150    2.2995
   15.165    2.3170
   15.180    2.2819
   15.195    2.1239
   15.210    2.0537
   15.225    1.8431
   15.240    1.5798
   15.255    1.8782
   15.270    1.8255
   15.285    1.8431
   15.300    1.8080
   15.315    1.7202
   15.330    1.9835
   15.345    2.1064
   15.360    1.9308
   15.375    2.0011
   15.390    1.9659
   15.405    1.8255
   15.420    1.8080
   15.435    2.0362
   15.450    1.8782
   15.465    1.6851
   15.480    1.9308
   15.495    1.9308
   15.510    2.1415
   15.525    2.1766
   15.540    1.7729
   15.555    1.8782
   15.570    1.9133
   15.585    1.8782
   15.600    1.9133
   15.615    1.6149
   15.630    1.8606
   15.645    1.8080
   15.660    1.9308
   15.675    2.0537
   15.690    1.8957
   15.705    2.1941
   15.720    2.0713
   15.735    1.7378
   15.750    1.9308
   15.765    2.1064
   15.780    1.9659
   15.795    1.9308
   15.810    1.9308
   15.825    2.1415
   15.840    2.0186
   15.855    1.7378
   15.870    1.7378
   15.885    1.7904
   15.900    1.7904
   15.915    1.9308
   15.930    2.1064
   15.945    1.8431
   15.960    1.9659
   15.975    2.0713
   15.990    2.0537
   16.005    1.9835
   16.020    1.8782
   16.035    2.0186
   16.050    2.1941
   16.065    2.2468
   16.080    2.4399
   16.095    2.0888
   16.110    2.4223
   16.125    2.1239
   16.140    2.0888
   16.155    2.1239
   16.170    2.1766
   16.185    2.0713
   16.200    2.0186
   16.215    1.9484
   16.230    1.8431
   16.245    1.8957
   16.260    2.0888
   16.275    2.1415
   16.290    1.7729
   16.305    1.7553
   16.320    1.9835
   16.335    1.8957
   16.350    2.1064
   16.365    1.8255
   16.380    2.1239
   16.395    1.8957
   16.410    1.9659
   16.425    2.0713
   16.440    2.1064
   16.455    2.0888
   16.470    2.0537
   16.485    1.9308
   16.500    2.0888
   16.515    2.0011
   16.530    1.9835
   16.545    2.1590
   16.560    2.4750
   16.575    2.4574
   16.590    2.4399
   16.605    2.5276
   16.620    2.3521
   16.635    2.2643
   16.650    2.1064
   16.665    2.0011
   16.680    2.0888
   16.695    1.9835
   16.710    1.9659
   16.725    1.8255
   16.740    1.7202
   16.755    2.1415
   16.770    2.2995
   16.785    2.0888
   16.800    2.0362
   16.815    2.0362
   16.830    1.9484
   16.845    1.7904
   16.860    1.9484
   16.875    2.0362
   16.890    1.9133
   16.905    2.3170
   16.920    2.0362
   16.935    2.2819
   16.950    2.0186
   16.965    2.2468
   16.980    2.7383
   16.995    2.8085
   17.010    3.0367
   17.025    3.4404
   17.040    3.3175
   17.055    3.4053
   17.070    3.3351
   17.085    3.4229
   17.100    2.6505
   17.115    2.4925
   17.130    2.5452
   17.145    2.0537
   17.160    1.9659
   17.175    1.8957
   17.190    1.7729
   17.205    2.0713
   17.220    1.9308
   17.235    1.8606
   17.250    1.8255
   17.265    1.8431
   17.280    2.1064
   17.295    1.9835
   17.310    1.8255
   17.325    2.1415
   17.340    2.0537
   17.355    1.8782
   17.370    1.9835
   17.385    2.1239
   17.400    2.1766
   17.415    1.8782
   17.430    2.0537
   17.445    2.3697
   17.460    2.4048
   17.475    2.1239
   17.490    2.5452
   17.505    2.4223
   17.520    2.4048
   17.535    2.1415
   17.550    1.8606
   17.565    2.0362
   17.580    2.0888
   17.595    1.8782
   17.610    1.9484
   17.625    2.0362
   17.640    1.7729
   17.655    1.7904
   17.670    2.0186
   17.685    1.7027
   17.700    1.6324
   17.715    1.9835
   17.730    1.8431
   17.745    2.4399
   17.760    2.2819
   17.775    2.1415
   17.790    2.1766
   17.805    1.9308
   17.820    1.9659
   17.835    1.8957
   17.850    1.9133
   17.865    1.8782
   17.880    2.4399
   17.895    2.5276
   17.910    2.4399
   17.925    2.1590
   17.940    2.2468
   17.955    2.2468
   17.970    2.0713
   17.985    2.0888
   18.000    2.0186
   18.015    1.9308
   18.030    1.7904
   18.045    1.8957
   18.060    1.9659
   18.075    1.7729
   18.090    1.8431
   18.105    1.9308
   18.120    2.1766
   18.135    2.0186
   18.150    1.7378
   18.165    1.9484
   18.180    2.2117
   18.195    2.1590
   18.210    2.2468
   18.225    1.8782
   18.240    2.0186
   18.255    2.2643
   18.270    2.2117
   18.285    1.9659
   18.300    2.2292
   18.315    2.4048
   18.330    2.4925
   18.345    2.5276
   18.360    2.4048
   18.375    2.2819
   18.390    2.1766
   18.405    2.3521
   18.420    2.1415
   18.435    2.2117
   18.450    1.8957
   18.465    1.9659
   18.480    1.9659
   18.495    1.7202
   18.510    1.9835
   18.525    2.0537
   18.540    2.1766
   18.555    2.0537
   18.570    1.9133
   18.585    1.9133
   18.600    2.0713
   18.615    1.8255
   18.630    1.8606
   18.645    1.8606
   18.660    2.1415
   18.675    2.0362
   18.690    1.6851
   18.705    1.9835
   18.720    1.7378
   18.735    2.1239
   18.750    2.0888
   18.765    1.8255
   18.780    2.1766
   18.795    2.0362
   18.810    2.5101
   18.825    2.4574
   18.840    2.1064
   18.855    2.1590
   18.870    2.2292
   18.885    2.0537
   18.900    1.8080
   18.915    1.9308
   18.930    1.8782
   18.945    1.9484
   18.960    1.9133
   18.975    1.8606
   18.990    1.9133
   19.005    2.0888
   19.020    1.9659
   19.035    1.8431
   19.050    1.9308
   19.065    1.9133
   19.080    2.1064
   19.095    2.2292
   19.110    1.9308
   19.125    1.9659
   19.140    1.9308
   19.155    1.9835
   19.170    2.0713
   19.185    1.9308
   19.200    2.1064
   19.215    2.0011
   19.230    2.0362
   19.245    2.1064
   19.260    1.8782
   19.275    1.9835
   19.290    1.8606
   19.305    2.0011
   19.320    2.1239
   19.335    2.0713
   19.350    2.0186
   19.365    1.8606
   19.380    2.0362
   19.395    1.9308
   19.410    2.1941
   19.425    2.1064
   19.440    1.8957
   19.455    2.0186
   19.470    2.1941
   19.485    2.1941
   19.500    1.9659
   19.515    1.9484
   19.530    2.3521
   19.545    2.3521
   19.560    2.4750
   19.575    2.5803
   19.590    2.3521
   19.605    2.4925
   19.620    2.5276
   19.635    2.2292
   19.650    2.2643
   19.665    1.9835
   19.680    2.0362
   19.695    2.1766
   19.710    2.1590
   19.725    2.1064
   19.740    1.8080
   19.755    1.5798
   19.770    2.0537
   19.785    2.0888
   19.800    2.1239
   19.815    2.1766
   19.830    2.4048
   19.845    2.3170
   19.860    2.0011
   19.875    2.1415
   19.890    2.0537
   19.905    1.9484
   19.920    1.8255
   19.935    2.2117
   19.950    2.0362
   19.965    2.2292
   19.980    2.2819
   19.995    2.0713
   20.010    1.9133
   20.025    2.1239
   20.040    2.0713
   20.055    1.9484
   20.070    2.0186
   20.085    2.0537
   20.100    1.8080
   20.115    1.9308
   20.130    2.0011
   20.145    2.1415
   20.160    2.2643
   20.175    2.2819
   20.190    1.9308
   20.205    2.0186
   20.220    1.7553
   20.235    2.1064
   20.250    2.1941
   20.265    2.2117
   20.280    2.2995
   20.295    2.4399
   20.310    2.5452
   20.325    2.4925
   20.340    2.6856
   20.355    3.1947
   20.370    3.3877
   20.385    3.1947
   20.400    2.8787
   20.415    2.5452
   20.430    2.4750
   20.445    2.5628
   20.460    2.3697
   20.475    1.8080
   20.490    2.1415
   20.505    2.0713
   20.520    1.7378
   20.535    1.9484
   20.550    1.7904
   20.565    2.0362
   20.580    2.0713
   20.595    1.8782
   20.610    2.1941
   20.625    1.9835
   20.640    2.0537
   20.655    1.7904
   20.670    1.7729
   20.685    1.9835
   20.700    2.1415
   20.715    1.8782
   20.730    2.0713
   20.745    2.2643
   20.760    1.9133
   20.775    2.3170
   20.790    2.1239
   20.805    2.0362
   20.820    1.7027
   20.835    1.8255
   20.850    2.1590
   20.865    2.1239
   20.880    2.0362
   20.895    2.0888
   20.910    2.2643
   20.925    2.1590
   20.940    2.0537
   20.955    2.3346
   20.970    1.8957
   20.985    1.8782
   21.000    2.0713
   21.015    1.8957
   21.030    2.0011
   21.045    1.8957
   21.060    2.0713
   21.075    1.9308
   21.090    2.0362
   21.105    1.8431
   21.120    1.9484
   21.135    1.9484
   21.150    2.0888
   21.165    1.9835
   21.180    2.1766
   21.195    1.9659
   21.210    2.1064
   21.225    2.0888
   21.240    1.7202
   21.255    1.8782
   21.270    2.0186
   21.285    2.0186
   21.300    1.9308
   21.315    1.9835
   21.330    2.0888
   21.345    1.9835
   21.360    1.7378
   21.375    1.8782
   21.390    2.1590
   21.405    1.8606
   21.420    1.8782
   21.435    2.0888
   21.450    2.0186
   21.465    1.8606
   21.480    2.1766
   21.495    2.0186
   21.510    1.9659
   21.525    2.1064
   21.540    2.2468
   21.555    1.9133
   21.570    1.8782
   21.585    1.9308
   21.600    1.9484
   21.615    1.7553
   21.630    2.0537
   21.645    2.1941
   21.660    2.0713
   21.675    2.1766
   21.690    2.1415
   21.705    2.2117
   21.720    2.0011
   21.735    2.1766
   21.750    2.0713
   21.765    1.9484
   21.780    2.2995
   21.795    2.4750
   21.810    2.4574
   21.825    2.3521
   21.840    2.3170
   21.855    2.3170
   21.870    2.5452
   21.885    2.5979
   21.900    2.3170
   21.915    2.1415
   21.930    2.0011
   21.945    2.1064
   21.960    2.2292
   21.975    2.3872
   21.990    2.1590
   22.005    2.3170
   22.020    2.0537
   22.035    2.0537
   22.050    2.1766
   22.065    2.2819
   22.080    2.0011
   22.095    1.9659
   22.110    2.0011
   22.125    2.2643
   22.140    2.0888
   22.155    2.1590
   22.170    1.9659
   22.185    2.1766
   22.200    2.2117
   22.215    2.4223
   22.230    2.2643
   22.245    2.2117
   22.260    2.0713
   22.275    2.1590
   22.290    2.2643
   22.305    2.0362
   22.320    2.3521
   22.335    2.3697
   22.350    2.1766
   22.365    2.0362
   22.380    2.2117
   22.395    2.3872
   22.410    2.1590
   22.425    2.1064
   22.440    2.1415
   22.455    2.3346
   22.470    2.7207
   22.485    2.4574
   22.500    2.9840
   22.515    3.1420
   22.530    3.3175
   22.545    3.2824
   22.560    3.0367
   22.575    2.8436
   22.590    2.7383
   22.605    2.7734
   22.620    2.9665
   22.635    2.7558
   22.650    2.3346
   22.665    2.1941
   22.680    2.4574
   22.695    2.2819
   22.710    1.9484
   22.725    2.0362
   22.740    2.1064
   22.755    2.1239
   22.770    1.8782
   22.785    2.4223
   22.800    2.1590
   22.815    2.4925
   22.830    2.7558
   22.845    2.6154
   22.860    2.7558
   22.875    3.2824
   22.890    3.5106
   22.905    3.2122
   22.920    3.2824
   22.935    3.1069
   22.950    3.1947
   22.965    2.7734
   22.980    2.0713
   22.995    2.2468
   23.010    2.2117
   23.025    2.2819
   23.040    2.1941
   23.055    1.9133
   23.070    2.0713
   23.085    2.2819
   23.100    2.2117
   23.115    2.0362
   23.130    2.1239
   23.145    2.1064
   23.160    2.1415
   23.175    2.4223
   23.190    2.0537
   23.205    2.3521
   23.220    2.4048
   23.235    2.4048
   23.250    2.4925
   23.265    2.1766
   23.280    2.1941
   23.295    2.2643
   23.310    2.1766
   23.325    2.1064
   23.340    2.1239
   23.355    2.1064
   23.370    2.0888
   23.385    1.8606
   23.400    2.0537
   23.415    2.0888
   23.430    2.2995
   23.445    2.1064
   23.460    2.1941
   23.475    2.1239
   23.490    2.1064
   23.505    1.9133
   23.520    1.9308
   23.535    1.9484
   23.550    1.8431
   23.565    2.0011
   23.580    2.0011
   23.595    1.9835
   23.610    2.1239
   23.625    1.8080
   23.640    2.1766
   23.655    2.3346
   23.670    2.2819
   23.685    1.9484
   23.700    2.0186
   23.715    2.2468
   23.730    2.2995
   23.745    2.3697
   23.760    2.0888
   23.775    2.0362
   23.790    2.2995
   23.805    2.2468
   23.820    2.1064
   23.835    2.0011
   23.850    2.2468
   23.865    2.3170
   23.880    2.4574
   23.895    2.2995
   23.910    2.2819
   23.925    2.5452
   23.940    2.5628
   23.955    2.1590
   23.970    2.0011
   23.985    2.4048
   24.000    2.4048
   24.015    1.8782
   24.030    1.8957
   24.045    2.0186
   24.060    1.9133
   24.075    2.0713
   24.090    2.0713
   24.105    2.0011
   24.120    1.8957
   24.135    2.1415
   24.150    2.1239
   24.165    2.0713
   24.180    2.1239
   24.195    1.9133
   24.210    2.1590
   24.225    2.1239
   24.240    1.9835
   24.255    1.9835
   24.270    1.7904
   24.285    1.9659
   24.300    1.9308
   24.315    1.9133
   24.330    2.0537
   24.345    1.9133
   24.360    1.8606
   24.375    1.8606
   24.390    2.2292
   24.405    2.0713
   24.420    2.0888
   24.435    2.0888
   24.450    2.0537
   24.465    2.2468
   24.480    2.1239
   24.495    2.2819
   24.510    2.3170
   24.525    2.2643
   24.540    2.1941
   24.555    1.8782
   24.570    1.9308
   24.585    2.2995
   24.600    2.0888
   24.615    1.9308
   24.630    2.0888
   24.645    2.0888
   24.660    1.7904
   24.675    2.0888
   24.690    2.1941
   24.705    2.2995
   24.720    1.8957
   24.735    2.0713
   24.750    1.7378
   24.765    2.0186
   24.780    2.1766
   24.795    2.1415
   24.810    1.7729
   24.825    1.9484
   24.840    1.8782
   24.855    1.9835
   24.870    2.2292
   24.885    2.2819
   24.900    2.3346
   24.915    1.9659
   24.930    1.8080
   24.945    1.9659
   24.960    2.0186
   24.975    2.3346
   24.990    2.1239
   25.005    2.1064
   25.020    2.3170
   25.035    1.9133
   25.050    1.9835
   25.065    1.8431
   25.080    1.8080
   25.095    2.2117
   25.110    2.3697
   25.125    2.0713
   25.140    1.9308
   25.155    2.1766
   25.170    2.0362
   25.185    2.2117
   25.200    2.2117
   25.215    2.2995
   25.230    2.1590
   25.245    2.2995
   25.260    2.0713
   25.275    2.2468
   25.290    2.1766
   25.305    2.0362
   25.320    2.2819
   25.335    1.7378
   25.350    1.9659
   25.365    2.0888
   25.380    1.9659
   25.395    2.0362
   25.410    1.9133
   25.425    1.9659
   25.440    2.0888
   25.455    2.0888
   25.470    2.2117
   25.485    2.2117
   25.500    2.1239
   25.515    2.2643
   25.530    2.0537
   25.545    1.7553
   25.560    1.8431
   25.575    1.9484
   25.590    2.0537
   25.605    1.7729
   25.620    1.8080
   25.635    2.1239
   25.650    2.3872
   25.665    1.7202
   25.680    2.1239
   25.695    1.9484
   25.710    2.0186
   25.725    2.1415
   25.740    2.1239
   25.755    2.5101
   25.770    2.7734
   25.785    2.5803
   25.800    2.7734
   25.815    2.5979
   25.830    2.6681
   25.845    2.8085
   25.860    2.4925
   25.875    2.3521
   25.890    2.1766
   25.905    2.1239
   25.920    2.2643
   25.935    2.1064
   25.950    2.3170
   25.965    2.0186
   25.980    1.8606
   25.995    2.2819
   26.010    1.8080
   26.025    1.8080
   26.040    2.1064
   26.055    1.9484
   26.070    1.8782
   26.085    2.0011
   26.100    1.9835
   26.115    1.8782
   26.130    2.0011
   26.145    2.0186
   26.160    1.8782
   26.175    2.1766
   26.190    2.2468
   26.205    2.0186
   26.220    2.0537
   26.235    2.0537
   26.250    2.0186
   26.265    2.1941
   26.280    1.9484
   26.295    2.0362
   26.310    2.0888
   26.325    2.3521
   26.340    2.0011
   26.355    1.8957
   26.370    1.8606
   26.385    2.0011
   26.400    1.9835
   26.415    1.8431
   26.430    2.1415
   26.445    2.1941
   26.460    1.9484
   26.475    2.1766
   26.490    1.9659
   26.505    1.8782
   26.520    2.1766
   26.535    2.0362
   26.550    1.8606
   26.565    1.7729
   26.580    1.7027
   26.595    1.6851
   26.610    2.1064
   26.625    1.8080
   26.640    1.7729
   26.655    2.0011
   26.670    1.8431
   26.685    1.8255
   26.700    2.1415
   26.715    1.9484
   26.730    1.8957
   26.745    1.8782
   26.760    2.3872
   26.775    2.4223
   26.790    2.0011
   26.805    1.8957
   26.820    2.0888
   26.835    1.8255
   26.850    1.7378
   26.865    1.7904
   26.880    2.0011
   26.895    2.1415
   26.910    2.2292
   26.925    1.9133
   26.940    2.3697
   26.955    2.2468
   26.970    2.2995
   26.985    2.4048
   27.000    2.1766
   27.015    2.4399
   27.030    2.3346
   27.045    2.3697
   27.060    2.2292
   27.075    2.1941
   27.090    2.1415
   27.105    2.0186
   27.120    2.0888
   27.135    2.0713
   27.150    1.8255
   27.165    1.6675
   27.180    1.7027
   27.195    2.0713
   27.210    1.9133
   27.225    2.1590
   27.240    1.9484
   27.255    1.9484
   27.270    1.8431
   27.285    1.9659
   27.300    1.9308
   27.315    1.7202
   27.330    1.8957
   27.345    2.0362
   27.360    1.8606
   27.375    1.8080
   27.390    1.6500
   27.405    1.8782
   27.420    1.8255
   27.435    1.7729
   27.450    1.8255
   27.465    1.8957
   27.480    1.8080
   27.495    1.9659
   27.510    1.7553
   27.525    1.8255
   27.540    2.1941
   27.555    1.7729
   27.570    1.8431
   27.585    1.8255
   27.600    1.8782
   27.615    2.0537
   27.630    2.0713
   27.645    2.0011
   27.660    2.0888
   27.675    1.7027
   27.690    1.7378
   27.705    2.1415
   27.720    2.2292
   27.735    2.1590
   27.750    1.8782
   27.765    1.9659
   27.780    1.9484
   27.795    1.8255
   27.810    1.8431
   27.825    1.8080
   27.840    1.8782
   27.855    2.1239
   27.870    1.7904
   27.885    1.7553
   27.900    1.7027
   27.915    1.8957
   27.930    2.1239
   27.945    1.9308
   27.960    1.9133
   27.975    2.0362
   27.990    2.0888
   28.005    1.9835
   28.020    1.8782
   28.035    1.7553
   28.050    1.7904
   28.065    1.8957
   28.080    1.8782
   28.095    2.1941
   28.110    2.1766
   28.125    2.1766
   28.140    1.8957
   28.155    2.3170
   28.170    2.3346
   28.185    2.2468
   28.200    2.1941
   28.215    1.9659
   28.230    2.0713
   28.245    1.8957
   28.260    1.7904
   28.275    2.0362
   28.290    1.8080
   28.305    2.0186
   28.320    1.8957
   28.335    1.8957
   28.350    2.0011
   28.365    2.0888
   28.380    1.9484
   28.395    2.0186
   28.410    2.0537
   28.425    1.9835
   28.440    2.2292
   28.455    2.2117
   28.470    2.0537
   28.485    2.0362
   28.500    2.2819
   28.515    2.1239
   28.530    1.7729
   28.545    1.7027
   28.560    1.7729
   28.575    1.6851
   28.590    2.0713
   28.605    1.8431
   28.620    1.6851
   28.635    1.6500
   28.650    1.5973
   28.665    1.7729
   28.680    1.9835
   28.695    1.8255
   28.710    1.8957
   28.725    1.9133
   28.740    1.8255
   28.755    2.1239
   28.770    2.1064
   28.785    1.7904
   28.800    1.6675
   28.815    1.5271
   28.830    1.7729
   28.845    1.8782
   28.860    1.6149
   28.875    1.8255
   28.890    1.8606
   28.905    1.9659
   28.920    1.9484
   28.935    2.0186
   28.950    1.9308
   28.965    1.9659
   28.980    2.1415
   28.995    2.0888
   29.010    1.9133
   29.025    1.7202
   29.040    1.9308
   29.055    1.7553
   29.070    1.7202
   29.085    2.3346
   29.100    1.7553
   29.115    1.6851
   29.130    1.9659
   29.145    1.7553
   29.160    1.6149
   29.175    1.6851
   29.190    1.7027
   29.205    1.6149
   29.220    1.7378
   29.235    2.0362
   29.250    1.9484
   29.265    1.8255
   29.280    2.1941
   29.295    2.5101
   29.310    2.1766
   29.325    1.9308
   29.340    1.8957
   29.355    1.8782
   29.370    2.2468
   29.385    1.9308
   29.400    1.8782
   29.415    1.7378
   29.430    1.8080
   29.445    1.9835
   29.460    1.7378
   29.475    1.7729
   29.490    1.7027
   29.505    1.5798
   29.520    1.8431
   29.535    1.7378
   29.550    1.8431
   29.565    1.9835
   29.580    1.7729
   29.595    1.6675
   29.610    1.9484
   29.625    1.4920
   29.640    1.7027
   29.655    1.9835
   29.670    1.7027
   29.685    1.8606
   29.700    2.0888
   29.715    1.6675
   29.730    1.5622
   29.745    1.7027
   29.760    1.7202
   29.775    1.9308
   29.790    1.8431
   29.805    1.7904
   29.820    1.8080
   29.835    2.0713
   29.850    1.8431
   29.865    1.9835
   29.880    2.0011
   29.895    1.8782
   29.910    1.7553
   29.925    1.6324
   29.940    1.7729
   29.955    1.8782
   29.970    1.7378
   29.985    1.7904
   30.000    2.0011
   30.015    1.9835
   30.030    1.5447
   30.045    1.7378
   30.060    2.0186
   30.075    1.9484
   30.090    2.0011
   30.105    2.0362
   30.120    1.7904
   30.135    1.8606
   30.150    2.0186
   30.165    1.9484
   30.180    1.7904
   30.195    1.7729
   30.210    1.6851
   30.225    1.6851
   30.240    1.8080
   30.255    1.7729
   30.270    1.8957
   30.285    2.0186
   30.300    2.1064
   30.315    1.7729
   30.330    1.6851
   30.345    1.7027
   30.360    1.6149
   30.375    1.8782
   30.390    1.7202
   30.405    1.8606
   30.420    1.8782
   30.435    2.2995
   30.450    1.9133
   30.465    1.9484
   30.480    1.8255
   30.495    1.7904
   30.510    2.0186
   30.525    1.7729
   30.540    1.7553
   30.555    1.6675
   30.570    1.8606
   30.585    1.9835
   30.600    1.8957
   30.615    2.0362
   30.630    1.8606
   30.645    1.6324
   30.660    1.8431
   30.675    1.7027
   30.690    1.8255
   30.705    1.9308
   30.720    1.7378
   30.735    1.8255
   30.750    1.8957
   30.765    1.8957
   30.780    1.7729
   30.795    1.6149
   30.810    1.6149
   30.825    2.0011
   30.840    1.7904
   30.855    2.0011
   30.870    1.6324
   30.885    1.7027
   30.900    1.7202
   30.915    1.7202
   30.930    1.5798
   30.945    1.7904
   30.960    1.6851
   30.975    1.7729
   30.990    1.8080
   31.005    1.6675
   31.020    1.5271
   31.035    1.4920
   31.050    1.6851
   31.065    1.5447
   31.080    1.4042
   31.095    1.5798
   31.110    1.5973
   31.125    1.5096
   31.140    1.5798
   31.155    1.8431
   31.170    1.9308
   31.185    1.6675
   31.200    1.5973
   31.215    1.6324
   31.230    1.7378
   31.245    1.8606
   31.260    1.8080
   31.275    1.7729
   31.290    1.7553
   31.305    1.6851
   31.320    1.8782
   31.335    1.6500
   31.350    2.0011
   31.365    1.8431
   31.380    1.7553
   31.395    1.6324
   31.410    1.8431
   31.425    1.7027
   31.440    1.6851
   31.455    1.9133
   31.470    1.7027
   31.485    1.6324
   31.500    1.8431
   31.515    1.7904
   31.530    1.9835
   31.545    1.7904
   31.560    1.7202
   31.575    1.5271
   31.590    1.9133
   31.605    1.7027
   31.620    1.6500
   31.635    1.7027
   31.650    1.7202
   31.665    1.6675
   31.680    1.7027
   31.695    1.5447
   31.710    1.7027
   31.725    1.5973
   31.740    1.9484
   31.755    1.7904
   31.770    1.5973
   31.785    1.8080
   31.800    1.7378
   31.815    1.6851
   31.830    1.7027
   31.845    1.7729
   31.860    1.5622
   31.875    1.6149
   31.890    1.7027
   31.905    1.7202
   31.920    1.8606
   31.935    1.7027
   31.950    1.6675
   31.965    1.7202
   31.980    1.5096
   31.995    1.8606
   32.010    1.5447
   32.025    1.6149
   32.040    1.5096
   32.055    1.6500
   32.070    1.8255
   32.085    1.7904
   32.100    1.4218
   32.115    1.5447
   32.130    1.5798
   32.145    1.7378
   32.160    1.7378
   32.175    1.8431
   32.190    1.8431
   32.205    1.5622
   32.220    1.6500
   32.235    1.6851
   32.250    1.5798
   32.265    1.7378
   32.280    1.5622
   32.295    1.7729
   32.310    1.6851
   32.325    1.7027
   32.340    1.8782
   32.355    1.5447
   32.370    1.6675
   32.385    1.5096
   32.400    1.5271
   32.415    1.6324
   32.430    1.7553
   32.445    1.5622
   32.460    1.5447
   32.475    1.7027
   32.490    1.5798
   32.505    1.3340
   32.520    1.4569
   32.535    1.5622
   32.550    1.7553
   32.565    1.6149
   32.580    1.7904
   32.595    1.6851
   32.610    1.4745
   32.625    1.7202
   32.640    1.7378
   32.655    1.6851
   32.670    1.5271
   32.685    1.7027
   32.700    1.7027
   32.715    1.8080
   32.730    1.4042
   32.745    1.7729
   32.760    1.7729
   32.775    1.4394
   32.790    1.8606
   32.805    1.6324
   32.820    1.6500
   32.835    1.7378
   32.850    1.8431
   32.865    1.8782
   32.880    1.6324
   32.895    1.6500
   32.910    1.5096
   32.925    1.6149
   32.940    1.8255
   32.955    1.7729
   32.970    1.7027
   32.985    1.6851
   33.000    1.3340
   33.015    1.4920
   33.030    1.7027
   33.045    1.3691
   33.060    1.6675
   33.075    1.6500
   33.090    1.5096
   33.105    1.5798
   33.120    1.4218
   33.135    1.7904
   33.150    1.6851
   33.165    1.7553
   33.180    1.7378
   33.195    1.7202
   33.210    1.5096
   33.225    1.6500
   33.240    1.6149
   33.255    1.5622
   33.270    1.7378
   33.285    1.6851
   33.300    1.4745
   33.315    1.8431
   33.330    1.4569
   33.345    1.4569
   33.360    1.6675
   33.375    1.6324
   33.390    1.5096
   33.405    1.5973
   33.420    1.6851
   33.435    1.5271
   33.450    1.6324
   33.465    1.6675
   33.480    1.2638
   33.495    1.1761
   33.510    1.5447
   33.525    1.3867
   33.540    1.5798
   33.555    1.7904
   33.570    1.6149
   33.585    1.3867
   33.600    1.5271
   33.615    1.6149
   33.630    1.5622
   33.645    1.5271
   33.660    1.5096
   33.675    1.4394
   33.690    1.5622
   33.705    1.5973
   33.720    1.2463
   33.735    1.4394
   33.750    1.5973
   33.765    1.7378
   33.780    1.7202
   33.795    1.4394
   33.810    1.7202
   33.825    1.5622
   33.840    1.5447
   33.855    1.6675
   33.870    1.7729
   33.885    1.8255
   33.900    1.7904
   33.915    1.7027
   33.930    1.7904
   33.945    1.4394
   33.960    1.6851
   33.975    1.4218
   33.990    1.5447
   34.005    1.6851
   34.020    1.4394
   34.035    1.4218
   34.050    1.2814
   34.065    1.4394
   34.080    1.4745
   34.095    1.4218
   34.110    1.6851
   34.125    1.6851
   34.140    1.6500
   34.155    1.5973
   34.170    1.3340
   34.185    1.5447
   34.200    1.4394
   34.215    1.6149
   34.230    1.4569
   34.245    1.5973
   34.260    1.3867
   34.275    1.6500
   34.290    1.4218
   34.305    1.3691
   34.320    1.2112
   34.335    1.5798
   34.350    1.4920
   34.365    1.4394
   34.380    1.2989
   34.395    1.4218
   34.410    1.7553
   34.425    1.3867
   34.440    1.4042
   34.455    1.5271
   34.470    1.3516
   34.485    1.4042
   34.500    1.3165
   34.515    1.4218
   34.530    1.2463
   34.545    1.4920
   34.560    1.4218
   34.575    1.4920
   34.590    1.5798
   34.605    1.5622
   34.620    1.5096
   34.635    1.4569
   34.650    1.5798
   34.665    1.4745
   34.680    1.4745
   34.695    1.4569
   34.710    1.4920
   34.725    1.4394
   34.740    1.2814
   34.755    1.5622
   34.770    1.5973
   34.785    1.7729
   34.800    1.6500
   34.815    1.4920
   34.830    1.8080
   34.845    1.8080
   34.860    1.4042
   34.875    1.1585
   34.890    1.2638
   34.905    1.5096
   34.920    1.3516
   34.935    1.4218
   34.950    1.4042
   34.965    1.4394
   34.980    1.4042
   34.995    1.5271
   35.010    1.4745
   35.025    1.4569
   35.040    1.5973
   35.055    1.3340
   35.070    1.4394
   35.085    1.3165
   35.100    1.5798
   35.115    1.5096
   35.130    1.4920
   35.145    1.6324
   35.160    1.2989
   35.175    1.4920
   35.190    1.2638
   35.205    1.3867
   35.220    1.3165
   35.235    1.3165
   35.250    1.3691
   35.265    1.5271
   35.280    1.2638
   35.295    1.3516
   35.310    1.3867
   35.325    1.4745
   35.340    1.4920
   35.355    1.4394
   35.370    1.4042
   35.385    1.3867
   35.400    1.3340
   35.415    1.3165
   35.430    1.4394
   35.445    1.2287
   35.460    1.4745
   35.475    1.5973
   35.490    1.3691
   35.505    1.3340
   35.520    1.5447
   35.535    1.2638
   35.550    1.5271
   35.565    1.3516
   35.580    1.4569
   35.595    1.4218
   35.610    1.2814
   35.625    1.3867
   35.640    1.1410
   35.655    1.5973
   35.670    1.3691
   35.685    1.3340
   35.700    1.5447
   35.715    1.7378
   35.730    1.6324
   35.745    1.4042
   35.760    1.4569
   35.775    1.3516
   35.790    1.5798
   35.805    1.4745
   35.820    1.2638
   35.835    1.5798
   35.850    1.4218
   35.865    1.2814
   35.880    1.4218
   35.895    1.5271
   35.910    1.5096
   35.925    1.2638
   35.940    1.4569
   35.955    1.5973
   35.970    1.4042
   35.985    1.5096
   36.000    1.4218
   36.015    1.0005
   36.030    1.2287
   36.045    1.5622
   36.060    1.5798
   36.075    1.6851
   36.090    1.4569
   36.105    1.4042
   36.120    1.3165
   36.135    1.4745
   36.150    1.5798
   36.165    1.5622
   36.180    1.4394
   36.195    1.4569
   36.210    1.3867
   36.225    1.4920
   36.240    1.4920
   36.255    1.2112
   36.270    1.4218
   36.285    1.4745
   36.300    1.2638
   36.315    1.3340
   36.330    1.4569
   36.345    1.2989
   36.360    1.2814
   36.375    1.3867
   36.390    1.3516
   36.405    1.4218
   36.420    1.2814
   36.435    1.1936
   36.450    1.3165
   36.465    1.1585
   36.480    1.1936
   36.495    1.3691
   36.510    1.4218
   36.525    1.2989
   36.540    1.4569
   36.555    1.2814
   36.570    1.4745
   36.585    1.4218
   36.600    1.3691
   36.615    1.4920
   36.630    1.3867
   36.645    1.5271
   36.660    1.4920
   36.675    1.5973
   36.690    1.3867
   36.705    1.3340
   36.720    1.3691
   36.735    1.4745
   36.750    1.2989
   36.765    1.2989
   36.780    1.4218
   36.795    1.2112
   36.810    1.1761
   36.825    1.3691
   36.840    1.4394
   36.855    1.4218
   36.870    1.2463
   36.885    1.3867
   36.900    1.2112
   36.915    1.1761
   36.930    1.2287
   36.945    1.1585
   36.960    1.5798
   36.975    1.4920
   36.990    1.5096
   37.005    1.3165
   37.020    1.3340
   37.035    1.3165
   37.050    1.3340
   37.065    1.5622
   37.080    1.5447
   37.095    1.1410
   37.110    1.5096
   37.125    1.3691
   37.140    1.4218
   37.155    1.3691
   37.170    1.0883
   37.185    1.1410
   37.200    1.1585
   37.215    1.1936
   37.230    1.0883
   37.245    0.9654
   37.260    1.2463
   37.275    1.2638
   37.290    1.5973
   37.305    1.1936
   37.320    1.2112
   37.335    1.2989
   37.350    1.3691
   37.365    1.2638
   37.380    1.2638
   37.395    1.4394
   37.410    1.2287
   37.425    1.1585
   37.440    1.3165
   37.455    1.4042
   37.470    1.5096
   37.485    1.3691
   37.500    1.5096
   37.515    1.3165
   37.530    1.1585
   37.545    1.3165
   37.560    1.3691
   37.575    1.2638
   37.590    1.4218
   37.605    1.3691
   37.620    1.1234
   37.635    1.2463
   37.650    1.1936
   37.665    1.2989
   37.680    1.2638
   37.695    1.3691
   37.710    1.3165
   37.725    1.1410
   37.740    1.0532
   37.755    1.0707
   37.770    1.0883
   37.785    1.2287
   37.800    1.2989
   37.815    1.3340
   37.830    1.4218
   37.845    1.1585
   37.860    1.2638
   37.875    1.3340
   37.890    1.1410
   37.905    1.2112
   37.920    1.5798
   37.935    1.3516
   37.950    1.2989
   37.965    1.2287
   37.980    1.1936
   37.995    1.3691
   38.010    1.3516
   38.025    1.1585
   38.040    1.3340
   38.055    1.1585
   38.070    1.1761
   38.085    1.3516
   38.100    1.3516
   38.115    1.1761
   38.130    1.3165
   38.145    1.1058
   38.160    1.3340
   38.175    1.1234
   38.190    1.0883
   38.205    1.2112
   38.220    1.4920
   38.235    1.2287
   38.250    1.1234
   38.265    1.2814
   38.280    1.4042
   38.295    1.2287
   38.310    1.3867
   38.325    1.4394
   38.340    1.4920
   38.355    1.2287
   38.370    1.1058
   38.385    1.2814
   38.400    1.2814
   38.415    1.2989
   38.430    1.2287
   38.445    1.2989
   38.460    1.2638
   38.475    1.1936
   38.490    1.0356
   38.505    1.3516
   38.520    1.3340
   38.535    1.2112
   38.550    1.1585
   38.565    1.1936
   38.580    1.1410
   38.595    1.4920
   38.610    1.2112
   38.625    1.0707
   38.640    1.2463
   38.655    1.3867
   38.670    1.1936
   38.685    1.2112
   38.700    1.0883
   38.715    1.1585
   38.730    1.1234
   38.745    1.2989
   38.760    1.2638
   38.775    1.2638
   38.790    1.1410
   38.805    1.1410
   38.820    1.2989
   38.835    1.5096
   38.850    1.5096
   38.865    1.1585
   38.880    0.9830
   38.895    1.1058
   38.910    1.2989
   38.925    1.1585
   38.940    1.1585
   38.955    1.0707
   38.970    1.2287
   38.985    1.2287
   39.000    1.1585
   39.015    1.2638
   39.030    1.2463
   39.045    1.1410
   39.060    1.1410
   39.075    1.2287
   39.090    1.3867
   39.105    1.1936
   39.120    1.1585
   39.135    1.2638
   39.150    1.3691
   39.165    1.3516
   39.180    1.2287
   39.195    1.2287
   39.210    1.4218
   39.225    1.2638
   39.240    1.2989
   39.255    1.2463
   39.270    1.3867
   39.285    1.3516
   39.300    1.4394
   39.315    1.1585
   39.330    1.4745
   39.345    1.1234
   39.360    1.2814
   39.375    1.1761
   39.390    1.1410
   39.405    1.0883
   39.420    1.1761
   39.435    1.1234
   39.450    1.2463
   39.465    1.1234
   39.480    1.3340
   39.495    1.3340
   39.510    1.3165
   39.525    1.0883
   39.540    1.1410
   39.555    1.2989
   39.570    1.2814
   39.585    1.0005
   39.600    1.3165
   39.615    1.3691
   39.630    1.1410
   39.645    1.1410
   39.660    1.4569
   39.675    1.2814
   39.690    1.0883
   39.705    1.4042
   39.720    1.2989
   39.735    1.0181
   39.750    1.3165
   39.765    1.2638
   39.780    1.0356
   39.795    1.2463
   39.810    1.1058
   39.825    1.1936
   39.840    1.2638
   39.855    1.1936
   39.870    1.2814
   39.885    1.2463
   39.900    1.1410
   39.915    1.3516
   39.930    1.1585
   39.945    1.2638
   39.960    1.1585
   39.975    1.3340
   39.990    1.1058
