    1.500   20.6600
    1.515   21.4148
    1.530   19.9228
    1.545   20.2212
    1.560   20.2563
    1.575   19.4313
    1.590   18.8696
    1.605   19.5015
    1.620   17.9744
    1.635   17.8866
    1.650   18.7292
    1.665   18.0446
    1.680   18.2201
    1.695   18.2201
    1.710   17.3425
    1.725   17.7462
    1.740   17.3600
    1.755   17.1494
    1.770   17.4127
    1.785   17.0792
    1.800   16.2191
    1.815   17.2020
    1.830   17.0441
    1.845   16.3419
    1.860   15.6925
    1.875   16.3946
    1.890   16.3419
    1.905   15.8856
    1.920   16.1313
    1.935   16.3419
    1.950   14.1478
    1.965   14.1478
    1.980   14.5866
    1.995   14.9201
    2.010   15.6047
    2.025   15.2712
    2.040   15.0255
    2.055   14.2356
    2.070   14.7095
    2.085   14.2356
    2.100   14.6393
    2.115   14.8675
    2.130   14.5691
    2.145   14.1302
    2.160   14.2356
    2.175   14.7622
    2.190   14.2531
    2.205   13.6914
    2.220   13.7616
    2.235   13.4632
    2.250   14.5515
    2.265   14.0074
    2.280   13.7441
    2.295   13.8845
    2.310   13.4106
    2.325   13.9898
    2.340   13.7967
    2.355   13.6739
    2.370   13.5159
    2.385   13.5334
    2.400   13.5510
    2.415   14.4638
    2.430   14.2180
    2.445   14.1127
    2.460   14.0951
    2.475   14.2531
    2.490   14.5515
    2.505   14.8499
    2.520   14.2531
    2.535   14.6217
    2.550   15.0255
    2.565   14.4813
    2.580   14.2180
    2.595   14.0249
    2.610   15.1659
    2.625   15.5169
    2.640   15.6574
    2.655   15.1834
    2.670   14.6042
    2.685   14.7446
    2.700   15.0079
    2.715   15.4818
    2.730   15.4818
    2.745   15.2536
    2.760   15.6047
    2.775   16.2015
    2.790   16.2366
    2.805   16.1489
    2.820   16.9914
    2.835   17.4653
    2.850   17.7988
    2.865   17.7286
    2.880   17.8164
    2.895   18.5887
    2.910   18.5010
    2.925   18.1850
    2.940   18.0446
    2.955   18.9749
    2.970   19.5015
    2.985   19.3260
    3.000   20.2212
    3.015   20.2914
    3.030   20.8706
    3.045   21.2919
    3.060   21.6430
    3.075   22.0467
    3.090   22.3626
    3.105   22.1169
    3.120   22.5733
    3.135   22.8366
    3.150   23.5212
    3.165   25.4344
    3.180   25.4169
    3.195   25.9610
    3.210   26.6280
    3.225   26.6632
    3.240   27.8919
    3.255   28.0499
    3.270   29.7525
    3.285   30.7004
    3.300   30.5248
    3.315   32.1397
    3.330   33.2105
    3.345   34.0355
    3.360   36.2120
    3.375   37.2301
    3.390   37.7392
    3.405   38.6870
    3.420   38.9854
    3.435   41.3200
    3.450   42.7945
    3.465   44.8306
    3.480   48.4641
    3.495   49.1838
    3.510   50.2545
    3.525   52.5364
    3.540   55.4151
    3.555   57.2407
    3.570   60.4178
    3.585   63.9810
    3.600   66.6316
    3.615   70.9847
    3.630   74.0916
    3.645   77.4092
    3.660   82.3240
    3.675   87.6426
    3.690   94.8745
    3.705  100.5617
    3.720  110.0579
    3.735  120.0456
    3.750  130.3844
    3.765  142.8647
    3.780  157.8726
    3.795  183.1139
    3.810  212.0590
    3.825  246.5684
    3.840  262.5768
    3.855  247.8147
    3.870  208.7414
    3.885  158.0305
    3.900  106.4595
    3.915   60.2949
    3.930   34.0179
    3.945   21.5025
    3.960   15.4116
    3.975   12.5680
    3.990   11.3744
    4.005   10.9882
    4.020   10.2335
    4.035    9.3734
    4.050    8.9696
    4.065    8.9872
    4.080    8.4957
    4.095    8.7590
    4.110    8.7941
    4.125    8.6361
    4.140    8.4255
    4.155    7.9340
    4.170    8.4255
    4.185    8.2149
    4.200    8.3377
    4.215    8.0744
    4.230    7.6883
    4.245    7.5654
    4.260    7.6707
    4.275    7.1792
    4.290    7.7409
    4.305    7.3899
    4.320    7.8989
    4.335    7.6005
    4.350    8.0744
    4.365    8.0744
    4.380    7.2670
    4.395    7.7936
    4.410    7.5478
    4.425    7.8638
    4.440    8.0569
    4.455    7.6356
    4.470    7.9340
    4.485    7.8287
    4.500    7.8287
    4.515    7.6532
    4.530    7.7585
    4.545    8.0042
    4.560    8.5133
    4.575    8.5484
    4.590    8.1622
    4.605    8.0569
    4.620    8.2324
    4.635    8.5835
    4.650    8.5308
    4.665    8.3553
    4.680    8.6010
    4.695    8.4957
    4.710    8.6186
    4.725    9.2329
    4.740    8.8994
    4.755    9.8297
    4.770    9.4085
    4.785    9.1627
    4.800    9.3382
    4.815    9.3734
    4.830    9.6893
    4.845    9.5313
    4.860    9.8297
    4.875    9.3031
    4.890   10.4090
    4.905   11.0233
    4.920   11.0760
    4.935   11.0409
    4.950   11.2164
    4.965   11.9361
    4.980   12.0414
    4.995   12.1467
    5.010   11.4622
    5.025   12.5505
    5.040   13.4281
    5.055   13.0771
    5.070   14.9201
    5.085   13.7265
    5.100   15.1308
    5.115   15.9031
    5.130   16.4473
    5.145   16.4824
    5.160   17.3425
    5.175   17.8691
    5.190   18.9573
    5.205   20.4845
    5.220   21.3621
    5.235   21.5377
    5.250   23.2227
    5.265   24.5568
    5.280   25.5749
    5.295   27.8568
    5.310   28.8748
    5.325   30.9110
    5.340   33.4211
    5.355   37.3881
    5.370   39.0381
    5.385   43.1104
    5.400   48.1833
    5.415   55.9768
    5.430   64.9640
    5.445   76.1102
    5.460   81.9028
    5.475   78.3746
    5.490   69.8438
    5.505   56.4859
    5.520   40.4774
    5.535   27.0318
    5.550   16.9212
    5.565   11.5324
    5.580    9.8999
    5.595    8.7590
    5.610    8.2149
    5.625    7.7936
    5.640    7.2143
    5.655    7.7936
    5.670    7.4776
    5.685    7.1090
    5.700    7.0915
    5.715    6.9335
    5.730    6.5473
    5.745    6.5649
    5.760    7.0388
    5.775    6.6702
    5.790    6.8984
    5.805    7.1617
    5.820    7.2845
    5.835    6.8106
    5.850    6.7755
    5.865    6.6702
    5.880    6.8984
    5.895    6.9686
    5.910    7.2670
    5.925    7.1968
    5.940    6.4420
    5.955    6.3191
    5.970    6.2138
    5.985    6.2138
    6.000    6.4069
    6.015    7.3196
    6.030    7.1090
    6.045    6.8984
    6.060    6.8984
    6.075    6.6351
    6.090    6.3542
    6.105    7.0212
    6.120    7.1090
    6.135    6.8106
    6.150    7.1968
    6.165    7.2143
    6.180    7.3372
    6.195    7.2143
    6.210    7.0212
    6.225    7.4601
    6.240    7.6532
    6.255    7.0212
    6.270    7.3547
    6.285    7.3723
    6.300    7.7058
    6.315    7.8287
    6.330    8.1622
    6.345    7.7936
    6.360    8.2500
    6.375    8.6186
    6.390    8.6010
    6.405    8.6537
    6.420    8.8994
    6.435    8.9521
    6.450    9.0398
    6.465    9.7244
    6.480    9.7946
    6.495   10.3914
    6.510   10.5143
    6.525   10.5845
    6.540   11.5324
    6.555   11.8132
    6.570   11.8483
    6.585   12.5505
    6.600   13.7265
    6.615   14.4813
    6.630   16.1840
    6.645   17.4653
    6.660   19.2557
    6.675   21.8361
    6.690   24.4690
    6.705   25.9961
    6.720   25.9786
    6.735   23.8020
    6.750   20.6775
    6.765   16.1489
    6.780   12.0414
    6.795    9.4085
    6.810    7.3899
    6.825    5.9505
    6.840    6.2665
    6.855    6.1436
    6.870    6.2489
    6.885    6.5298
    6.900    6.4595
    6.915    6.8282
    6.930    6.3016
    6.945    6.2840
    6.960    6.2489
    6.975    6.1260
    6.990    6.1436
    7.005    6.1611
    7.020    6.3367
    7.035    6.6000
    7.050    6.7228
    7.065    5.9856
    7.080    6.2840
    7.095    6.4771
    7.110    6.3893
    7.125    6.4069
    7.140    6.5473
    7.155    6.5473
    7.170    6.3367
    7.185    6.2840
    7.200    6.2840
    7.215    6.7930
    7.230    6.6000
    7.245    6.5473
    7.260    6.2138
    7.275    6.6351
    7.290    6.6877
    7.305    6.4946
    7.320    6.0558
    7.335    7.0037
    7.350    6.6175
    7.365    7.0212
    7.380    6.3016
    7.395    6.6175
    7.410    6.9335
    7.425    7.3196
    7.440    7.2143
    7.455    7.1968
    7.470    7.8287
    7.485    7.5303
    7.500    7.6356
    7.515    7.9867
    7.530    7.6005
    7.545    8.2500
    7.560    8.9872
    7.575    9.5664
    7.590    8.7941
    7.605    9.7771
    7.620    9.7420
    7.635    9.9175
    7.650   10.8127
    7.665   11.1462
    7.680   12.4978
    7.695   13.3579
    7.710   15.3590
    7.725   17.2196
    7.740   19.3084
    7.755   20.5547
    7.770   20.5020
    7.785   18.8169
    7.800   16.2717
    7.815   13.8845
    7.830   10.5845
    7.845    8.2851
    7.860    6.9335
    7.875    6.4069
    7.890    6.2313
    7.905    5.9329
    7.920    5.8101
    7.935    5.9505
    7.950    6.2840
    7.965    6.1962
    7.980    6.3367
    7.995    5.4941
    8.010    5.8803
    8.025    5.8978
    8.040    5.6697
    8.055    5.9856
    8.070    5.6345
    8.085    6.0909
    8.100    5.8101
    8.115    5.6872
    8.130    5.7048
    8.145    5.6521
    8.160    5.5819
    8.175    5.2835
    8.190    5.9329
    8.205    6.0909
    8.220    6.0909
    8.235    6.0032
    8.250    5.7223
    8.265    5.4590
    8.280    5.9329
    8.295    5.8803
    8.310    5.6345
    8.325    5.8276
    8.340    5.7925
    8.355    5.7925
    8.370    5.8452
    8.385    5.4415
    8.400    5.9856
    8.415    6.2840
    8.430    6.6526
    8.445    5.7925
    8.460    5.8627
    8.475    5.5994
    8.490    6.0734
    8.505    6.1436
    8.520    5.4590
    8.535    6.0032
    8.550    6.4946
    8.565    6.1436
    8.580    6.3367
    8.595    6.4420
    8.610    6.8808
    8.625    7.1266
    8.640    6.9510
    8.655    7.0037
    8.670    7.5127
    8.685    7.7058
    8.700    7.9516
    8.715    7.4425
    8.730    7.4776
    8.745    7.3723
    8.760    6.1260
    8.775    5.8803
    8.790    6.0909
    8.805    6.1085
    8.820    5.9856
    8.835    5.9681
    8.850    5.8627
    8.865    5.7399
    8.880    6.3016
    8.895    6.2665
    8.910    5.9154
    8.925    5.8452
    8.940    5.6697
    8.955    5.7925
    8.970    5.2659
    8.985    5.8276
    9.000    6.0909
    9.015    5.8627
    9.030    5.5819
    9.045    6.2665
    9.060    6.7930
    9.075    6.7053
    9.090    6.7053
    9.105    6.6351
    9.120    6.7404
    9.135    6.8457
    9.150    6.2489
    9.165    6.4771
    9.180    6.6351
    9.195    7.4425
    9.210    7.3547
    9.225    8.0569
    9.240    8.2500
    9.255    8.7590
    9.270    8.9696
    9.285    9.2154
    9.300    9.5489
    9.315   10.0404
    9.330   10.8654
    9.345   10.8829
    9.360   11.3393
    9.375   11.9537
    9.390   13.2526
    9.405   14.5515
    9.420   14.7095
    9.435   16.9914
    9.450   19.2733
    9.465   20.7653
    9.480   23.8371
    9.495   28.8397
    9.510   33.0876
    9.525   34.1057
    9.540   33.4562
    9.555   31.6482
    9.570   26.2770
    9.585   20.7653
    9.600   14.3233
    9.615   10.0579
    9.630    8.2675
    9.645    6.7930
    9.660    6.2313
    9.675    6.0909
    9.690    6.1611
    9.705    6.1962
    9.720    5.9329
    9.735    6.2489
    9.750    6.0207
    9.765    5.9329
    9.780    5.8803
    9.795    5.6521
    9.810    5.5468
    9.825    5.6872
    9.840    5.9681
    9.855    5.5468
    9.870    6.3191
    9.885    6.0032
    9.900    6.1260
    9.915    5.5468
    9.930    6.1436
    9.945    5.7750
    9.960    6.4771
    9.975    6.4771
    9.990    6.7228
   10.005    6.3893
   10.020    6.5122
   10.035    6.5122
   10.050    6.4069
   10.065    6.7579
   10.080    6.9510
   10.095    6.7755
   10.110    7.2845
   10.125    7.8638
   10.140    7.9867
   10.155    7.9340
   10.170    8.4781
   10.185    9.0223
   10.200    9.5664
   10.215   11.1462
   10.230   11.9186
   10.245   11.8659
   10.260   13.4983
   10.275   15.0079
   10.290   17.0265
   10.305   16.2893
   10.320   16.1489
   10.335   13.9372
   10.350   11.9888
   10.365    9.5138
   10.380    7.5478
   10.395    6.8633
   10.410    6.5298
   10.425    5.6872
   10.440    5.4239
   10.455    5.9681
   10.470    5.9681
   10.485    5.3537
   10.500    5.4941
   10.515    5.4941
   10.530    5.3010
   10.545    5.2133
   10.560    5.5994
   10.575    5.3361
   10.590    5.6697
   10.605    5.6170
   10.620    5.3537
   10.635    5.6170
   10.650    6.2489
   10.665    5.5643
   10.680    5.8101
   10.695    5.6345
   10.710    6.2138
   10.725    6.1611
   10.740    5.6872
   10.755    5.7048
   10.770    5.7574
   10.785    5.8276
   10.800    6.3542
   10.815    6.1962
   10.830    6.7579
   10.845    6.7930
   10.860    6.8808
   10.875    6.6000
   10.890    6.6877
   10.905    7.2494
   10.920    8.1095
   10.935    9.3207
   10.950    9.7069
   10.965   10.2510
   10.980   11.0760
   10.995   12.4627
   11.010   13.3579
   11.025   12.9015
   11.040   12.4627
   11.055   10.9005
   11.070    9.9526
   11.085    8.4957
   11.100    7.5127
   11.115    7.3021
   11.130    6.2489
   11.145    6.0383
   11.160    5.6872
   11.175    5.8978
   11.190    5.4064
   11.205    5.3010
   11.220    5.5292
   11.235    5.9856
   11.250    5.4239
   11.265    5.6872
   11.280    5.5643
   11.295    5.6345
   11.310    5.8101
   11.325    5.5117
   11.340    5.4766
   11.355    5.5117
   11.370    5.4415
   11.385    5.3537
   11.400    5.6697
   11.415    6.2138
   11.430    6.0207
   11.445    5.9681
   11.460    6.4420
   11.475    6.7930
   11.490    6.4244
   11.505    6.3191
   11.520    6.8808
   11.535    6.7228
   11.550    7.4601
   11.565    8.4957
   11.580    7.8111
   11.595    8.4781
   11.610    8.5308
   11.625    9.4962
   11.640   11.4797
   11.655   12.4276
   11.670   13.6037
   11.685   13.7441
   11.700   13.9723
   11.715   13.9547
   11.730   12.6207
   11.745   10.6196
   11.760    8.8994
   11.775    7.2845
   11.790    6.2840
   11.805    5.7750
   11.820    5.6521
   11.835    5.7574
   11.850    5.7399
   11.865    5.6345
   11.880    5.6170
   11.895    5.2133
   11.910    5.0377
   11.925    5.2659
   11.940    5.3010
   11.955    5.3010
   11.970    5.2659
   11.985    5.4766
   12.000    5.4415
   12.015    5.5117
   12.030    5.4766
   12.045    5.4239
   12.060    5.2659
   12.075    5.5643
   12.090    5.3712
   12.105    5.3537
   12.120    5.5117
   12.135    5.7574
   12.150    5.5994
   12.165    5.5468
   12.180    5.3888
   12.195    5.1431
   12.210    5.8627
   12.225    5.3712
   12.240    5.9154
   12.255    5.8978
   12.270    6.1436
   12.285    6.5649
   12.300    6.4069
   12.315    6.6702
   12.330    6.3542
   12.345    6.6877
   12.360    6.9159
   12.375    6.3893
   12.390    6.2665
   12.405    5.5468
   12.420    5.4415
   12.435    5.3186
   12.450    5.1957
   12.465    5.3712
   12.480    5.8627
   12.495    5.6345
   12.510    5.2308
   12.525    4.8973
   12.540    5.0026
   12.555    5.0904
   12.570    5.4766
   12.585    5.3010
   12.600    5.1606
   12.615    5.6872
   12.630    5.7399
   12.645    5.2133
   12.660    5.4766
   12.675    5.4239
   12.690    5.4415
   12.705    5.7399
   12.720    5.3010
   12.735    5.7925
   12.750    5.8452
   12.765    6.1085
   12.780    6.9686
   12.795    6.8106
   12.810    6.7579
   12.825    6.6175
   12.840    7.1090
   12.855    7.4074
   12.870    7.6883
   12.885    8.4781
   12.900    9.3558
   12.915   10.2510
   12.930   10.5670
   12.945   11.4446
   12.960   10.6196
   12.975   10.1632
   12.990    8.4255
   13.005    7.2670
   13.020    6.5473
   13.035    6.1611
   13.050    5.4941
   13.065    5.4415
   13.080    5.8803
   13.095    5.8101
   13.110    5.0377
   13.125    5.1080
   13.140    5.7223
   13.155    5.7574
   13.170    5.3186
   13.185    5.3712
   13.200    5.2133
   13.215    4.8271
   13.230    4.9851
   13.245    5.3537
   13.260    4.8095
   13.275    5.1957
   13.290    5.0377
   13.305    5.4941
   13.320    5.5819
   13.335    5.7574
   13.350    5.2484
   13.365    5.4941
   13.380    5.5994
   13.395    6.0207
   13.410    5.9505
   13.425    5.7048
   13.440    5.9329
   13.455    6.4595
   13.470    7.0563
   13.485    7.3547
   13.500    7.3196
   13.515    7.8287
   13.530    7.8989
   13.545    7.4776
   13.560    6.8984
   13.575    6.1260
   13.590    5.8452
   13.605    5.5994
   13.620    5.4239
   13.635    5.4941
   13.650    5.2659
   13.665    4.9675
   13.680    4.9675
   13.695    5.4415
   13.710    5.8452
   13.725    5.2308
   13.740    4.9675
   13.755    5.3186
   13.770    6.0383
   13.785    5.4766
   13.800    5.5819
   13.815    5.8803
   13.830    5.7750
   13.845    6.3367
   13.860    5.4415
   13.875    5.9154
   13.890    5.9154
   13.905    6.0032
   13.920    5.7750
   13.935    5.8803
   13.950    6.2840
   13.965    6.3542
   13.980    7.4425
   13.995    7.1617
   14.010    7.3723
   14.025    7.9867
   14.040    9.1627
   14.055    9.6893
   14.070   10.6547
   14.085   10.1457
   14.100    9.9877
   14.115    9.6015
   14.130    8.1973
   14.145    7.5303
   14.160    6.4069
   14.175    6.2138
   14.190    5.8803
   14.205    5.2659
   14.220    5.0377
   14.235    5.0728
   14.250    5.1606
   14.265    5.5292
   14.280    5.2484
   14.295    5.0553
   14.310    5.0377
   14.325    4.8798
   14.340    5.1782
   14.355    5.2308
   14.370    5.3537
   14.385    4.8271
   14.400    5.3361
   14.415    4.5638
   14.430    4.7569
   14.445    4.6867
   14.460    5.5819
   14.475    5.2484
   14.490    5.0202
   14.505    5.1080
   14.520    5.1431
   14.535    5.3010
   14.550    4.9851
   14.565    4.9500
   14.580    4.9851
   14.595    5.1431
   14.610    5.1782
   14.625    4.6867
   14.640    4.6340
   14.655    5.3361
   14.670    4.8095
   14.685    5.1957
   14.700    5.3537
   14.715    5.2659
   14.730    5.4239
   14.745    5.1431
   14.760    5.1782
   14.775    5.5819
   14.790    5.5117
   14.805    5.1080
   14.820    5.0026
   14.835    5.0026
   14.850    5.2484
   14.865    5.0026
   14.880    5.0377
   14.895    5.1957
   14.910    5.1782
   14.925    5.0026
   14.940    5.2835
   14.955    5.4239
   14.970    5.1606
   14.985    5.2308
   15.000    5.6170
   15.015    5.1782
   15.030    5.3712
   15.045    5.3888
   15.060    5.7750
   15.075    5.2484
   15.090    5.2133
   15.105    5.7574
   15.120    6.0383
   15.135    6.2840
   15.150    5.7750
   15.165    5.3186
   15.180    5.3888
   15.195    5.6170
   15.210    5.3537
   15.225    5.0026
   15.240    4.8447
   15.255    5.3361
   15.270    5.3888
   15.285    5.0202
   15.300    5.0904
   15.315    4.9675
   15.330    4.9500
   15.345    4.7042
   15.360    5.3537
   15.375    4.6691
   15.390    4.5989
   15.405    4.8447
   15.420    4.8447
   15.435    4.9500
   15.450    5.0904
   15.465    5.1255
   15.480    5.4415
   15.495    5.4064
   15.510    5.0377
   15.525    5.1782
   15.540    5.0377
   15.555    4.8271
   15.570    5.2308
   15.585    4.8447
   15.600    4.9675
   15.615    5.4064
   15.630    5.4064
   15.645    5.1606
   15.660    4.8622
   15.675    5.2659
   15.690    5.1606
   15.705    5.1606
   15.720    5.1255
   15.735    5.2659
   15.750    5.6872
   15.765    5.5292
   15.780    5.0904
   15.795    5.0202
   15.810    5.3361
   15.825    4.6691
   15.840    5.0553
   15.855    5.0202
   15.870    5.4590
   15.885    5.5643
   15.900    5.4239
   15.915    4.8622
   15.930    4.9851
   15.945    5.1431
   15.960    5.3361
   15.975    5.5468
   15.990    4.9851
   16.005    5.0377
   16.020    5.8627
   16.035    5.7574
   16.050    5.5292
   16.065    5.7223
   16.080    5.9505
   16.095    6.2840
   16.110    6.1085
   16.125    6.1787
   16.140    6.2138
   16.155    5.9505
   16.170    6.0383
   16.185    6.0558
   16.200    6.0383
   16.215    5.4766
   16.230    4.8447
   16.245    5.0202
   16.260    4.8447
   16.275    4.7744
   16.290    4.6691
   16.305    4.8798
   16.320    4.8447
   16.335    4.9851
   16.350    5.4766
   16.365    5.2835
   16.380    5.1957
   16.395    4.9500
   16.410    4.7744
   16.425    4.8973
   16.440    4.9324
   16.455    5.1431
   16.470    4.9324
   16.485    5.4415
   16.500    5.8978
   16.515    5.8803
   16.530    6.1962
   16.545    6.0032
   16.560    6.1962
   16.575    6.2840
   16.590    6.3718
   16.605    6.0558
   16.620    6.2489
   16.635    6.0207
   16.650    6.4069
   16.665    5.5819
   16.680    5.4766
   16.695    5.4941
   16.710    5.3888
   16.725    5.5117
   16.740    5.4239
   16.755    5.3010
   16.770    5.5117
   16.785    5.1606
   16.800    5.3010
   16.815    5.1255
   16.830    5.4941
   16.845    5.3186
   16.860    5.2133
   16.875    5.7223
   16.890    5.6345
   16.905    5.5994
   16.920    5.7223
   16.935    6.1962
   16.950    6.4771
   16.965    6.3893
   16.980    6.7755
   16.995    7.9516
   17.010    7.6532
   17.025    8.9696
   17.040    8.7590
   17.055    8.5308
   17.070    8.6888
   17.085    9.2856
   17.100    8.1973
   17.115    7.5654
   17.130    6.4069
   17.145    6.2840
   17.160    5.6170
   17.175    5.0904
   17.190    5.2308
   17.205    5.3537
   17.220    5.0728
   17.235    4.9149
   17.250    5.4064
   17.265    5.5117
   17.280    5.0377
   17.295    5.0202
   17.310    4.6516
   17.325    5.1255
   17.340    5.4590
   17.355    5.3361
   17.370    5.2133
   17.385    5.5643
   17.400    5.7223
   17.415    5.3537
   17.430    5.3537
   17.445    5.1957
   17.460    5.8452
   17.475    5.8627
   17.490    5.5468
   17.505    6.5122
   17.520    6.3191
   17.535    6.0032
   17.550    5.9329
   17.565    5.3010
   17.580    5.5117
   17.595    5.3361
   17.610    4.9851
   17.625    6.0558
   17.640    5.7048
   17.655    5.1255
   17.670    5.1255
   17.685    5.1431
   17.700    5.2484
   17.715    4.9149
   17.730    4.7920
   17.745    5.1782
   17.760    5.2659
   17.775    5.4941
   17.790    5.5292
   17.805    5.2484
   17.820    5.1255
   17.835    5.3186
   17.850    5.5819
   17.865    5.3186
   17.880    5.5292
   17.895    5.3010
   17.910    5.8276
   17.925    5.7925
   17.940    6.3542
   17.955    6.2313
   17.970    6.3893
   17.985    6.3016
   18.000    6.1436
   18.015    5.9329
   18.030    5.5819
   18.045    5.4064
   18.060    5.0377
   18.075    5.2133
   18.090    5.1080
   18.105    5.0202
   18.120    4.9324
   18.135    5.3010
   18.150    5.7925
   18.165    5.0728
   18.180    4.6867
   18.195    5.3537
   18.210    5.3888
   18.225    5.0904
   18.240    5.2133
   18.255    5.3361
   18.270    5.2308
   18.285    4.9324
   18.300    5.3186
   18.315    5.7223
   18.330    5.5994
   18.345    5.3712
   18.360    5.1957
   18.375    5.5643
   18.390    5.5819
   18.405    5.5994
   18.420    5.6170
   18.435    5.7574
   18.450    5.6521
   18.465    5.2484
   18.480    5.1957
   18.495    5.3537
   18.510    5.8101
   18.525    5.5994
   18.540    5.1606
   18.555    5.5819
   18.570    5.2308
   18.585    5.0377
   18.600    4.8622
   18.615    4.8447
   18.630    5.2133
   18.645    5.3186
   18.660    5.3888
   18.675    5.0026
   18.690    5.4415
   18.705    5.3010
   18.720    5.7574
   18.735    5.7925
   18.750    5.4766
   18.765    5.3888
   18.780    5.4415
   18.795    5.5292
   18.810    5.9505
   18.825    5.7223
   18.840    5.7048
   18.855    5.1431
   18.870    5.4590
   18.885    5.8978
   18.900    5.8452
   18.915    5.0202
   18.930    5.0728
   18.945    4.9851
   18.960    5.1255
   18.975    4.7569
   18.990    4.7218
   19.005    5.1957
   19.020    4.9851
   19.035    4.8447
   19.050    5.0904
   19.065    5.3537
   19.080    4.6867
   19.095    5.0728
   19.110    5.0377
   19.125    5.3537
   19.140    5.3888
   19.155    5.5819
   19.170    5.2308
   19.185    5.1431
   19.200    5.4064
   19.215    5.4415
   19.230    5.3712
   19.245    5.1782
   19.260    5.4239
   19.275    5.0728
   19.290    5.2484
   19.305    5.1957
   19.320    5.1606
   19.335    5.1431
   19.350    4.9324
   19.365    5.3888
   19.380    5.1431
   19.395    5.3537
   19.410    5.5117
   19.425    5.2133
   19.440    5.1606
   19.455    5.1957
   19.470    5.4064
   19.485    5.1606
   19.500    5.2484
   19.515    5.2484
   19.530    5.6697
   19.545    6.4771
   19.560    6.1085
   19.575    6.2138
   19.590    6.1260
   19.605    6.5122
   19.620    6.2665
   19.635    5.6697
   19.650    5.8627
   19.665    5.6345
   19.680    5.5994
   19.695    6.0032
   19.710    5.7925
   19.725    5.2308
   19.740    5.4415
   19.755    5.3186
   19.770    5.2659
   19.785    4.9500
   19.800    5.3010
   19.815    5.4766
   19.830    5.0553
   19.845    5.4941
   19.860    5.2659
   19.875    5.1782
   19.890    5.1080
   19.905    5.0553
   19.920    5.0026
   19.935    4.9675
   19.950    5.0904
   19.965    5.3712
   19.980    5.2659
   19.995    5.3361
   20.010    5.5643
   20.025    4.9500
   20.040    5.0377
   20.055    4.8798
   20.070    5.1080
   20.085    5.3361
   20.100    5.5117
   20.115    5.4064
   20.130    5.1782
   20.145    5.1255
   20.160    5.3888
   20.175    5.1255
   20.190    4.8447
   20.205    5.0904
   20.220    5.3712
   20.235    5.5643
   20.250    5.5643
   20.265    5.8803
   20.280    6.5473
   20.295    6.4420
   20.310    6.4244
   20.325    7.2494
   20.340    7.4776
   20.355    7.1792
   20.370    8.1622
   20.385    8.0393
   20.400    7.8638
   20.415    8.1622
   20.430    8.1271
   20.445    7.5127
   20.460    6.7755
   20.475    6.0909
   20.490    5.9856
   20.505    5.6872
   20.520    5.4941
   20.535    5.1606
   20.550    5.3186
   20.565    5.1957
   20.580    4.9500
   20.595    5.0202
   20.610    5.2484
   20.625    4.9500
   20.640    4.8271
   20.655    4.8095
   20.670    4.9675
   20.685    5.1782
   20.700    5.3010
   20.715    5.4239
   20.730    5.3361
   20.745    5.3537
   20.760    5.6345
   20.775    5.2484
   20.790    5.3888
   20.805    5.4941
   20.820    5.5643
   20.835    5.0553
   20.850    4.8095
   20.865    4.8447
   20.880    4.9149
   20.895    5.3010
   20.910    5.2659
   20.925    5.3010
   20.940    5.2308
   20.955    5.3186
   20.970    5.2484
   20.985    5.4064
   21.000    5.0377
   21.015    5.3361
   21.030    5.3888
   21.045    5.3537
   21.060    4.8622
   21.075    5.4766
   21.090    5.7048
   21.105    5.2484
   21.120    5.1606
   21.135    5.1431
   21.150    5.0202
   21.165    4.9149
   21.180    5.1255
   21.195    5.4064
   21.210    5.3712
   21.225    4.6516
   21.240    4.6691
   21.255    5.0904
   21.270    5.3010
   21.285    5.1255
   21.300    5.1431
   21.315    5.0904
   21.330    5.1782
   21.345    4.7042
   21.360    5.3361
   21.375    5.3361
   21.390    5.5819
   21.405    5.5994
   21.420    5.2484
   21.435    4.9500
   21.450    5.4415
   21.465    5.0202
   21.480    4.7218
   21.495    5.3712
   21.510    5.1606
   21.525    5.0904
   21.540    5.2484
   21.555    4.5814
   21.570    4.9149
   21.585    5.5468
   21.600    5.3888
   21.615    5.2659
   21.630    5.2484
   21.645    5.0553
   21.660    4.7569
   21.675    5.4064
   21.690    5.5292
   21.705    5.4766
   21.720    5.1957
   21.735    5.5468
   21.750    5.8627
   21.765    5.8803
   21.780    5.5819
   21.795    5.7925
   21.810    5.9856
   21.825    6.6351
   21.840    6.5649
   21.855    6.5473
   21.870    6.2489
   21.885    5.8452
   21.900    6.4069
   21.915    6.3016
   21.930    6.1260
   21.945    6.0909
   21.960    5.4590
   21.975    5.7048
   21.990    5.1255
   22.005    5.0553
   22.020    5.6170
   22.035    5.5117
   22.050    5.5643
   22.065    5.6345
   22.080    5.2835
   22.095    5.0553
   22.110    5.3010
   22.125    5.0377
   22.140    5.2835
   22.155    5.7399
   22.170    6.3893
   22.185    6.2840
   22.200    6.1611
   22.215    6.3016
   22.230    6.6000
   22.245    5.9681
   22.260    5.7048
   22.275    6.1260
   22.290    5.7574
   22.305    5.7574
   22.320    5.4941
   22.335    5.2484
   22.350    5.3537
   22.365    5.3537
   22.380    5.4590
   22.395    5.7048
   22.410    5.2835
   22.425    5.8452
   22.440    6.1787
   22.455    6.3191
   22.470    6.5298
   22.485    6.6702
   22.500    7.2670
   22.515    7.8111
   22.530    8.3904
   22.545    8.6361
   22.560    8.7590
   22.575    9.0925
   22.590    8.7765
   22.605    8.0042
   22.620    7.9516
   22.635    7.9867
   22.650    7.3899
   22.665    6.4420
   22.680    6.3016
   22.695    6.0558
   22.710    6.0032
   22.725    6.1611
   22.740    5.2308
   22.755    5.4590
   22.770    5.8101
   22.785    6.1962
   22.800    6.3016
   22.815    6.3191
   22.830    6.8633
   22.845    6.5824
   22.860    7.5478
   22.875    8.1797
   22.890    8.5835
   22.905    9.0574
   22.920    8.4430
   22.935    7.7760
   22.950    8.1797
   22.965    7.8462
   22.980    7.2494
   22.995    6.3542
   23.010    6.1787
   23.025    6.1611
   23.040    5.5819
   23.055    5.7399
   23.070    5.7223
   23.085    5.4064
   23.100    5.1957
   23.115    5.6170
   23.130    5.6170
   23.145    6.4771
   23.160    5.8101
   23.175    5.7574
   23.190    5.8803
   23.205    6.1260
   23.220    5.9154
   23.235    5.7925
   23.250    5.9681
   23.265    6.4771
   23.280    6.5649
   23.295    6.0558
   23.310    6.1085
   23.325    5.9154
   23.340    6.0207
   23.355    6.2313
   23.370    5.7223
   23.385    5.9505
   23.400    5.4766
   23.415    5.0553
   23.430    5.4766
   23.445    5.4415
   23.460    5.4415
   23.475    5.4239
   23.490    5.6170
   23.505    5.2133
   23.520    5.4064
   23.535    5.7048
   23.550    6.0383
   23.565    5.5117
   23.580    5.4064
   23.595    5.3186
   23.610    5.3361
   23.625    5.4239
   23.640    5.3537
   23.655    5.2308
   23.670    5.3888
   23.685    5.2484
   23.700    5.4766
   23.715    5.4239
   23.730    5.0728
   23.745    5.6521
   23.760    5.4064
   23.775    5.3010
   23.790    5.4239
   23.805    5.0377
   23.820    5.0728
   23.835    5.6345
   23.850    6.0909
   23.865    5.9856
   23.880    6.0734
   23.895    6.4771
   23.910    6.6000
   23.925    5.9329
   23.940    6.0909
   23.955    6.3016
   23.970    5.8978
   23.985    6.1436
   24.000    5.7925
   24.015    5.0904
   24.030    5.2133
   24.045    5.1431
   24.060    5.0202
   24.075    5.3888
   24.090    5.1782
   24.105    5.4064
   24.120    5.3361
   24.135    5.1782
   24.150    5.0728
   24.165    5.2133
   24.180    5.3361
   24.195    5.0202
   24.210    5.9505
   24.225    5.7925
   24.240    5.5643
   24.255    5.3361
   24.270    5.0553
   24.285    5.2835
   24.300    4.9149
   24.315    5.1255
   24.330    5.2484
   24.345    4.8798
   24.360    4.8973
   24.375    5.0553
   24.390    4.8798
   24.405    4.9149
   24.420    5.1606
   24.435    5.3010
   24.450    5.1957
   24.465    5.2835
   24.480    5.2484
   24.495    5.4239
   24.510    5.6170
   24.525    5.2308
   24.540    5.4239
   24.555    5.7574
   24.570    5.9329
   24.585    5.5468
   24.600    5.1606
   24.615    4.6516
   24.630    5.0553
   24.645    5.1957
   24.660    5.3888
   24.675    5.4590
   24.690    5.0377
   24.705    5.6697
   24.720    5.0728
   24.735    4.7920
   24.750    4.8798
   24.765    5.3537
   24.780    5.5292
   24.795    4.9324
   24.810    4.8271
   24.825    4.8447
   24.840    4.8095
   24.855    5.1957
   24.870    5.0377
   24.885    5.1782
   24.900    5.2835
   24.915    5.1606
   24.930    4.7920
   24.945    5.0377
   24.960    4.9500
   24.975    4.9675
   24.990    5.0553
   25.005    5.1080
   25.020    5.1782
   25.035    5.0026
   25.050    5.4239
   25.065    5.3010
   25.080    4.9500
   25.095    5.3010
   25.110    5.3888
   25.125    5.4941
   25.140    5.6170
   25.155    5.3888
   25.170    5.5994
   25.185    5.8452
   25.200    5.5292
   25.215    5.4415
   25.230    5.4941
   25.245    5.3186
   25.260    5.4064
   25.275    5.2133
   25.290    4.7042
   25.305    5.4590
   25.320    5.3712
   25.335    5.3712
   25.350    5.0728
   25.365    4.9324
   25.380    5.1606
   25.395    5.1782
   25.410    5.0026
   25.425    5.1606
   25.440    5.7399
   25.455    5.4590
   25.470    5.3888
   25.485    5.6697
   25.500    5.9681
   25.515    5.6697
   25.530    5.6697
   25.545    5.8803
   25.560    5.3712
   25.575    5.3537
   25.590    5.7048
   25.605    5.3186
   25.620    5.3537
   25.635    5.1431
   25.650    5.4590
   25.665    5.2484
   25.680    5.0202
   25.695    5.0026
   25.710    5.6521
   25.725    5.9505
   25.740    6.3542
   25.755    6.3542
   25.770    6.6351
   25.785    7.1090
   25.800    7.3899
   25.815    7.5478
   25.830    7.9867
   25.845    8.2324
   25.860    7.7585
   25.875    7.1266
   25.890    7.1441
   25.905    6.4420
   25.920    6.4069
   25.935    6.0909
   25.950    5.7048
   25.965    5.3361
   25.980    5.1606
   25.995    4.7744
   26.010    4.8973
   26.025    4.7218
   26.040    5.1431
   26.055    5.0728
   26.070    5.6697
   26.085    5.0904
   26.100    5.1606
   26.115    5.0202
   26.130    5.1782
   26.145    5.2133
   26.160    4.8095
   26.175    4.9500
   26.190    4.8095
   26.205    5.0202
   26.220    4.7042
   26.235    5.1431
   26.250    5.4064
   26.265    5.0202
   26.280    5.0728
   26.295    5.2133
   26.310    5.0553
   26.325    5.0377
   26.340    5.3537
   26.355    5.5643
   26.370    5.7925
   26.385    5.6170
   26.400    5.6521
   26.415    5.4590
   26.430    6.1085
   26.445    5.6170
   26.460    5.7574
   26.475    5.5643
   26.490    5.3361
   26.505    5.2133
   26.520    5.2484
   26.535    4.7569
   26.550    5.1782
   26.565    5.6170
   26.580    4.7218
   26.595    5.0202
   26.610    5.0553
   26.625    5.0728
   26.640    5.1255
   26.655    5.1080
   26.670    5.2484
   26.685    4.9500
   26.700    4.8798
   26.715    5.1255
   26.730    4.6691
   26.745    4.3005
   26.760    4.9324
   26.775    5.1431
   26.790    5.4064
   26.805    4.9500
   26.820    5.1080
   26.835    5.1431
   26.850    4.9675
   26.865    4.9500
   26.880    4.9500
   26.895    5.6170
   26.910    5.5292
   26.925    5.2659
   26.940    5.1957
   26.955    5.3712
   26.970    5.5117
   26.985    6.0734
   27.000    5.8803
   27.015    5.7925
   27.030    5.7574
   27.045    5.5819
   27.060    6.2489
   27.075    5.6345
   27.090    5.7223
   27.105    5.2308
   27.120    5.1080
   27.135    5.3712
   27.150    5.5468
   27.165    4.5814
   27.180    4.5287
   27.195    4.7393
   27.210    5.2308
   27.225    5.3888
   27.240    4.6165
   27.255    5.0904
   27.270    4.7744
   27.285    4.9851
   27.300    5.0202
   27.315    5.3361
   27.330    4.8973
   27.345    4.6691
   27.360    5.0553
   27.375    4.7920
   27.390    4.8271
   27.405    5.2308
   27.420    4.8271
   27.435    4.7569
   27.450    5.2308
   27.465    5.1957
   27.480    4.8271
   27.495    5.2308
   27.510    5.3537
   27.525    4.9324
   27.540    5.0904
   27.555    5.5819
   27.570    5.1782
   27.585    5.6345
   27.600    5.4590
   27.615    5.6345
   27.630    5.3888
   27.645    5.9329
   27.660    5.4239
   27.675    5.6521
   27.690    5.5468
   27.705    4.7920
   27.720    4.8271
   27.735    4.9500
   27.750    4.8095
   27.765    4.5814
   27.780    5.3010
   27.795    4.9149
   27.810    5.1431
   27.825    4.9851
   27.840    5.0377
   27.855    5.1431
   27.870    5.1606
   27.885    5.0904
   27.900    5.0377
   27.915    4.8973
   27.930    5.3010
   27.945    5.5643
   27.960    5.4239
   27.975    5.1080
   27.990    5.1957
   28.005    4.6867
   28.020    5.0904
   28.035    5.1606
   28.050    5.1080
   28.065    5.6170
   28.080    4.9500
   28.095    5.1606
   28.110    5.2835
   28.125    5.3888
   28.140    5.7048
   28.155    5.8627
   28.170    6.1260
   28.185    6.5122
   28.200    6.0383
   28.215    5.9329
   28.230    5.6521
   28.245    5.7750
   28.260    5.7223
   28.275    5.0377
   28.290    5.3010
   28.305    5.3010
   28.320    5.1255
   28.335    5.2659
   28.350    5.2484
   28.365    5.3537
   28.380    4.9675
   28.395    5.2835
   28.410    5.5819
   28.425    5.7574
   28.440    6.1962
   28.455    5.5292
   28.470    5.8276
   28.485    6.2489
   28.500    5.9681
   28.515    5.7750
   28.530    5.4766
   28.545    5.5643
   28.560    5.5468
   28.575    5.4064
   28.590    4.8622
   28.605    4.7218
   28.620    5.0026
   28.635    4.3356
   28.650    4.4409
   28.665    4.7744
   28.680    4.9500
   28.695    4.6867
   28.710    5.1080
   28.725    5.1782
   28.740    4.9851
   28.755    5.2835
   28.770    4.9324
   28.785    4.6691
   28.800    4.8622
   28.815    4.8271
   28.830    4.5638
   28.845    4.6516
   28.860    4.7569
   28.875    4.7744
   28.890    4.6340
   28.905    4.6867
   28.920    5.0026
   28.935    4.5638
   28.950    4.8447
   28.965    4.9149
   28.980    4.6340
   28.995    4.9149
   29.010    4.6340
   29.025    5.1431
   29.040    5.5117
   29.055    5.1957
   29.070    4.7569
   29.085    4.8095
   29.100    5.1080
   29.115    5.1431
   29.130    5.0553
   29.145    5.3361
   29.160    4.5638
   29.175    4.4760
   29.190    4.9149
   29.205    4.9675
   29.220    5.2484
   29.235    5.2484
   29.250    5.7399
   29.265    5.4941
   29.280    5.7574
   29.295    5.4064
   29.310    5.6345
   29.325    5.6345
   29.340    5.1606
   29.355    5.2484
   29.370    4.9149
   29.385    5.1957
   29.400    5.1782
   29.415    5.3537
   29.430    4.9500
   29.445    4.8622
   29.460    5.6170
   29.475    5.2835
   29.490    4.7218
   29.505    4.7393
   29.520    4.5463
   29.535    4.3883
   29.550    4.8973
   29.565    5.0377
   29.580    5.0026
   29.595    4.4409
   29.610    4.3883
   29.625    4.3707
   29.640    4.3356
   29.655    4.9851
   29.670    4.5463
   29.685    4.2654
   29.700    4.6691
   29.715    4.5287
   29.730    4.5989
   29.745    4.9500
   29.760    4.9675
   29.775    4.8271
   29.790    4.7920
   29.805    5.1431
   29.820    5.0026
   29.835    5.0377
   29.850    5.0904
   29.865    5.2133
   29.880    5.5643
   29.895    4.8447
   29.910    4.8271
   29.925    5.1255
   29.940    5.0728
   29.955    4.4936
   29.970    4.3707
   29.985    4.4936
   30.000    4.7744
   30.015    4.8095
   30.030    5.0728
   30.045    4.8447
   30.060    5.5292
   30.075    5.1782
   30.090    4.8271
   30.105    4.9675
   30.120    4.8095
   30.135    4.4760
   30.150    4.8271
   30.165    4.5287
   30.180    4.4936
   30.195    4.4936
   30.210    4.3707
   30.225    4.6691
   30.240    4.9851
   30.255    4.7393
   30.270    4.3883
   30.285    4.8447
   30.300    4.8973
   30.315    4.6867
   30.330    4.7393
   30.345    4.8973
   30.360    4.6867
   30.375    4.5989
   30.390    4.7569
   30.405    4.5814
   30.420    5.0202
   30.435    5.1606
   30.450    4.8271
   30.465    4.8271
   30.480    4.7744
   30.495    4.5287
   30.510    4.7042
   30.525    4.4936
   30.540    4.6867
   30.555    4.6516
   30.570    4.9149
   30.585    5.0728
   30.600    4.6867
   30.615    5.2659
   30.630    4.8095
   30.645    4.8271
   30.660    4.7920
   30.675    4.9851
   30.690    5.2835
   30.705    5.2133
   30.720    4.5814
   30.735    4.8798
   30.750    4.6516
   30.765    4.3181
   30.780    4.7042
   30.795    4.6165
   30.810    4.4936
   30.825    4.8447
   30.840    4.4936
   30.855    4.4936
   30.870    4.5638
   30.885    5.0026
   30.900    4.9324
   30.915    4.5463
   30.930    4.7569
   30.945    4.7042
   30.960    4.1250
   30.975    4.6867
   30.990    4.6691
   31.005    4.2830
   31.020    4.5111
   31.035    4.6691
   31.050    4.6340
   31.065    4.3005
   31.080    4.0548
   31.095    4.4585
   31.110    4.2303
   31.125    4.5638
   31.140    4.4585
   31.155    4.4234
   31.170    4.6516
   31.185    4.9500
   31.200    4.4234
   31.215    4.7042
   31.230    4.5287
   31.245    4.4234
   31.260    4.7393
   31.275    4.7569
   31.290    4.5989
   31.305    4.4936
   31.320    4.6516
   31.335    4.8447
   31.350    4.7218
   31.365    4.6165
   31.380    4.5814
   31.395    4.6691
   31.410    4.7042
   31.425    4.8271
   31.440    4.6516
   31.455    4.7218
   31.470    4.5463
   31.485    4.7393
   31.500    4.8095
   31.515    4.7569
   31.530    4.5814
   31.545    5.1431
   31.560    4.8447
   31.575    4.7218
   31.590    4.5814
   31.605    4.8271
   31.620    4.7569
   31.635    4.8271
   31.650    4.8798
   31.665    4.5814
   31.680    4.7218
   31.695    5.4415
   31.710    5.3361
   31.725    5.4941
   31.740    5.4766
   31.755    5.5468
   31.770    5.0904
   31.785    5.4239
   31.800    5.6170
   31.815    5.4064
   31.830    5.0026
   31.845    4.7393
   31.860    5.1782
   31.875    5.0377
   31.890    5.0026
   31.905    4.6340
   31.920    5.0202
   31.935    4.6340
   31.950    4.8271
   31.965    4.8622
   31.980    4.8622
   31.995    4.8973
   32.010    4.7920
   32.025    4.4936
   32.040    4.4936
   32.055    4.4936
   32.070    4.5989
   32.085    4.4760
   32.100    5.2133
   32.115    4.8798
   32.130    4.4585
   32.145    5.1255
   32.160    4.7744
   32.175    4.4936
   32.190    4.4058
   32.205    4.5287
   32.220    4.6691
   32.235    4.2478
   32.250    4.5814
   32.265    4.4760
   32.280    4.2478
   32.295    4.1074
   32.310    4.2654
   32.325    4.7393
   32.340    4.3532
   32.355    4.3707
   32.370    4.4234
   32.385    4.6165
   32.400    4.3707
   32.415    4.3005
   32.430    4.3005
   32.445    4.0548
   32.460    4.3356
   32.475    4.2654
   32.490    4.4760
   32.505    4.1425
   32.520    4.3883
   32.535    4.0548
   32.550    3.8090
   32.565    4.1776
   32.580    4.3356
   32.595    4.3707
   32.610    4.4234
   32.625    4.2303
   32.640    4.5287
   32.655    4.3356
   32.670    4.2830
   32.685    4.5814
   32.700    4.1074
   32.715    4.1601
   32.730    4.2830
   32.745    4.2830
   32.760    4.1952
   32.775    4.3532
   32.790    4.4234
   32.805    4.6165
   32.820    4.3532
   32.835    4.4936
   32.850    4.5287
   32.865    4.5989
   32.880    4.3532
   32.895    4.6165
   32.910    4.8095
   32.925    5.0026
   32.940    4.7569
   32.955    4.1776
   32.970    4.4234
   32.985    4.3005
   33.000    4.7218
   33.015    4.6165
   33.030    4.4234
   33.045    4.6165
   33.060    4.0899
   33.075    3.9319
   33.090    3.4580
   33.105    3.9670
   33.120    4.3532
   33.135    4.3181
   33.150    4.2830
   33.165    4.1250
   33.180    3.9846
   33.195    3.8968
   33.210    4.1952
   33.225    4.2127
   33.240    4.7393
   33.255    4.5638
   33.270    4.0548
   33.285    3.8968
   33.300    4.1601
   33.315    4.4058
   33.330    4.3707
   33.345    4.1952
   33.360    4.2478
   33.375    4.3707
   33.390    4.4936
   33.405    4.1776
   33.420    4.2127
   33.435    4.4760
   33.450    4.2478
   33.465    4.3707
   33.480    4.0899
   33.495    4.1425
   33.510    4.0372
   33.525    4.1074
   33.540    4.3181
   33.555    4.3883
   33.570    4.2830
   33.585    4.2478
   33.600    4.0021
   33.615    4.4409
   33.630    4.4585
   33.645    4.3532
   33.660    4.1952
   33.675    4.0197
   33.690    4.0021
   33.705    4.2303
   33.720    4.3532
   33.735    4.5638
   33.750    4.6516
   33.765    4.2303
   33.780    4.5463
   33.795    4.4409
   33.810    4.3883
   33.825    4.4936
   33.840    4.7042
   33.855    4.5638
   33.870    5.0553
   33.885    5.1431
   33.900    4.8622
   33.915    4.4936
   33.930    4.6867
   33.945    4.8798
   33.960    5.0377
   33.975    4.8447
   33.990    5.1255
   34.005    4.8095
   34.020    4.8447
   34.035    4.7569
   34.050    4.9500
   34.065    4.2127
   34.080    3.9494
   34.095    4.1425
   34.110    4.1776
   34.125    4.1425
   34.140    4.1952
   34.155    4.3181
   34.170    4.2478
   34.185    4.3707
   34.200    4.5814
   34.215    4.2127
   34.230    4.3005
   34.245    3.8617
   34.260    4.1250
   34.275    4.3005
   34.290    4.3532
   34.305    4.3181
   34.320    3.8617
   34.335    4.5463
   34.350    4.4234
   34.365    3.9143
   34.380    4.1952
   34.395    4.4760
   34.410    4.3883
   34.425    4.3883
   34.440    4.3005
   34.455    3.9670
   34.470    3.8792
   34.485    4.1074
   34.500    3.8792
   34.515    3.7564
   34.530    4.2303
   34.545    4.2303
   34.560    4.4234
   34.575    4.1250
   34.590    3.7915
   34.605    3.7213
   34.620    4.0021
   34.635    4.1601
   34.650    3.9846
   34.665    4.0372
   34.680    4.2830
   34.695    4.3356
   34.710    3.8266
   34.725    4.5989
   34.740    4.0021
   34.755    4.0021
   34.770    4.0372
   34.785    4.1425
   34.800    3.7739
   34.815    4.3883
   34.830    3.9670
   34.845    4.1074
   34.860    4.5814
   34.875    4.1601
   34.890    4.1601
   34.905    4.2478
   34.920    4.1952
   34.935    4.0021
   34.950    4.0197
   34.965    3.7739
   34.980    3.7739
   34.995    3.7213
   35.010    4.1776
   35.025    3.7564
   35.040    3.8266
   35.055    4.1601
   35.070    4.0197
   35.085    3.4580
   35.100    4.0021
   35.115    3.9494
   35.130    4.2127
   35.145    4.1952
   35.160    3.9846
   35.175    3.7213
   35.190    4.2127
   35.205    4.4936
   35.220    4.3883
   35.235    4.0899
   35.250    4.0021
   35.265    4.2127
   35.280    3.9319
   35.295    4.0197
   35.310    3.9319
   35.325    4.0899
   35.340    3.9143
   35.355    3.5106
   35.370    3.6159
   35.385    4.1074
   35.400    3.9494
   35.415    3.7739
   35.430    4.1952
   35.445    4.4058
   35.460    3.7564
   35.475    3.7739
   35.490    3.8617
   35.505    3.5106
   35.520    3.7564
   35.535    3.9670
   35.550    4.1074
   35.565    3.9494
   35.580    3.8090
   35.595    3.6159
   35.610    3.8968
   35.625    3.7564
   35.640    3.8441
   35.655    4.0372
   35.670    3.6862
   35.685    3.9494
   35.700    3.9846
   35.715    4.0548
   35.730    4.2654
   35.745    4.3707
   35.760    3.8090
   35.775    3.9846
   35.790    3.8968
   35.805    4.2303
   35.820    4.0372
   35.835    3.8792
   35.850    4.2654
   35.865    3.8968
   35.880    3.9143
   35.895    3.9143
   35.910    3.8792
   35.925    3.5633
   35.940    3.7564
   35.955    4.3356
   35.970    4.1601
   35.985    4.3707
   36.000    3.7564
   36.015    3.5808
   36.030    3.7915
   36.045    4.2303
   36.060    4.2478
   36.075    3.8441
   36.090    3.8792
   36.105    3.8792
   36.120    4.0899
   36.135    4.0723
   36.150    4.0197
   36.165    4.1250
   36.180    4.2830
   36.195    3.7739
   36.210    4.1074
   36.225    3.9143
   36.240    3.9670
   36.255    4.0899
   36.270    4.1074
   36.285    4.1425
   36.300    4.0723
   36.315    4.1074
   36.330    4.3005
   36.345    4.0723
   36.360    3.8617
   36.375    3.8266
   36.390    4.0899
   36.405    3.8090
   36.420    4.0899
   36.435    3.8441
   36.450    3.4053
   36.465    4.0021
   36.480    3.9319
   36.495    4.1425
   36.510    4.0372
   36.525    3.9494
   36.540    4.0197
   36.555    3.5633
   36.570    3.7915
   36.585    4.3356
   36.600    4.0021
   36.615    3.8441
   36.630    4.0372
   36.645    4.1776
   36.660    3.6862
   36.675    3.8090
   36.690    4.1074
   36.705    3.7037
   36.720    4.0723
   36.735    4.3005
   36.750    4.0899
   36.765    3.7564
   36.780    3.8266
   36.795    3.5457
   36.810    3.6335
   36.825    3.6159
   36.840    4.0372
   36.855    3.8090
   36.870    3.5282
   36.885    3.7564
   36.900    3.2298
   36.915    3.5457
   36.930    3.7388
   36.945    3.7564
   36.960    3.9846
   36.975    3.7388
   36.990    3.7037
   37.005    3.4053
   37.020    3.8617
   37.035    4.0899
   37.050    3.8266
   37.065    3.7388
   37.080    4.3356
   37.095    4.3181
   37.110    4.2127
   37.125    4.7042
   37.140    4.2303
   37.155    4.3005
   37.170    4.2830
   37.185    4.2830
   37.200    4.1250
   37.215    3.6862
   37.230    3.5984
   37.245    3.7037
   37.260    3.8441
   37.275    4.1601
   37.290    3.9319
   37.305    3.6159
   37.320    3.9319
   37.335    4.0372
   37.350    3.8266
   37.365    3.6862
   37.380    3.8792
   37.395    3.9494
   37.410    3.8441
   37.425    3.6159
   37.440    3.7564
   37.455    3.6510
   37.470    3.6510
   37.485    3.7037
   37.500    3.4404
   37.515    3.6862
   37.530    3.9143
   37.545    3.7388
   37.560    3.6159
   37.575    3.5984
   37.590    3.9319
   37.605    3.8617
   37.620    4.0021
   37.635    3.9846
   37.650    3.5984
   37.665    3.7213
   37.680    3.8792
   37.695    4.2127
   37.710    3.9319
   37.725    3.7213
   37.740    3.5106
   37.755    3.6159
   37.770    4.0021
   37.785    3.9494
   37.800    4.0021
   37.815    4.1074
   37.830    3.7388
   37.845    3.4755
   37.860    3.5984
   37.875    3.7037
   37.890    3.8792
   37.905    4.0021
   37.920    3.7564
   37.935    3.8792
   37.950    3.8792
   37.965    4.0548
   37.980    4.0548
   37.995    3.5282
   38.010    3.6862
   38.025    3.9143
   38.040    3.6510
   38.055    3.4931
   38.070    3.9143
   38.085    3.6686
   38.100    4.2303
   38.115    4.1425
   38.130    3.7388
   38.145    3.7213
   38.160    3.5808
   38.175    3.6335
   38.190    3.5282
   38.205    3.6510
   38.220    3.5633
   38.235    3.7213
   38.250    3.0542
   38.265    3.2473
   38.280    3.5984
   38.295    3.5282
   38.310    3.9319
   38.325    3.6862
   38.340    3.6159
   38.355    3.9494
   38.370    4.0723
   38.385    3.8792
   38.400    3.6686
   38.415    3.6862
   38.430    3.5457
   38.445    3.6686
   38.460    3.5808
   38.475    4.0723
   38.490    3.6510
   38.505    3.8617
   38.520    3.8617
   38.535    3.7564
   38.550    3.4229
   38.565    3.4931
   38.580    3.8968
   38.595    3.9319
   38.610    3.4229
   38.625    3.7213
   38.640    3.3000
   38.655    3.1771
   38.670    3.3000
   38.685    3.3351
   38.700    3.3877
   38.715    3.3702
   38.730    3.2649
   38.745    3.6862
   38.760    3.3526
   38.775    3.8266
   38.790    3.6862
   38.805    3.7213
   38.820    3.5282
   38.835    3.4755
   38.850    3.8617
   38.865    4.0899
   38.880    3.9846
   38.895    3.5106
   38.910    3.3351
   38.925    3.6862
   38.940    3.8090
   38.955    3.4755
   38.970    4.1425
   38.985    4.0372
   39.000    3.9670
   39.015    3.7388
   39.030    3.5984
   39.045    3.6159
   39.060    3.3175
   39.075    3.5633
   39.090    3.3877
   39.105    3.7564
   39.120    3.8441
   39.135    3.8441
   39.150    3.8266
   39.165    3.6335
   39.180    3.5457
   39.195    3.7915
   39.210    3.6335
   39.225    3.5282
   39.240    3.6335
   39.255    3.9670
   39.270    3.6686
   39.285    3.5106
   39.300    3.6335
   39.315    4.1250
   39.330    3.7037
   39.345    3.8090
   39.360    3.6862
   39.375    3.5106
   39.390    3.6510
   39.405    3.5808
   39.420    3.8090
   39.435    3.9494
   39.450    3.6686
   39.465    3.5106
   39.480    3.7037
   39.495    3.6510
   39.510    3.7564
   39.525    3.8090
   39.540    3.8617
   39.555    3.7388
   39.570    3.6159
   39.585    3.6159
   39.600    3.7388
   39.615    4.0548
   39.630    3.8617
   39.645    4.1074
   39.660    3.9846
   39.675    3.6686
   39.690    3.5808
   39.705    3.6335
   39.720    3.8968
   39.735    4.1074
   39.750    3.7388
   39.765    3.8090
   39.780    3.8617
   39.795    3.4229
   39.810    3.2824
   39.825    3.5457
   39.840    3.9319
   39.855    3.8266
   39.870    3.6335
   39.885    3.9670
   39.900    3.7213
   39.915    3.6510
   39.930    3.7037
   39.945    3.5984
   39.960    3.4755
   39.975    3.4404
   39.990    3.4229
