    1.500   23.3175
    1.515   23.5124
    1.530   23.1227
    1.545   23.4334
    1.560   22.8752
    1.575   22.5066
    1.590   22.7909
    1.605   22.8699
    1.620   22.4908
    1.635   22.1590
    1.650   22.1854
    1.665   21.8483
    1.680   21.6430
    1.695   20.9110
    1.710   20.9110
    1.725   21.2744
    1.740   21.3007
    1.755   20.9584
    1.770   20.9584
    1.785   20.5845
    1.800   20.5845
    1.815   20.0843
    1.830   20.5161
    1.845   20.3528
    1.860   20.1843
    1.875   20.0211
    1.890   20.2422
    1.905   20.0316
    1.920   20.0000
    1.935   19.8104
    1.950   20.1316
    1.965   20.1316
    1.980   20.0421
    1.995   19.6840
    2.010   20.2738
    2.025   19.4260
    2.040   19.5840
    2.055   19.9052
    2.070   19.6419
    2.085   20.0263
    2.100   19.6419
    2.115   19.9421
    2.130   20.0579
    2.145   19.8999
    2.160   19.7736
    2.175   19.8631
    2.190   19.8262
    2.205   20.1843
    2.220   19.7051
    2.235   19.9579
    2.250   20.0105
    2.265   20.2212
    2.280   20.1211
    2.295   19.8684
    2.310   20.5740
    2.325   20.3791
    2.340   20.8268
    2.355   20.8899
    2.370   20.5108
    2.385   21.1585
    2.400   21.4323
    2.415   21.4745
    2.430   21.4745
    2.445   21.8273
    2.460   22.0800
    2.475   21.5692
    2.490   21.8799
    2.505   22.2644
    2.520   22.7593
    2.535   22.6382
    2.550   23.6072
    2.565   23.3544
    2.580   23.9021
    2.595   23.5440
    2.610   24.0179
    2.625   24.0811
    2.640   24.9816
    2.655   25.0606
    2.670   25.5292
    2.685   26.0979
    2.700   25.9031
    2.715   26.1769
    2.730   26.4876
    2.745   26.4929
    2.760   27.7462
    2.775   27.8094
    2.790   27.5724
    2.805   28.9468
    2.820   29.5313
    2.835   30.0105
    2.850   30.8794
    2.865   30.5845
    2.880   31.5956
    2.895   31.9431
    2.910   32.5329
    2.925   33.4755
    2.940   33.8231
    2.955   34.1811
    2.970   35.4555
    2.985   36.0927
    3.000   36.8931
    3.015   37.0090
    3.030   38.5782
    3.045   40.1790
    3.060   40.6951
    3.075   41.6798
    3.090   42.8278
    3.105   43.6440
    3.120   44.8394
    3.135   46.0769
    3.150   46.7457
    3.165   48.7941
    3.180   49.7894
    3.195   51.1164
    3.210   52.7120
    3.225   54.8499
    3.240   56.7825
    3.255   58.0200
    3.270   59.2628
    3.285   61.8483
    3.300   64.7657
    3.315   65.4660
    3.330   67.9674
    3.345   70.6109
    3.360   72.1906
    3.375   74.4445
    3.390   76.5929
    3.405   79.1153
    3.420   81.9326
    3.435   83.2070
    3.450   84.3391
    3.465   86.5192
    3.480   86.8931
    3.495   86.0242
    3.510   85.2554
    3.525   83.9968
    3.540   81.5008
    3.555   80.0000
    3.570   76.2665
    3.585   73.3333
    3.600   71.0216
    3.615   68.0832
    3.630   65.9347
    3.645   63.9968
    3.660   62.3170
    3.675   60.8320
    3.690   60.2001
    3.705   58.0832
    3.720   57.0248
    3.735   57.5040
    3.750   56.8562
    3.765   56.8615
    3.780   56.4086
    3.795   56.7299
    3.810   55.8294
    3.825   55.8399
    3.840   55.1869
    3.855   55.0658
    3.870   53.7915
    3.885   53.5018
    3.900   51.7009
    3.915   50.9953
    3.930   50.3739
    3.945   47.9252
    3.960   46.1664
    3.975   45.1238
    3.990   42.7278
    4.005   40.8689
    4.020   38.5677
    4.035   36.8773
    4.050   34.6288
    4.065   33.5598
    4.080   31.5482
    4.095   29.3681
    4.110   28.1885
    4.125   26.5403
    4.140   25.3870
    4.155   23.5492
    4.170   22.5329
    4.185   21.8220
    4.200   20.7320
    4.215   19.7525
    4.230   19.0627
    4.245   18.4413
    4.260   17.1301
    4.275   16.7562
    4.290   16.3981
    4.305   15.9242
    4.320   15.1080
    4.335   14.8552
    4.350   15.1132
    4.365   14.0337
    4.380   14.0916
    4.395   13.5914
    4.410   13.1701
    4.425   12.8015
    4.440   12.6224
    4.455   12.3433
    4.470   12.4855
    4.485   12.0748
    4.500   12.1590
    4.515   11.7746
    4.530   11.0163
    4.545   10.9584
    4.560   11.2849
    4.575   10.7794
    4.590   10.7320
    4.605   10.6898
    4.620   10.7056
    4.635   10.8215
    4.650   10.5424
    4.665   10.2317
    4.680   10.1790
    4.695   10.2001
    4.710    9.8526
    4.725    9.9789
    4.740    9.9368
    4.755    9.7946
    4.770    9.7420
    4.785    9.2101
    4.800    9.2575
    4.815    8.8626
    4.830    9.4523
    4.845    9.0837
    4.860    8.8046
    4.875    9.2154
    4.890    9.3049
    4.905    9.0100
    4.920    8.4466
    4.935    8.8678
    4.950    8.7414
    4.965    8.3728
    4.980    8.8415
    4.995    8.5940
    5.010    8.5624
    5.025    8.6519
    5.040    8.6203
    5.055    8.4939
    5.070    8.5466
    5.085    8.4150
    5.100    8.5571
    5.115    8.3202
    5.130    8.3781
    5.145    8.1833
    5.160    7.9568
    5.175    8.0569
    5.190    8.1833
    5.205    8.0937
    5.220    8.0674
    5.235    7.8357
    5.250    7.7620
    5.265    8.0569
    5.280    8.1043
    5.295    8.2675
    5.310    7.7462
    5.325    7.6251
    5.340    7.6040
    5.355    7.6093
    5.370    7.9042
    5.385    7.6777
    5.400    7.3144
    5.415    7.7567
    5.430    7.4355
    5.445    7.3776
    5.460    8.0147
    5.475    7.6356
    5.490    7.5513
    5.505    7.4671
    5.520    7.6145
    5.535    7.2407
    5.550    7.1143
    5.565    7.5145
    5.580    7.8726
    5.595    7.6145
    5.610    7.6409
    5.625    7.3249
    5.640    7.4934
    5.655    7.5092
    5.670    7.5461
    5.685    7.6145
    5.700    7.2670
    5.715    7.1985
    5.730    7.2722
    5.745    7.4144
    5.760    7.2512
    5.775    7.3512
    5.790    7.3934
    5.805    7.0774
    5.820    7.0511
    5.835    7.0353
    5.850    6.9089
    5.865    7.0195
    5.880    6.9352
    5.895    7.2249
    5.910    7.0879
    5.925    7.1406
    5.940    6.9089
    5.955    7.0195
    5.970    7.2512
    5.985    7.3460
    6.000    7.1669
    6.015    7.3723
    6.030    7.0037
    6.045    7.0405
    6.060    7.2933
    6.075    7.0669
    6.090    6.8615
    6.105    7.1722
    6.120    7.3144
    6.135    7.3723
    6.150    7.3354
    6.165    7.2617
    6.180    7.3302
    6.195    7.2933
    6.210    7.6672
    6.225    6.9616
    6.240    7.2249
    6.255    7.4408
    6.270    7.5039
    6.285    7.6040
    6.300    7.4566
    6.315    7.4355
    6.330    7.4302
    6.345    7.6093
    6.360    7.3354
    6.375    7.5250
    6.390    7.7199
    6.405    7.6619
    6.420    7.4882
    6.435    7.6251
    6.450    7.8094
    6.465    8.0516
    6.480    8.2886
    6.495    8.1517
    6.510    8.0463
    6.525    8.3834
    6.540    8.3939
    6.555    8.7994
    6.570    9.1522
    6.585    8.9468
    6.600    8.9573
    6.615    8.9837
    6.630    9.1943
    6.645    9.2522
    6.660    9.5629
    6.675    9.7736
    6.690    9.8578
    6.705   10.1896
    6.720   10.4318
    6.735   11.0005
    6.750   10.9900
    6.765   10.9900
    6.780   11.3691
    6.795   11.6588
    6.810   12.4592
    6.825   12.2591
    6.840   13.0490
    6.855   13.1332
    6.870   13.4913
    6.885   13.6388
    6.900   14.2022
    6.915   15.1606
    6.930   14.9763
    6.945   14.6130
    6.960   15.0132
    6.975   15.3712
    6.990   15.0026
    7.005   15.0974
    7.020   14.9605
    7.035   15.0816
    7.050   14.7709
    7.065   14.3181
    7.080   13.7441
    7.095   13.3702
    7.110   12.9753
    7.125   12.3012
    7.140   11.6798
    7.155   11.5324
    7.170   11.2744
    7.185   10.7846
    7.200   10.7056
    7.215   10.6582
    7.230   10.3739
    7.245    9.9157
    7.260    9.9105
    7.275   10.1369
    7.290    9.8262
    7.305    9.5682
    7.320    9.4945
    7.335    9.7104
    7.350    9.6103
    7.365    9.7156
    7.380    9.5998
    7.395    9.9157
    7.410   10.0369
    7.425   10.0000
    7.440    9.7367
    7.455   10.1369
    7.470   10.1790
    7.485    9.9737
    7.500   10.0369
    7.515   10.4265
    7.530   10.4318
    7.545   10.7952
    7.560   10.9900
    7.575   11.1058
    7.590   11.0848
    7.605   11.6640
    7.620   11.6956
    7.635   11.6640
    7.650   11.6430
    7.665   12.2012
    7.680   12.2801
    7.695   12.6856
    7.710   12.6646
    7.725   12.5434
    7.740   12.9384
    7.755   12.6962
    7.770   13.0490
    7.785   12.9753
    7.800   12.7857
    7.815   13.0226
    7.830   12.8541
    7.845   12.9437
    7.860   12.8910
    7.875   13.0174
    7.890   12.5803
    7.905   12.4908
    7.920   12.2328
    7.935   12.0169
    7.950   11.7694
    7.965   11.2533
    7.980   11.4903
    7.995   10.9637
    8.010   11.1901
    8.025   11.2954
    8.040   10.5319
    8.055   10.1843
    8.070    9.8157
    8.085   10.0000
    8.100    9.8052
    8.115    9.3102
    8.130    9.3365
    8.145    9.3997
    8.160    9.1101
    8.175    8.9047
    8.190    8.5677
    8.205    8.6467
    8.220    8.3254
    8.235    8.3254
    8.250    8.5150
    8.265    8.1833
    8.280    8.1675
    8.295    7.7672
    8.310    7.7304
    8.325    7.9674
    8.340    7.4882
    8.355    7.6514
    8.370    7.5671
    8.385    7.7462
    8.400    7.5987
    8.415    7.3618
    8.430    7.2459
    8.445    7.4671
    8.460    7.2512
    8.475    7.3302
    8.490    7.1406
    8.505    7.1143
    8.520    7.0616
    8.535    6.8720
    8.550    6.8510
    8.565    6.9510
    8.580    6.6983
    8.595    6.9984
    8.610    6.9510
    8.625    6.9247
    8.640    6.8299
    8.655    6.8510
    8.670    6.8141
    8.685    6.8984
    8.700    6.6245
    8.715    6.3876
    8.730    6.6825
    8.745    6.7404
    8.760    6.6825
    8.775    6.7299
    8.790    6.3560
    8.805    6.3244
    8.820    6.5245
    8.835    6.4508
    8.850    6.6456
    8.865    6.7720
    8.880    6.5192
    8.895    6.5298
    8.910    6.6983
    8.925    6.3770
    8.940    6.5982
    8.955    6.3928
    8.970    6.7615
    8.985    6.5403
    9.000    6.3876
    9.015    6.3507
    9.030    6.5929
    9.045    6.5877
    9.060    6.1611
    9.075    6.0400
    9.090    5.9874
    9.105    6.0558
    9.120    6.2770
    9.135    6.1769
    9.150    6.1822
    9.165    6.5087
    9.180    6.4508
    9.195    6.4350
    9.210    6.3981
    9.225    6.3402
    9.240    6.2349
    9.255    6.2559
    9.270    6.3086
    9.285    6.3454
    9.300    6.1822
    9.315    6.2770
    9.330    6.2507
    9.345    6.0084
    9.360    6.1032
    9.375    6.4192
    9.390    6.6667
    9.405    6.0506
    9.420    6.3296
    9.435    6.2243
    9.450    6.1664
    9.465    6.2138
    9.480    6.2085
    9.495    6.0979
    9.510    6.1664
    9.525    6.0927
    9.540    6.3138
    9.555    6.3244
    9.570    5.8715
    9.585    6.1032
    9.600    5.9926
    9.615    6.2296
    9.630    6.3086
    9.645    6.2507
    9.660    5.9505
    9.675    6.2717
    9.690    6.2033
    9.705    6.2770
    9.720    6.2717
    9.735    5.8241
    9.750    6.2507
    9.765    6.3770
    9.780    6.2559
    9.795    5.9400
    9.810    5.7820
    9.825    5.9610
    9.840    6.2507
    9.855    5.9663
    9.870    6.1664
    9.885    6.2349
    9.900    6.0190
    9.915    5.9505
    9.930    5.9558
    9.945    5.9979
    9.960    5.9979
    9.975    6.1190
    9.990    5.9084
   10.005    6.1769
   10.020    6.2033
   10.035    6.1664
   10.050    6.0611
   10.065    5.8399
   10.080    5.9189
   10.095    6.2401
   10.110    5.7293
   10.125    6.0664
   10.140    6.0716
   10.155    6.3770
   10.170    5.9031
   10.185    6.1453
   10.200    5.8452
   10.215    5.9452
   10.230    5.7662
   10.245    5.8926
   10.260    6.0400
   10.275    6.0874
   10.290    5.9400
   10.305    6.1506
   10.320    6.0769
   10.335    6.2507
   10.350    6.0137
   10.365    6.2875
   10.380    6.1559
   10.395    6.1085
   10.410    6.2349
   10.425    6.4771
   10.440    6.2454
   10.455    6.3402
   10.470    6.1769
   10.485    6.0400
   10.500    6.2665
   10.515    6.3718
   10.530    6.0874
   10.545    6.1348
   10.560    6.0558
   10.575    6.2981
   10.590    6.4139
   10.605    6.4982
   10.620    6.4455
   10.635    6.1611
   10.650    6.3981
   10.665    6.1875
   10.680    5.9084
   10.695    6.2085
   10.710    6.2138
   10.725    5.8294
   10.740    5.9821
   10.755    6.0821
   10.770    6.2770
   10.785    6.3454
   10.800    6.1769
   10.815    5.8241
   10.830    5.8557
   10.845    6.1085
   10.860    6.1927
   10.875    6.0664
   10.890    6.2928
   10.905    5.9979
   10.920    6.0716
   10.935    6.3138
   10.950    6.3138
   10.965    5.7662
   10.980    6.2191
   10.995    6.2665
   11.010    6.2559
   11.025    6.0190
   11.040    6.0664
   11.055    6.0874
   11.070    6.0558
   11.085    5.8715
   11.100    5.9400
   11.115    6.2085
   11.130    6.1137
   11.145    6.0506
   11.160    5.8189
   11.175    5.9663
   11.190    5.9874
   11.205    6.1295
   11.220    6.3086
   11.235    6.0611
   11.250    6.0032
   11.265    6.3560
   11.280    6.2243
   11.295    6.1453
   11.310    6.1190
   11.325    6.2033
   11.340    6.2454
   11.355    6.2138
   11.370    6.3191
   11.385    6.5087
   11.400    6.3770
   11.415    6.2823
   11.430    6.1769
   11.445    6.0821
   11.460    6.3665
   11.475    6.3876
   11.490    6.4455
   11.505    6.0137
   11.520    6.5245
   11.535    6.3981
   11.550    6.6561
   11.565    6.4718
   11.580    6.5298
   11.595    6.4034
   11.610    6.4876
   11.625    6.5561
   11.640    6.5508
   11.655    6.5982
   11.670    6.6193
   11.685    6.3612
   11.700    6.5719
   11.715    6.5666
   11.730    6.5824
   11.745    6.3928
   11.760    6.8299
   11.775    6.4139
   11.790    6.5192
   11.805    6.6772
   11.820    6.6561
   11.835    6.6772
   11.850    6.1243
   11.865    6.5613
   11.880    6.5666
   11.895    6.2454
   11.910    6.4139
   11.925    6.4192
   11.940    6.5824
   11.955    6.4613
   11.970    6.4455
   11.985    6.3191
   12.000    6.6561
   12.015    6.4560
   12.030    6.3718
   12.045    6.4192
   12.060    6.2349
   12.075    6.3928
   12.090    6.2823
   12.105    6.2981
   12.120    6.3770
   12.135    6.4771
   12.150    6.3718
   12.165    6.3507
   12.180    6.3718
   12.195    6.0558
   12.210    6.2401
   12.225    6.2296
   12.240    6.2928
   12.255    6.0874
   12.270    6.2665
   12.285    6.1453
   12.300    6.1295
   12.315    6.3402
   12.330    6.2612
   12.345    6.1822
   12.360    6.0664
   12.375    6.0190
   12.390    6.0506
   12.405    6.1453
   12.420    5.9874
   12.435    6.0084
   12.450    6.1085
   12.465    6.1295
   12.480    6.0295
   12.495    6.0348
   12.510    5.9926
   12.525    5.9084
   12.540    6.0821
   12.555    6.3296
   12.570    6.3612
   12.585    6.3770
   12.600    6.3507
   12.615    6.0769
   12.630    5.7293
   12.645    5.9926
   12.660    5.9189
   12.675    5.9031
   12.690    6.0664
   12.705    5.9347
   12.720    6.1243
   12.735    5.9926
   12.750    6.1875
   12.765    6.1927
   12.780    6.3349
   12.795    6.1927
   12.810    6.2454
   12.825    6.3349
   12.840    6.0453
   12.855    6.2981
   12.870    6.0242
   12.885    6.1453
   12.900    6.0979
   12.915    6.2981
   12.930    5.9084
   12.945    5.9768
   12.960    5.9242
   12.975    6.0190
   12.990    6.1243
   13.005    6.1401
   13.020    5.7241
   13.035    6.0084
   13.050    6.2401
   13.065    6.2085
   13.080    6.1980
   13.095    6.0979
   13.110    6.1453
   13.125    5.7399
   13.140    6.0400
   13.155    5.9716
   13.170    5.8873
   13.185    6.1875
   13.200    6.1085
   13.215    6.0190
   13.230    6.0821
   13.245    6.0295
   13.260    5.8873
   13.275    5.7873
   13.290    5.9874
   13.305    5.7557
   13.320    5.8136
   13.335    5.9663
   13.350    5.9294
   13.365    6.0348
   13.380    5.7662
   13.395    5.7820
   13.410    5.9558
   13.425    6.0242
   13.440    5.8452
   13.455    5.8031
   13.470    6.0190
   13.485    6.0084
   13.500    6.1664
   13.515    5.8241
   13.530    6.1401
   13.545    5.7346
   13.560    5.5872
   13.575    5.8873
   13.590    5.8768
   13.605    5.8662
   13.620    6.1875
   13.635    5.5398
   13.650    5.8820
   13.665    5.8978
   13.680    5.8136
   13.695    5.7399
   13.710    5.8452
   13.725    5.7188
   13.740    6.1085
   13.755    5.6977
   13.770    5.8241
   13.785    5.7925
   13.800    5.9031
   13.815    5.7241
   13.830    5.8031
   13.845    5.7978
   13.860    5.8978
   13.875    5.8557
   13.890    5.9874
   13.905    6.1559
   13.920    5.6714
   13.935    5.8136
   13.950    5.9400
   13.965    6.0874
   13.980    5.8399
   13.995    5.9242
   14.010    6.1401
   14.025    5.8715
   14.040    6.0137
   14.055    5.9505
   14.070    6.0558
   14.085    5.9452
   14.100    5.8978
   14.115    5.9768
   14.130    5.7451
   14.145    5.8768
   14.160    5.9821
   14.175    5.7978
   14.190    5.6977
   14.205    5.8768
   14.220    5.8557
   14.235    5.7662
   14.250    5.8241
   14.265    5.8136
   14.280    5.8083
   14.295    5.7820
   14.310    5.8820
   14.325    5.8399
   14.340    5.6872
   14.355    5.7504
   14.370    5.9294
   14.385    6.1032
   14.400    6.0558
   14.415    5.8452
   14.430    5.5766
   14.445    5.8347
   14.460    5.7399
   14.475    5.7609
   14.490    5.9505
   14.505    5.9558
   14.520    5.8820
   14.535    5.9610
   14.550    5.8294
   14.565    5.6819
   14.580    5.7346
   14.595    5.9031
   14.610    5.8873
   14.625    6.0821
   14.640    5.9821
   14.655    5.7609
   14.670    5.9189
   14.685    5.7662
   14.700    5.9400
   14.715    5.9452
   14.730    5.9610
   14.745    5.7662
   14.760    5.9716
   14.775    5.8136
   14.790    5.5924
   14.805    5.9242
   14.820    5.9663
   14.835    6.2033
   14.850    5.7083
   14.865    5.7451
   14.880    5.7925
   14.895    5.9558
   14.910    5.7873
   14.925    5.8504
   14.940    5.8557
   14.955    5.8873
   14.970    5.7715
   14.985    5.7293
   15.000    5.6925
   15.015    5.7293
   15.030    5.5608
   15.045    5.8715
   15.060    5.9347
   15.075    5.9505
   15.090    5.8399
   15.105    5.7873
   15.120    5.8978
   15.135    5.7820
   15.150    6.0084
   15.165    5.9136
   15.180    5.8557
   15.195    5.8504
   15.210    5.7083
   15.225    5.7557
   15.240    5.8978
   15.255    5.5398
   15.270    5.6819
   15.285    6.0558
   15.300    5.8926
   15.315    5.9558
   15.330    5.7715
   15.345    6.0084
   15.360    6.0348
   15.375    5.8347
   15.390    5.8557
   15.405    5.7925
   15.420    6.0664
   15.435    5.7399
   15.450    6.0032
   15.465    5.8136
   15.480    5.8610
   15.495    5.9400
   15.510    5.5345
   15.525    5.6925
   15.540    6.0611
   15.555    5.8241
   15.570    5.8241
   15.585    5.9294
   15.600    5.9136
   15.615    6.0137
   15.630    6.2823
   15.645    6.1611
   15.660    5.8820
   15.675    5.8715
   15.690    6.0453
   15.705    5.8820
   15.720    5.7715
   15.735    5.8504
   15.750    5.8978
   15.765    5.7820
   15.780    5.8189
   15.795    5.5450
   15.810    5.8768
   15.825    5.8557
   15.840    5.7504
   15.855    5.9452
   15.870    5.7030
   15.885    5.8820
   15.900    5.8978
   15.915    5.9926
   15.930    5.7030
   15.945    5.8241
   15.960    5.8715
   15.975    5.7609
   15.990    5.7451
   16.005    5.7873
   16.020    5.5714
   16.035    5.8452
   16.050    5.7715
   16.065    5.7241
   16.080    5.5450
   16.095    5.6767
   16.110    5.7504
   16.125    5.7978
   16.140    5.9136
   16.155    5.7241
   16.170    5.6872
   16.185    5.7715
   16.200    5.6556
   16.215    5.8083
   16.230    5.7241
   16.245    5.8610
   16.260    5.8241
   16.275    5.6925
   16.290    5.5556
   16.305    5.7188
   16.320    5.7030
   16.335    5.6029
   16.350    5.7715
   16.365    5.4924
   16.380    5.6082
   16.395    5.5187
   16.410    5.6029
   16.425    5.6767
   16.440    5.6925
   16.455    5.6135
   16.470    5.7135
   16.485    5.8189
   16.500    5.8241
   16.515    5.5187
   16.530    5.6661
   16.545    5.7399
   16.560    5.6609
   16.575    5.5661
   16.590    5.6819
   16.605    5.5924
   16.620    5.6345
   16.635    5.4713
   16.650    5.5345
   16.665    5.8031
   16.680    5.7925
   16.695    5.7188
   16.710    5.9505
   16.725    5.8031
   16.740    5.9031
   16.755    5.8294
   16.770    5.8294
   16.785    5.6767
   16.800    5.5977
   16.815    5.5187
   16.830    5.6345
   16.845    5.5714
   16.860    5.4713
   16.875    5.4239
   16.890    5.6240
   16.905    5.7767
   16.920    5.8083
   16.935    5.4871
   16.950    5.7399
   16.965    5.9294
   16.980    5.9716
   16.995    5.8031
   17.010    5.7609
   17.025    5.6661
   17.040    5.5240
   17.055    5.4713
   17.070    5.5924
   17.085    5.7399
   17.100    5.6029
   17.115    5.8557
   17.130    5.7083
   17.145    5.8241
   17.160    5.8662
   17.175    5.7399
   17.190    5.7715
   17.205    5.7241
   17.220    5.9294
   17.235    5.6556
   17.250    6.0032
   17.265    6.0137
   17.280    5.6135
   17.295    5.4450
   17.310    5.5398
   17.325    5.7557
   17.340    5.6977
   17.355    5.6872
   17.370    5.5398
   17.385    5.6977
   17.400    5.6609
   17.415    5.6293
   17.430    5.6345
   17.445    5.7662
   17.460    5.8978
   17.475    5.7293
   17.490    5.7135
   17.505    5.9610
   17.520    5.8610
   17.535    5.7399
   17.550    5.9136
   17.565    6.0506
   17.580    5.8504
   17.595    5.8452
   17.610    5.7030
   17.625    5.8031
   17.640    5.9505
   17.655    6.0242
   17.670    5.6187
   17.685    5.8557
   17.700    5.6977
   17.715    5.8873
   17.730    6.0242
   17.745    5.9926
   17.760    5.9505
   17.775    5.9768
   17.790    5.8452
   17.805    5.8662
   17.820    5.4713
   17.835    5.6345
   17.850    6.2191
   17.865    6.1875
   17.880    5.8768
   17.895    5.9505
   17.910    6.2559
   17.925    6.0137
   17.940    5.9084
   17.955    5.9189
   17.970    6.0558
   17.985    5.9452
   18.000    5.9084
   18.015    5.9400
   18.030    5.8820
   18.045    6.0611
   18.060    5.9610
   18.075    5.7293
   18.090    5.7767
   18.105    6.0769
   18.120    6.1769
   18.135    5.8557
   18.150    6.0769
   18.165    6.1243
   18.180    5.6714
   18.195    5.6082
   18.210    5.9874
   18.225    5.8978
   18.240    5.7925
   18.255    5.9294
   18.270    6.0453
   18.285    6.0558
   18.300    5.7293
   18.315    5.8399
   18.330    5.7504
   18.345    5.8241
   18.360    5.7504
   18.375    5.7030
   18.390    5.5292
   18.405    5.6398
   18.420    5.5924
   18.435    5.6187
   18.450    5.7557
   18.465    5.8136
   18.480    5.8399
   18.495    5.9084
   18.510    5.7241
   18.525    5.8399
   18.540    5.7662
   18.555    5.5398
   18.570    5.7715
   18.585    6.1243
   18.600    5.8610
   18.615    5.6872
   18.630    5.7925
   18.645    5.8083
   18.660    5.7820
   18.675    5.8926
   18.690    5.7715
   18.705    5.8294
   18.720    5.8557
   18.735    5.7715
   18.750    5.7241
   18.765    5.9716
   18.780    5.6767
   18.795    5.8241
   18.810    6.0137
   18.825    5.9189
   18.840    5.8978
   18.855    5.8294
   18.870    5.7451
   18.885    5.7925
   18.900    5.9874
   18.915    5.8873
   18.930    5.7873
   18.945    5.6503
   18.960    5.6187
   18.975    5.5766
   18.990    5.8136
   19.005    5.7925
   19.020    5.8662
   19.035    6.1032
   19.050    5.9979
   19.065    5.6977
   19.080    5.6714
   19.095    5.9400
   19.110    6.0242
   19.125    6.0506
   19.140    5.7715
   19.155    5.8294
   19.170    5.6082
   19.185    5.7873
   19.200    5.9294
   19.215    5.7715
   19.230    6.0664
   19.245    6.1295
   19.260    6.1348
   19.275    5.5661
   19.290    6.0769
   19.305    6.0137
   19.320    5.8873
   19.335    5.9242
   19.350    5.8820
   19.365    5.6977
   19.380    5.8399
   19.395    5.9926
   19.410    5.9926
   19.425    6.1190
   19.440    5.8926
   19.455    5.8452
   19.470    5.8557
   19.485    5.8715
   19.500    5.9452
   19.515    6.0927
   19.530    5.7609
   19.545    5.9505
   19.560    5.8873
   19.575    5.8820
   19.590    5.8031
   19.605    5.9505
   19.620    5.8978
   19.635    6.1506
   19.650    6.0769
   19.665    5.9189
   19.680    6.0716
   19.695    5.9294
   19.710    5.8399
   19.725    5.8557
   19.740    5.8820
   19.755    6.0979
   19.770    6.2085
   19.785    6.1295
   19.800    5.9716
   19.815    5.8662
   19.830    6.0716
   19.845    6.0242
   19.860    6.1927
   19.875    6.3560
   19.890    6.1085
   19.905    6.0558
   19.920    5.9242
   19.935    5.9821
   19.950    5.8504
   19.965    6.2875
   19.980    5.9558
   19.995    5.9084
   20.010    6.2401
   20.025    6.2665
   20.040    6.1137
   20.055    6.0769
   20.070    6.0190
   20.085    6.0558
   20.100    6.1137
   20.115    6.2191
   20.130    6.2349
   20.145    6.0821
   20.160    6.2875
   20.175    5.9347
   20.190    5.8294
   20.205    6.3612
   20.220    6.1401
   20.235    6.0558
   20.250    6.2875
   20.265    6.1348
   20.280    6.2665
   20.295    6.0190
   20.310    6.1295
   20.325    6.4455
   20.340    6.1506
   20.355    6.2454
   20.370    6.3191
   20.385    6.1769
   20.400    6.2349
   20.415    6.1769
   20.430    6.4718
   20.445    6.1822
   20.460    6.0874
   20.475    6.3138
   20.490    6.2138
   20.505    5.9926
   20.520    6.1453
   20.535    6.2454
   20.550    6.1717
   20.565    6.0506
   20.580    6.0611
   20.595    6.2243
   20.610    6.1137
   20.625    6.1559
   20.640    6.0979
   20.655    6.0084
   20.670    6.0664
   20.685    6.1559
   20.700    6.3191
   20.715    6.2507
   20.730    6.0400
   20.745    6.1611
   20.760    6.4771
   20.775    6.3296
   20.790    6.5034
   20.805    6.1453
   20.820    6.2191
   20.835    6.3718
   20.850    6.2191
   20.865    6.3191
   20.880    6.3244
   20.895    6.0821
   20.910    6.3981
   20.925    6.1927
   20.940    6.1664
   20.955    6.3033
   20.970    6.2138
   20.985    6.0927
   21.000    6.0874
   21.015    6.3718
   21.030    6.3665
   21.045    6.3349
   21.060    6.6245
   21.075    6.6087
   21.090    6.4244
   21.105    6.3770
   21.120    6.4139
   21.135    6.4034
   21.150    6.2981
   21.165    6.1559
   21.180    6.1190
   21.195    6.4402
   21.210    6.4824
   21.225    6.3244
   21.240    6.6930
   21.255    6.4192
   21.270    6.0979
   21.285    6.2612
   21.300    6.2243
   21.315    6.3928
   21.330    6.2717
   21.345    6.0769
   21.360    6.2665
   21.375    6.2875
   21.390    6.2349
   21.405    6.2401
   21.420    6.0190
   21.435    6.2612
   21.450    6.3454
   21.465    6.4297
   21.480    6.1927
   21.495    6.3244
   21.510    6.4034
   21.525    6.3033
   21.540    6.2507
   21.555    6.3402
   21.570    6.5456
   21.585    6.4297
   21.600    6.2349
   21.615    6.1453
   21.630    5.9663
   21.645    6.4192
   21.660    6.2296
   21.675    6.1506
   21.690    6.0874
   21.705    6.3033
   21.720    5.9821
   21.735    6.0664
   21.750    6.1717
   21.765    6.4139
   21.780    5.9663
   21.795    6.1137
   21.810    6.0664
   21.825    6.0506
   21.840    6.3296
   21.855    6.4192
   21.870    6.1664
   21.885    6.0664
   21.900    6.3244
   21.915    6.1980
   21.930    6.0664
   21.945    5.8715
   21.960    5.9716
   21.975    6.0927
   21.990    6.1927
   22.005    6.3981
   22.020    6.2928
   22.035    6.2243
   22.050    6.3138
   22.065    6.3928
   22.080    6.4402
   22.095    6.3665
   22.110    6.1348
   22.125    6.2928
   22.140    6.1453
   22.155    6.2928
   22.170    6.2296
   22.185    6.2612
   22.200    6.3770
   22.215    6.3612
   22.230    6.1875
   22.245    6.2349
   22.260    6.5350
   22.275    6.5613
   22.290    6.4771
   22.305    6.4086
   22.320    6.4613
   22.335    6.3823
   22.350    6.1611
   22.365    6.1822
   22.380    6.4560
   22.395    6.5666
   22.410    6.5403
   22.425    6.4613
   22.440    6.4034
   22.455    6.5350
   22.470    6.2981
   22.485    6.3981
   22.500    6.5666
   22.515    6.2559
   22.530    6.4982
   22.545    6.3296
   22.560    6.2559
   22.575    6.3402
   22.590    6.4824
   22.605    6.5140
   22.620    6.4297
   22.635    6.5929
   22.650    6.6561
   22.665    6.4402
   22.680    6.4824
   22.695    6.2928
   22.710    6.3612
   22.725    6.5298
   22.740    6.4508
   22.755    6.4771
   22.770    6.5561
   22.785    6.2928
   22.800    6.4402
   22.815    6.3086
   22.830    6.3191
   22.845    6.5350
   22.860    6.3981
   22.875    6.3560
   22.890    6.3402
   22.905    6.1664
   22.920    6.4560
   22.935    6.2559
   22.950    6.3612
   22.965    6.1295
   22.980    6.4929
   22.995    6.3560
   23.010    6.5508
   23.025    6.2191
   23.040    6.0664
   23.055    6.3086
   23.070    6.3454
   23.085    6.2717
   23.100    6.2770
   23.115    6.5877
   23.130    6.3981
   23.145    6.3138
   23.160    6.4613
   23.175    6.4560
   23.190    6.0611
   23.205    6.2823
   23.220    6.0453
   23.235    6.1717
   23.250    6.2085
   23.265    6.2033
   23.280    6.4876
   23.295    6.0664
   23.310    6.1137
   23.325    6.1243
   23.340    6.0558
   23.355    6.0242
   23.370    6.0190
   23.385    6.0348
   23.400    5.9400
   23.415    6.2085
   23.430    5.9452
   23.445    6.2928
   23.460    6.4034
   23.475    5.9716
   23.490    6.1611
   23.505    6.0295
   23.520    5.8241
   23.535    6.1295
   23.550    5.9294
   23.565    5.9663
   23.580    5.9979
   23.595    5.7504
   23.610    6.0927
   23.625    6.1717
   23.640    6.1875
   23.655    6.0506
   23.670    5.8399
   23.685    6.1875
   23.700    5.9347
   23.715    5.5398
   23.730    5.9768
   23.745    6.0611
   23.760    5.8662
   23.775    5.8873
   23.790    6.0927
   23.805    5.9926
   23.820    5.7767
   23.835    6.1243
   23.850    5.8189
   23.865    5.7873
   23.880    5.9505
   23.895    5.9610
   23.910    6.0084
   23.925    5.9242
   23.940    5.8610
   23.955    5.7767
   23.970    5.8031
   23.985    5.9031
   24.000    5.8873
   24.015    6.0084
   24.030    5.5977
   24.045    5.8452
   24.060    5.7135
   24.075    5.7030
   24.090    5.7293
   24.105    5.8031
   24.120    5.7451
   24.135    5.8715
   24.150    5.6609
   24.165    5.7346
   24.180    5.7188
   24.195    5.7030
   24.210    5.7030
   24.225    5.6345
   24.240    5.6872
   24.255    5.9610
   24.270    5.8347
   24.285    5.7346
   24.300    5.5661
   24.315    5.8452
   24.330    5.9347
   24.345    5.6556
   24.360    5.8504
   24.375    5.8189
   24.390    5.7557
   24.405    5.8978
   24.420    5.5345
   24.435    5.8873
   24.450    5.9926
   24.465    5.6925
   24.480    5.7609
   24.495    6.0137
   24.510    5.9136
   24.525    5.9189
   24.540    5.7188
   24.555    5.8136
   24.570    5.7451
   24.585    5.9084
   24.600    5.6398
   24.615    5.7609
   24.630    5.8715
   24.645    5.8136
   24.660    5.8820
   24.675    5.6029
   24.690    5.5503
   24.705    5.7715
   24.720    5.8347
   24.735    5.7873
   24.750    5.8347
   24.765    5.7873
   24.780    5.6661
   24.795    5.8452
   24.810    6.0821
   24.825    5.8031
   24.840    5.6872
   24.855    5.7451
   24.870    5.8768
   24.885    5.8241
   24.900    5.7293
   24.915    5.6714
   24.930    5.9084
   24.945    5.9716
   24.960    5.7451
   24.975    5.9136
   24.990    5.9084
   25.005    5.7662
   25.020    5.6925
   25.035    5.8031
   25.050    5.6240
   25.065    5.5924
   25.080    5.5450
   25.095    5.7399
   25.110    5.5819
   25.125    5.7030
   25.140    5.4766
   25.155    5.5187
   25.170    5.3923
   25.185    5.4028
   25.200    5.7030
   25.215    5.5661
   25.230    5.5503
   25.245    5.4081
   25.260    5.4081
   25.275    5.6872
   25.290    5.6135
   25.305    5.5082
   25.320    5.4871
   25.335    5.5503
   25.350    5.5450
   25.365    5.2870
   25.380    5.2712
   25.395    5.3133
   25.410    5.4081
   25.425    5.2607
   25.440    5.3397
   25.455    5.4924
   25.470    5.2080
   25.485    5.4713
   25.500    5.3818
   25.515    5.3133
   25.530    5.2501
   25.545    5.3186
   25.560    5.2027
   25.575    5.2080
   25.590    5.3712
   25.605    5.3186
   25.620    5.5661
   25.635    5.5977
   25.650    5.3449
   25.665    5.2291
   25.680    5.4397
   25.695    5.5450
   25.710    5.0816
   25.725    5.6661
   25.740    5.7557
   25.755    5.6187
   25.770    5.5240
   25.785    5.2501
   25.800    5.5661
   25.815    5.6767
   25.830    5.0658
   25.845    5.3923
   25.860    5.3239
   25.875    5.2343
   25.890    5.1237
   25.905    5.0711
   25.920    5.4660
   25.935    5.3660
   25.950    5.3186
   25.965    5.2607
   25.980    5.2554
   25.995    5.5134
   26.010    5.3186
   26.025    5.1764
   26.040    5.2238
   26.055    4.9289
   26.070    5.4028
   26.085    5.3081
   26.100    5.1659
   26.115    5.3555
   26.130    5.2449
   26.145    5.1448
   26.160    5.3397
   26.175    5.0132
   26.190    5.4818
   26.205    5.4397
   26.220    5.2870
   26.235    5.2133
   26.250    5.2923
   26.265    5.1290
   26.280    5.3555
   26.295    5.3081
   26.310    5.2923
   26.325    5.2659
   26.340    5.0606
   26.355    5.2343
   26.370    4.9289
   26.385    5.0553
   26.400    5.3344
   26.415    5.2870
   26.430    5.1237
   26.445    5.2343
   26.460    5.3133
   26.475    5.3344
   26.490    5.2133
   26.505    5.2607
   26.520    5.2870
   26.535    5.3397
   26.550    5.2817
   26.565    4.9816
   26.580    5.2027
   26.595    5.3028
   26.610    5.1553
   26.625    5.0342
   26.640    5.2765
   26.655    5.2238
   26.670    5.2817
   26.685    5.1027
   26.700    5.3818
   26.715    5.5292
   26.730    5.3660
   26.745    5.1553
   26.760    5.1080
   26.775    5.1237
   26.790    5.2765
   26.805    5.1606
   26.820    5.2027
   26.835    5.3923
   26.850    5.3870
   26.865    5.2870
   26.880    5.0395
   26.895    5.2080
   26.910    5.2501
   26.925    5.2659
   26.940    5.0606
   26.955    5.3502
   26.970    5.1448
   26.985    5.2291
   27.000    5.1817
   27.015    4.9974
   27.030    5.1501
   27.045    5.2712
   27.060    5.1975
   27.075    5.1553
   27.090    5.2343
   27.105    5.1659
   27.120    5.2923
   27.135    4.9078
   27.150    5.3186
   27.165    5.2185
   27.180    5.1343
   27.195    5.1817
   27.210    5.3239
   27.225    5.0816
   27.240    4.9710
   27.255    5.1290
   27.270    5.1132
   27.285    4.9447
   27.300    5.0079
   27.315    5.3502
   27.330    5.2923
   27.345    5.4397
   27.360    5.0658
   27.375    5.2343
   27.390    4.8499
   27.405    5.0764
   27.420    5.2712
   27.435    4.9289
   27.450    5.1290
   27.465    5.1764
   27.480    5.0395
   27.495    5.1185
   27.510    5.0448
   27.525    4.9763
   27.540    5.0500
   27.555    5.1501
   27.570    5.1132
   27.585    5.0606
   27.600    4.9078
   27.615    4.8289
   27.630    5.2501
   27.645    5.1975
   27.660    5.0922
   27.675    4.9974
   27.690    5.2027
   27.705    5.1343
   27.720    4.9342
   27.735    4.9658
   27.750    4.9710
   27.765    5.2554
   27.780    5.2659
   27.795    4.9500
   27.810    5.1975
   27.825    5.2027
   27.840    5.1606
   27.855    5.1185
   27.870    4.9868
   27.885    5.1975
   27.900    5.1711
   27.915    5.0869
   27.930    4.8973
   27.945    4.9447
   27.960    5.1395
   27.975    5.0079
   27.990    5.1395
   28.005    4.9658
   28.020    5.0764
   28.035    5.0290
   28.050    4.9816
   28.065    4.9658
   28.080    4.8289
   28.095    5.0342
   28.110    5.2080
   28.125    5.0079
   28.140    5.0764
   28.155    5.2923
   28.170    5.0974
   28.185    5.1553
   28.200    5.2238
   28.215    5.0711
   28.230    4.9710
   28.245    5.1711
   28.260    5.0448
   28.275    5.0816
   28.290    5.0448
   28.305    5.0500
   28.320    5.0395
   28.335    5.0026
   28.350    5.1606
   28.365    5.1132
   28.380    4.9236
   28.395    5.2291
   28.410    5.1448
   28.425    4.9552
   28.440    4.8815
   28.455    4.8973
   28.470    4.9289
   28.485    5.0500
   28.500    4.8552
   28.515    4.8710
   28.530    4.8447
   28.545    4.9184
   28.560    4.8920
   28.575    5.0026
   28.590    4.9447
   28.605    4.6130
   28.620    4.8078
   28.635    4.8236
   28.650    4.9394
   28.665    4.9131
   28.680    4.7709
   28.695    4.8341
   28.710    5.0395
   28.725    5.0553
   28.740    5.0395
   28.755    5.0026
   28.770    5.1080
   28.785    5.0500
   28.800    5.0079
   28.815    4.9500
   28.830    5.1395
   28.845    5.1606
   28.860    4.8605
   28.875    4.7341
   28.890    4.5550
   28.905    4.7762
   28.920    4.8289
   28.935    4.9184
   28.950    4.9500
   28.965    4.7235
   28.980    4.9131
   28.995    4.7973
   29.010    4.7077
   29.025    4.5445
   29.040    4.7446
   29.055    4.8341
   29.070    4.5656
   29.085    4.8605
   29.100    4.8341
   29.115    4.7393
   29.130    4.9816
   29.145    4.8131
   29.160    4.6024
   29.175    4.9236
   29.190    5.1132
   29.205    5.0342
   29.220    4.9078
   29.235    4.9078
   29.250    4.8236
   29.265    4.8920
   29.280    4.6972
   29.295    4.8763
   29.310    4.9026
   29.325    4.7920
   29.340    4.7551
   29.355    4.7973
   29.370    4.6972
   29.385    4.6235
   29.400    4.7288
   29.415    4.8183
   29.430    4.8973
   29.445    4.8657
   29.460    4.7815
   29.475    4.6761
   29.490    4.7920
   29.505    4.7709
   29.520    4.9289
   29.535    4.8236
   29.550    4.8552
   29.565    4.8183
   29.580    4.8815
   29.595    4.7077
   29.610    4.6393
   29.625    4.7920
   29.640    4.7762
   29.655    4.6761
   29.670    5.0764
   29.685    4.6709
   29.700    4.7604
   29.715    4.6182
   29.730    4.7235
   29.745    4.8920
   29.760    4.6761
   29.775    4.9868
   29.790    4.9605
   29.805    4.9710
   29.820    4.5498
   29.835    4.5972
   29.850    4.8605
   29.865    4.7025
   29.880    4.5656
   29.895    4.7077
   29.910    4.7709
   29.925    4.6972
   29.940    4.5708
   29.955    4.7551
   29.970    4.9131
   29.985    4.6445
   30.000    4.8289
   30.015    4.7973
   30.030    4.9184
   30.045    5.1027
   30.060    4.8078
   30.075    4.7025
   30.090    4.7446
   30.105    4.7183
   30.120    4.7762
   30.135    4.6024
   30.150    4.7709
   30.165    4.7025
   30.180    4.6130
   30.195    4.5340
   30.210    4.5972
   30.225    4.6814
   30.240    4.8605
   30.255    4.7288
   30.270    4.8552
   30.285    4.6130
   30.300    4.4444
   30.315    4.7657
   30.330    4.6656
   30.345    4.5814
   30.360    4.6498
   30.375    4.5445
   30.390    4.7235
   30.405    4.5866
   30.420    4.4918
   30.435    4.8236
   30.450    4.4971
   30.465    4.7025
   30.480    4.7393
   30.495    4.5866
   30.510    4.7341
   30.525    4.9447
   30.540    5.0026
   30.555    4.7341
   30.570    4.6867
   30.585    4.8131
   30.600    4.7709
   30.615    4.7183
   30.630    4.8078
   30.645    4.7235
   30.660    4.4339
   30.675    4.6340
   30.690    4.8447
   30.705    4.8183
   30.720    4.7973
   30.735    4.8920
   30.750    4.7604
   30.765    4.7393
   30.780    4.7341
   30.795    4.7709
   30.810    4.8447
   30.825    4.8131
   30.840    4.3813
   30.855    4.6498
   30.870    4.7709
   30.885    4.8552
   30.900    4.7762
   30.915    4.5445
   30.930    4.7393
   30.945    4.7499
   30.960    4.7341
   30.975    4.4234
   30.990    4.9289
   31.005    4.7551
   31.020    4.5814
   31.035    4.6445
   31.050    4.6235
   31.065    4.7130
   31.080    4.5761
   31.095    4.3655
   31.110    4.5972
   31.125    4.5814
   31.140    4.5340
   31.155    4.5182
   31.170    4.5445
   31.185    4.6445
   31.200    4.4971
   31.215    4.7130
   31.230    4.8605
   31.245    4.5814
   31.260    4.6024
   31.275    4.3497
   31.290    4.4655
   31.305    4.3075
   31.320    4.4971
   31.335    4.5129
   31.350    4.8236
   31.365    4.6761
   31.380    4.9131
   31.395    4.7551
   31.410    4.7077
   31.425    4.4760
   31.440    4.4181
   31.455    4.5234
   31.470    4.4234
   31.485    4.5076
   31.500    4.3971
   31.515    4.3813
   31.530    4.6235
   31.545    4.5761
   31.560    4.6077
   31.575    4.7657
   31.590    4.4866
   31.605    4.4181
   31.620    4.3023
   31.635    4.4497
   31.650    4.6288
   31.665    4.7551
   31.680    4.6919
   31.695    4.5603
   31.710    4.8710
   31.725    4.8078
   31.740    4.5024
   31.755    4.5287
   31.770    4.7288
   31.785    4.5498
   31.800    4.6972
   31.815    4.8289
   31.830    4.3655
   31.845    4.4339
   31.860    4.3760
   31.875    4.5866
   31.890    4.5656
   31.905    4.4392
   31.920    4.3760
   31.935    4.6024
   31.950    4.6288
   31.965    4.4497
   31.980    4.4392
   31.995    4.6445
   32.010    4.5076
   32.025    4.7446
   32.040    4.6709
   32.055    4.6235
   32.070    4.2338
   32.085    4.3707
   32.100    4.6393
   32.115    4.4655
   32.130    4.6867
   32.145    4.6919
   32.160    4.6814
   32.175    4.7446
   32.190    4.5550
   32.205    4.6340
   32.220    4.5761
   32.235    4.5656
   32.250    4.6393
   32.265    4.4023
   32.280    4.4286
   32.295    4.4866
   32.310    4.2865
   32.325    4.5814
   32.340    4.5392
   32.355    4.4866
   32.370    4.5076
   32.385    4.5024
   32.400    4.4128
   32.415    4.4918
   32.430    4.5234
   32.445    4.5392
   32.460    4.3339
   32.475    4.4655
   32.490    4.6077
   32.505    4.5866
   32.520    4.5076
   32.535    4.2601
   32.550    4.5287
   32.565    4.3128
   32.580    4.4866
   32.595    4.5129
   32.610    4.4760
   32.625    4.5708
   32.640    4.4392
   32.655    4.3444
   32.670    4.4076
   32.685    4.1706
   32.700    4.5814
   32.715    4.6498
   32.730    4.3707
   32.745    4.3286
   32.760    4.4760
   32.775    4.4602
   32.790    4.4971
   32.805    4.5603
   32.820    4.3707
   32.835    4.3549
   32.850    4.4076
   32.865    4.2865
   32.880    4.4971
   32.895    4.6130
   32.910    4.3655
   32.925    4.2127
   32.940    4.3760
   32.955    4.4128
   32.970    4.4234
   32.985    4.2917
   33.000    4.2443
   33.015    4.5656
   33.030    4.2865
   33.045    4.3233
   33.060    4.2391
   33.075    4.4128
   33.090    4.4655
   33.105    4.1864
   33.120    4.4181
   33.135    4.4971
   33.150    4.2496
   33.165    4.2022
   33.180    4.1969
   33.195    4.3391
   33.210    4.3075
   33.225    4.2759
   33.240    4.4497
   33.255    4.3865
   33.270    4.3497
   33.285    4.2022
   33.300    4.3286
   33.315    4.2022
   33.330    4.2127
   33.345    4.2022
   33.360    4.1285
   33.375    4.0811
   33.390    4.1496
   33.405    4.3918
   33.420    4.4444
   33.435    4.3128
   33.450    4.1285
   33.465    4.2917
   33.480    4.3707
   33.495    4.3233
   33.510    4.2654
   33.525    4.3181
   33.540    4.2654
   33.555    4.1390
   33.570    4.3181
   33.585    4.3339
   33.600    4.3497
   33.615    4.2812
   33.630    4.1601
   33.645    4.2391
   33.660    4.2759
   33.675    4.2127
   33.690    4.2075
   33.705    4.0706
   33.720    4.1864
   33.735    4.1706
   33.750    4.2075
   33.765    4.3286
   33.780    4.2917
   33.795    4.0074
   33.810    4.1969
   33.825    4.1864
   33.840    4.1917
   33.855    4.3339
   33.870    4.1074
   33.885    4.1443
   33.900    4.0337
   33.915    4.2496
   33.930    4.4234
   33.945    4.2285
   33.960    4.2601
   33.975    4.1917
   33.990    4.0337
   34.005    4.1759
   34.020    4.1496
   34.035    4.1127
   34.050    4.1759
   34.065    4.0390
   34.080    4.2391
   34.095    4.4444
   34.110    4.2759
   34.125    3.9863
   34.140    4.1601
   34.155    4.1969
   34.170    4.2707
   34.185    4.3655
   34.200    4.0811
   34.215    4.1496
   34.230    4.0653
   34.245    4.1390
   34.260    4.2127
   34.275    4.2285
   34.290    4.1811
   34.305    3.8863
   34.320    3.9231
   34.335    3.9968
   34.350    4.0548
   34.365    4.0706
   34.380    4.0600
   34.395    4.0126
   34.410    4.0126
   34.425    4.1443
   34.440    3.8757
   34.455    4.0179
   34.470    3.9758
   34.485    3.9073
   34.500    4.0495
   34.515    4.0232
   34.530    4.2233
   34.545    4.1654
   34.560    3.9810
   34.575    4.3707
   34.590    4.3023
   34.605    4.0758
   34.620    4.0916
   34.635    4.3023
   34.650    3.9652
   34.665    4.1074
   34.680    4.1338
   34.695    4.0232
   34.710    3.8231
   34.725    4.0864
   34.740    3.7967
   34.755    4.2022
   34.770    4.1969
   34.785    4.1496
   34.800    4.1074
   34.815    4.0337
   34.830    4.3549
   34.845    4.1496
   34.860    3.9494
   34.875    4.0179
   34.890    4.0811
   34.905    4.0232
   34.920    3.9073
   34.935    4.0284
   34.950    4.0021
   34.965    3.6704
   34.980    3.8915
   34.995    4.2601
   35.010    4.0758
   35.025    4.1180
   35.040    4.2127
   35.055    4.1022
   35.070    3.9126
   35.085    3.9336
   35.100    3.8547
   35.115    4.0969
   35.130    3.9179
   35.145    4.1074
   35.160    3.7546
   35.175    3.8494
   35.190    4.0811
   35.205    4.1127
   35.220    3.9705
   35.235    4.2443
   35.250    3.9547
   35.265    4.1706
   35.280    3.9916
   35.295    3.8810
   35.310    4.1127
   35.325    4.1969
   35.340    4.0864
   35.355    4.0706
   35.370    4.1917
   35.385    4.0706
   35.400    4.0706
   35.415    4.2022
   35.430    4.0284
   35.445    4.0758
   35.460    4.1917
   35.475    4.0864
   35.490    4.0600
   35.505    4.1864
   35.520    4.1548
   35.535    3.9336
   35.550    3.9810
   35.565    4.1864
   35.580    3.8915
   35.595    4.0179
   35.610    3.8652
   35.625    3.8178
   35.640    3.8915
   35.655    3.7493
   35.670    3.8863
   35.685    3.9547
   35.700    3.8968
   35.715    3.8178
   35.730    3.8863
   35.745    3.9600
   35.760    3.8863
   35.775    3.9705
   35.790    3.9810
   35.805    4.1443
   35.820    3.9442
   35.835    4.0653
   35.850    3.9810
   35.865    3.9494
   35.880    4.0548
   35.895    4.0706
   35.910    3.8652
   35.925    3.8705
   35.940    3.8494
   35.955    4.1127
   35.970    4.0600
   35.985    3.9758
   36.000    3.9810
   36.015    3.9179
   36.030    3.9652
   36.045    3.9126
   36.060    3.9336
   36.075    3.9073
   36.090    3.7967
   36.105    4.1654
   36.120    3.8020
   36.135    3.8810
   36.150    4.0179
   36.165    3.9284
   36.180    3.9442
   36.195    3.9810
   36.210    3.9126
   36.225    3.9705
   36.240    3.9179
   36.255    4.2812
   36.270    4.1917
   36.285    4.0390
   36.300    3.9389
   36.315    4.0442
   36.330    3.9652
   36.345    3.9179
   36.360    3.9547
   36.375    3.9863
   36.390    3.8178
   36.405    3.8810
   36.420    4.1232
   36.435    4.0969
   36.450    3.8547
   36.465    4.0706
   36.480    3.8652
   36.495    3.9021
   36.510    3.8915
   36.525    4.0179
   36.540    4.0126
   36.555    3.9442
   36.570    3.6177
   36.585    3.8178
   36.600    3.7651
   36.615    3.7388
   36.630    3.7125
   36.645    3.7335
   36.660    3.7441
   36.675    4.0495
   36.690    3.7441
   36.705    3.9389
   36.720    3.7335
   36.735    3.9021
   36.750    4.0916
   36.765    3.8073
   36.780    3.7388
   36.795    3.8283
   36.810    3.8652
   36.825    3.9442
   36.840    4.0126
   36.855    3.8389
   36.870    3.7809
   36.885    3.7388
   36.900    3.6914
   36.915    3.7967
   36.930    3.9179
   36.945    4.1496
   36.960    3.8757
   36.975    3.9600
   36.990    3.8705
   37.005    3.7493
   37.020    4.1232
   37.035    3.9494
   37.050    3.8863
   37.065    3.7704
   37.080    3.8863
   37.095    3.8020
   37.110    3.8547
   37.125    3.9547
   37.140    4.0126
   37.155    4.1496
   37.170    3.8863
   37.185    3.8968
   37.200    3.7388
   37.215    3.9179
   37.230    3.6335
   37.245    4.0126
   37.260    3.8547
   37.275    3.7967
   37.290    4.1496
   37.305    3.9547
   37.320    3.7967
   37.335    3.7599
   37.350    3.6388
   37.365    3.9126
   37.380    3.7335
   37.395    3.7283
   37.410    3.9021
   37.425    3.8547
   37.440    3.9126
   37.455    3.7809
   37.470    3.7599
   37.485    3.6388
   37.500    3.7704
   37.515    4.0284
   37.530    3.5440
   37.545    3.7441
   37.560    3.7493
   37.575    3.9336
   37.590    3.7441
   37.605    3.9179
   37.620    4.0337
   37.635    3.9916
   37.650    3.7915
   37.665    3.7704
   37.680    3.8336
   37.695    3.5282
   37.710    3.7283
   37.725    3.7915
   37.740    3.8073
   37.755    3.6019
   37.770    3.8441
   37.785    3.7915
   37.800    3.6335
   37.815    3.6072
   37.830    3.6598
   37.845    3.6440
   37.860    3.6756
   37.875    3.9179
   37.890    3.8389
   37.905    3.7072
   37.920    4.0126
   37.935    3.9442
   37.950    4.0021
   37.965    4.0074
   37.980    3.7809
   37.995    3.6493
   38.010    3.7230
   38.025    3.8178
   38.040    4.0284
   38.055    3.7546
   38.070    3.6493
   38.085    3.7599
   38.100    3.7967
   38.115    3.8231
   38.130    3.8020
   38.145    3.7283
   38.160    3.8020
   38.175    3.6072
   38.190    3.7072
   38.205    3.9073
   38.220    3.8336
   38.235    3.7283
   38.250    3.9126
   38.265    3.5282
   38.280    3.6230
   38.295    3.6282
   38.310    3.7862
   38.325    3.9652
   38.340    3.8283
   38.355    3.8020
   38.370    3.6809
   38.385    3.8441
   38.400    3.8073
   38.415    3.8863
   38.430    3.5703
   38.445    3.7441
   38.460    3.7283
   38.475    3.7177
   38.490    3.9021
   38.505    3.8705
   38.520    3.6967
   38.535    3.7230
   38.550    3.6756
   38.565    3.8073
   38.580    3.8652
   38.595    3.7651
   38.610    3.5650
   38.625    3.7967
   38.640    3.9284
   38.655    3.6704
   38.670    3.7546
   38.685    3.8178
   38.700    3.9021
   38.715    3.9494
   38.730    3.6335
   38.745    3.5650
   38.760    3.7862
   38.775    3.8652
   38.790    3.8441
   38.805    3.6546
   38.820    3.7493
   38.835    3.8705
   38.850    3.7809
   38.865    3.6651
   38.880    3.6335
   38.895    3.7019
   38.910    3.7441
   38.925    3.9231
   38.940    3.8178
   38.955    3.7493
   38.970    3.8494
   38.985    3.7072
   39.000    3.8915
   39.015    3.7967
   39.030    3.7493
   39.045    3.6967
   39.060    3.3965
   39.075    3.6177
   39.090    3.6177
   39.105    3.8757
   39.120    3.8915
   39.135    3.6862
   39.150    3.6388
   39.165    3.7230
   39.180    3.6651
   39.195    3.7388
   39.210    3.8389
   39.225    3.6546
   39.240    3.6651
   39.255    3.7072
   39.270    3.7283
   39.285    3.6967
   39.300    3.7599
   39.315    3.7230
   39.330    3.5914
   39.345    3.6546
   39.360    3.6862
   39.375    3.6072
   39.390    3.7283
   39.405    3.6072
   39.420    3.5545
   39.435    3.7704
   39.450    3.9073
   39.465    3.8073
   39.480    3.8020
   39.495    3.8389
   39.510    3.7809
   39.525    3.6230
   39.540    3.8283
   39.555    3.9652
   39.570    3.7441
   39.585    3.7546
   39.600    3.6967
   39.615    3.6177
   39.630    3.6598
   39.645    3.8494
   39.660    3.5545
   39.675    3.6019
   39.690    3.6440
   39.705    3.4966
   39.720    3.7862
   39.735    3.6335
   39.750    3.6809
   39.765    3.7493
   39.780    3.7388
   39.795    3.6124
   39.810    3.6809
   39.825    3.6967
   39.840    3.7704
   39.855    3.6651
   39.870    3.8020
   39.885    3.5756
   39.900    3.7809
   39.915    3.8652
   39.930    3.7283
   39.945    3.7493
   39.960    3.7546
   39.975    3.9600
   39.990    3.6914
