    1.500   30.3949
    1.515   30.4002
    1.530   30.3844
    1.545   30.0053
    1.560   29.1364
    1.575   28.7941
    1.590   28.2517
    1.605   27.7409
    1.620   27.4302
    1.635   27.1301
    1.650   27.0353
    1.665   26.9510
    1.680   26.2717
    1.695   25.6345
    1.710   25.0448
    1.725   25.3502
    1.740   24.5445
    1.755   24.5761
    1.770   24.4286
    1.785   24.4866
    1.800   23.3597
    1.815   23.1912
    1.830   23.2912
    1.845   22.8699
    1.860   22.5119
    1.875   22.5171
    1.890   21.8589
    1.905   21.7694
    1.920   21.1480
    1.935   20.9689
    1.950   20.9268
    1.965   21.0900
    1.980   20.5108
    1.995   20.0843
    2.010   20.1738
    2.025   19.7736
    2.040   19.6367
    2.055   19.5735
    2.070   19.6209
    2.085   19.3365
    2.100   19.3312
    2.115   18.6519
    2.130   18.5255
    2.145   18.8626
    2.160   18.3781
    2.175   18.3412
    2.190   18.4202
    2.205   18.2359
    2.220   17.9779
    2.235   18.3096
    2.250   17.9989
    2.265   18.0727
    2.280   17.7146
    2.295   17.5461
    2.310   17.4460
    2.325   17.4250
    2.340   17.4566
    2.355   17.4302
    2.370   16.9300
    2.385   16.9984
    2.400   16.5666
    2.415   16.8352
    2.430   16.8720
    2.445   16.8562
    2.460   16.6877
    2.475   16.1348
    2.490   16.4560
    2.505   16.5403
    2.520   16.5508
    2.535   16.5824
    2.550   16.2928
    2.565   16.3823
    2.580   16.6561
    2.595   16.4876
    2.610   16.0874
    2.625   16.4771
    2.640   16.1032
    2.655   16.1453
    2.670   15.9979
    2.685   16.4297
    2.700   16.3665
    2.715   16.2296
    2.730   16.0400
    2.745   15.7557
    2.760   15.9136
    2.775   16.7404
    2.790   16.5666
    2.805   16.9774
    2.820   17.2565
    2.835   17.0616
    2.850   16.8878
    2.865   17.0248
    2.880   17.0458
    2.895   16.9826
    2.910   17.2301
    2.925   17.1511
    2.940   17.2670
    2.955   17.1722
    2.970   17.3670
    2.985   17.6514
    3.000   17.8199
    3.015   18.1043
    3.030   17.9989
    3.045   18.2412
    3.060   18.4834
    3.075   18.3939
    3.090   18.9731
    3.105   19.2048
    3.120   19.6735
    3.135   19.9842
    3.150   20.2054
    3.165   20.0211
    3.180   20.3528
    3.195   20.7952
    3.210   20.7899
    3.225   21.8957
    3.240   22.2591
    3.255   22.7593
    3.270   22.9121
    3.285   23.3017
    3.300   23.7125
    3.315   23.7704
    3.330   24.3813
    3.345   25.0869
    3.360   26.2507
    3.375   26.4297
    3.390   26.4244
    3.405   27.5935
    3.420   28.3886
    3.435   29.2206
    3.450   29.8210
    3.465   31.0058
    3.480   32.2644
    3.495   33.3597
    3.510   33.6440
    3.525   34.1601
    3.540   34.4813
    3.555   35.0132
    3.570   36.7667
    3.585   38.2201
    3.600   39.4945
    3.615   40.1790
    3.630   41.1322
    3.645   42.8910
    3.660   45.1343
    3.675   46.8510
    3.690   48.5255
    3.705   50.9637
    3.720   54.1759
    3.735   56.1348
    3.750   60.0632
    3.765   64.0548
    3.780   67.0300
    3.795   71.9695
    3.810   78.1148
    3.825   84.3023
    3.840   93.9073
    3.855  103.3228
    3.870  118.9574
    3.885  139.6261
    3.900  159.8210
    3.915  166.1348
    3.930  152.7436
    3.945  121.9063
    3.960   78.4571
    3.975   42.6330
    3.990   24.2285
    4.005   17.4039
    4.020   14.7235
    4.035   13.5703
    4.050   12.7067
    4.065   11.6482
    4.080   10.9847
    4.095   10.5635
    4.110   10.5687
    4.125    9.9789
    4.140    9.7894
    4.155    9.8052
    4.170    9.4839
    4.185    9.6998
    4.200    9.3944
    4.215    9.1259
    4.230    8.9995
    4.245    8.9047
    4.260    8.9784
    4.275    8.9995
    4.290    8.7836
    4.305    8.9784
    4.320    8.6730
    4.335    8.5255
    4.350    8.6730
    4.365    8.5150
    4.380    8.4939
    4.395    8.8520
    4.410    8.7836
    4.425    8.4676
    4.440    8.5097
    4.455    8.5624
    4.470    8.1727
    4.485    8.1359
    4.500    8.6203
    4.515    8.2938
    4.530    8.3834
    4.545    8.4202
    4.560    8.3623
    4.575    8.3044
    4.590    8.4255
    4.605    8.0095
    4.620    8.1780
    4.635    8.0200
    4.650    8.3781
    4.665    8.3939
    4.680    8.1991
    4.695    8.2412
    4.710    8.5361
    4.725    8.1885
    4.740    8.3518
    4.755    8.4202
    4.770    8.6203
    4.785    8.5519
    4.800    8.9047
    4.815    8.6730
    4.830    8.6677
    4.845    8.4308
    4.860    8.5308
    4.875    8.6361
    4.890    8.9415
    4.905    9.0837
    4.920    8.8573
    4.935    9.1311
    4.950    8.9415
    4.965    8.9521
    4.980    9.4313
    4.995    9.2786
    5.010    9.8894
    5.025    9.9368
    5.040    9.6051
    5.055   10.0316
    5.070    9.9473
    5.085   10.1843
    5.100   10.1001
    5.115   10.0000
    5.130   10.4318
    5.145   10.7056
    5.160   10.9005
    5.175   10.8268
    5.190   11.1058
    5.205   11.5324
    5.220   11.8009
    5.235   12.3855
    5.250   12.5066
    5.265   12.5487
    5.280   13.1859
    5.295   13.4650
    5.310   14.1443
    5.325   14.5392
    5.340   15.2712
    5.355   15.4871
    5.370   16.5613
    5.385   17.4039
    5.400   18.4044
    5.415   19.5629
    5.430   20.6266
    5.445   22.1116
    5.460   23.7599
    5.475   26.1559
    5.490   28.8889
    5.505   33.5334
    5.520   38.5782
    5.535   40.9742
    5.550   39.1838
    5.565   33.4334
    5.580   24.0548
    5.595   15.7925
    5.610   11.1638
    5.625    8.9837
    5.640    8.0621
    5.655    7.7409
    5.670    7.4039
    5.685    7.4671
    5.700    7.6303
    5.715    7.5882
    5.730    7.3249
    5.745    7.0774
    5.760    7.3723
    5.775    7.0985
    5.790    7.3144
    5.805    6.9721
    5.820    6.9405
    5.835    6.5982
    5.850    6.6877
    5.865    6.8562
    5.880    6.6719
    5.895    6.9774
    5.910    6.8931
    5.925    6.8246
    5.940    7.0827
    5.955    6.7983
    5.970    6.7351
    5.985    6.9352
    6.000    6.8404
    6.015    6.7035
    6.030    6.7088
    6.045    6.7193
    6.060    6.6667
    6.075    6.8720
    6.090    7.0563
    6.105    7.0511
    6.120    6.8720
    6.135    6.8878
    6.150    6.7509
    6.165    6.8931
    6.180    7.0985
    6.195    6.8510
    6.210    6.9616
    6.225    7.0458
    6.240    6.8562
    6.255    6.8510
    6.270    7.0248
    6.285    7.2301
    6.300    6.9616
    6.315    7.2038
    6.330    6.8984
    6.345    7.2301
    6.360    7.3407
    6.375    7.3512
    6.390    7.2565
    6.405    7.4408
    6.420    7.4250
    6.435    7.5408
    6.450    7.6725
    6.465    7.8884
    6.480    7.8462
    6.495    7.9726
    6.510    7.9252
    6.525    7.8462
    6.540    7.7988
    6.555    8.1148
    6.570    8.4360
    6.585    8.5255
    6.600    8.8942
    6.615    9.1627
    6.630    9.3523
    6.645    9.5366
    6.660    9.3576
    6.675   10.1106
    6.690   10.3897
    6.705   10.9742
    6.720   11.8115
    6.735   12.7804
    6.750   13.8863
    6.765   15.5766
    6.780   16.2559
    6.795   16.0664
    6.810   14.8236
    6.825   11.9115
    6.840    9.5208
    6.855    8.0147
    6.870    7.2249
    6.885    7.1353
    6.900    6.9721
    6.915    6.9563
    6.930    6.9247
    6.945    6.9668
    6.960    6.6772
    6.975    6.6667
    6.990    6.8404
    7.005    6.7246
    7.020    6.8457
    7.035    6.6877
    7.050    6.6614
    7.065    6.7667
    7.080    6.7351
    7.095    6.7246
    7.110    6.7983
    7.125    6.6245
    7.140    6.3086
    7.155    6.5771
    7.170    6.7088
    7.185    6.6403
    7.200    6.2770
    7.215    6.6403
    7.230    6.5561
    7.245    6.7193
    7.260    6.5613
    7.275    6.8984
    7.290    6.6983
    7.305    6.7878
    7.320    6.2717
    7.335    6.9089
    7.350    6.9142
    7.365    6.9194
    7.380    7.0037
    7.395    6.8141
    7.410    7.0037
    7.425    6.7193
    7.440    6.6509
    7.455    6.7930
    7.470    6.8562
    7.485    7.0300
    7.500    6.9300
    7.515    7.0721
    7.530    6.9721
    7.545    7.0248
    7.560    7.1827
    7.575    7.3670
    7.590    7.3618
    7.605    7.4302
    7.620    7.6461
    7.635    7.7620
    7.650    7.9200
    7.665    7.9358
    7.680    8.2254
    7.695    8.7783
    7.710    8.6203
    7.725    8.8784
    7.740    9.1153
    7.755    9.7104
    7.770   10.1580
    7.785   10.8373
    7.800   11.8167
    7.815   13.0648
    7.830   13.7335
    7.845   13.3913
    7.860   12.5066
    7.875   10.8478
    7.890    8.8784
    7.905    7.6672
    7.920    7.0563
    7.935    6.8984
    7.950    6.7246
    7.965    6.8457
    7.980    6.6877
    7.995    6.7351
    8.010    6.4613
    8.025    6.4718
    8.040    6.6983
    8.055    6.5456
    8.070    6.4560
    8.085    6.5613
    8.100    6.4824
    8.115    6.3876
    8.130    6.4771
    8.145    6.3981
    8.160    6.3823
    8.175    6.4560
    8.190    6.4402
    8.205    6.5140
    8.220    6.3086
    8.235    6.4876
    8.250    6.5034
    8.265    6.3138
    8.280    6.5666
    8.295    6.5824
    8.310    6.4139
    8.325    6.1664
    8.340    6.2875
    8.355    6.3770
    8.370    6.4560
    8.385    6.4034
    8.400    6.6561
    8.415    6.5192
    8.430    6.4350
    8.445    6.2033
    8.460    6.5245
    8.475    6.4297
    8.490    6.2665
    8.505    6.3612
    8.520    6.5561
    8.535    6.3560
    8.550    6.6193
    8.565    6.7141
    8.580    6.6877
    8.595    6.6719
    8.610    6.5719
    8.625    6.6403
    8.640    6.7878
    8.655    6.8404
    8.670    6.8773
    8.685    6.6298
    8.700    6.4086
    8.715    6.9142
    8.730    7.0827
    8.745    7.0985
    8.760    7.1933
    8.775    7.1248
    8.790    6.8720
    8.805    6.6930
    8.820    6.5192
    8.835    6.4666
    8.850    6.3665
    8.865    6.3454
    8.880    6.4666
    8.895    6.6351
    8.910    6.4718
    8.925    6.5192
    8.940    6.5403
    8.955    6.3665
    8.970    6.2243
    8.985    6.5140
    9.000    6.4034
    9.015    6.3402
    9.030    6.4824
    9.045    6.5982
    9.060    6.6035
    9.075    6.6035
    9.090    6.2875
    9.105    6.4086
    9.120    6.5140
    9.135    6.3560
    9.150    6.5034
    9.165    6.6772
    9.180    6.7773
    9.195    7.1775
    9.210    6.9247
    9.225    7.1933
    9.240    7.0248
    9.255    6.9352
    9.270    7.1775
    9.285    7.4882
    9.300    7.5566
    9.315    7.4566
    9.330    7.5145
    9.345    7.8304
    9.360    8.3676
    9.375    8.3254
    9.390    8.8099
    9.405    8.8415
    9.420    9.1943
    9.435    9.6419
    9.450   10.0421
    9.465   10.1106
    9.480   10.5635
    9.495   11.3533
    9.510   12.1485
    9.525   13.1490
    9.540   14.3655
    9.555   16.3876
    9.570   18.6467
    9.585   20.6582
    9.600   21.7062
    9.615   20.8952
    9.630   18.1359
    9.645   14.3971
    9.660   10.8847
    9.675    8.2464
    9.690    7.3354
    9.705    6.8246
    9.720    6.8404
    9.735    6.8720
    9.750    6.6035
    9.765    6.4192
    9.780    6.0558
    9.795    6.1717
    9.810    6.5403
    9.825    6.4402
    9.840    6.4034
    9.855    6.6667
    9.870    6.5034
    9.885    6.5350
    9.900    6.5350
    9.915    6.4086
    9.930    6.4508
    9.945    6.3507
    9.960    6.3454
    9.975    6.6772
    9.990    6.3086
   10.005    6.3454
   10.020    6.6298
   10.035    6.7773
   10.050    6.5824
   10.065    6.8510
   10.080    6.6719
   10.095    6.4297
   10.110    6.6298
   10.125    6.5245
   10.140    6.9984
   10.155    6.7720
   10.170    7.0405
   10.185    7.1248
   10.200    7.3144
   10.215    7.3723
   10.230    7.5408
   10.245    7.4671
   10.260    7.7988
   10.275    8.1359
   10.290    8.4360
   10.305    8.7046
   10.320    9.2259
   10.335   10.1580
   10.350   11.1690
   10.365   11.2849
   10.380   11.4587
   10.395   11.1480
   10.410    9.7946
   10.425    8.0727
   10.440    7.3091
   10.455    6.8141
   10.470    6.5666
   10.485    6.5561
   10.500    6.3349
   10.515    6.2033
   10.530    6.2559
   10.545    6.2770
   10.560    6.2928
   10.575    6.1295
   10.590    6.3560
   10.605    6.3718
   10.620    6.4139
   10.635    6.4929
   10.650    6.2138
   10.665    6.1348
   10.680    6.2665
   10.695    5.9558
   10.710    6.2085
   10.725    6.0400
   10.740    6.2033
   10.755    6.2612
   10.770    6.3507
   10.785    6.1506
   10.800    6.3876
   10.815    6.3296
   10.830    6.4508
   10.845    6.8668
   10.860    6.6456
   10.875    6.6245
   10.890    6.5771
   10.905    7.0932
   10.920    7.0511
   10.935    7.1933
   10.950    7.3144
   10.965    7.3828
   10.980    7.4671
   10.995    7.6883
   11.010    8.0253
   11.025    8.4044
   11.040    8.9205
   11.055    9.6156
   11.070   10.3054
   11.085   10.9689
   11.100   10.8162
   11.115   10.1159
   11.130    9.1101
   11.145    7.8568
   11.160    7.2091
   11.175    6.5087
   11.190    6.4876
   11.205    6.5140
   11.220    6.0664
   11.235    6.1717
   11.250    6.2138
   11.265    6.1664
   11.280    6.3981
   11.295    6.2085
   11.310    6.0769
   11.325    6.0506
   11.340    6.3033
   11.355    6.2507
   11.370    6.2717
   11.385    6.2033
   11.400    6.1980
   11.415    6.2191
   11.430    6.5350
   11.445    6.3244
   11.460    6.3296
   11.475    6.3349
   11.490    6.3454
   11.505    6.2665
   11.520    5.9874
   11.535    6.5877
   11.550    6.3507
   11.565    6.5456
   11.580    7.0037
   11.595    6.9984
   11.610    7.0248
   11.625    7.2722
   11.640    7.1880
   11.655    7.4934
   11.670    7.8199
   11.685    8.1885
   11.700    8.7994
   11.715    9.3365
   11.730    9.8420
   11.745   10.7688
   11.760   11.5692
   11.775   11.5798
   11.790   10.7899
   11.805    9.5998
   11.820    7.8936
   11.835    6.8246
   11.850    6.2665
   11.865    6.1295
   11.880    6.0032
   11.895    5.9400
   11.910    5.8978
   11.925    5.7925
   11.940    5.6398
   11.955    5.7451
   11.970    5.9768
   11.985    5.7873
   12.000    5.8768
   12.015    5.8662
   12.030    5.7504
   12.045    5.8136
   12.060    5.6661
   12.075    5.7504
   12.090    5.6977
   12.105    5.9663
   12.120    6.3454
   12.135    5.8978
   12.150    5.8347
   12.165    5.8083
   12.180    5.8294
   12.195    5.8136
   12.210    5.9400
   12.225    5.9084
   12.240    6.1559
   12.255    6.0874
   12.270    6.1664
   12.285    5.7925
   12.300    5.6925
   12.315    5.9347
   12.330    6.1822
   12.345    6.4244
   12.360    6.0664
   12.375    6.0348
   12.390    6.2612
   12.405    6.4402
   12.420    6.3402
   12.435    6.4613
   12.450    5.9242
   12.465    6.0400
   12.480    6.0979
   12.495    5.9716
   12.510    5.7820
   12.525    5.7925
   12.540    5.7820
   12.555    5.5503
   12.570    5.5714
   12.585    5.7978
   12.600    5.7030
   12.615    5.8820
   12.630    5.7873
   12.645    5.6556
   12.660    5.6187
   12.675    5.6872
   12.690    5.8189
   12.705    5.7451
   12.720    5.5240
   12.735    5.9347
   12.750    6.0137
   12.765    5.9242
   12.780    5.9610
   12.795    5.7767
   12.810    5.8189
   12.825    6.1769
   12.840    6.2928
   12.855    6.1401
   12.870    6.4034
   12.885    6.5666
   12.900    6.6509
   12.915    6.6351
   12.930    7.0669
   12.945    7.5197
   12.960    7.5777
   12.975    7.8936
   12.990    8.7783
   13.005    9.3260
   13.020    9.1575
   13.035    8.7151
   13.050    8.0885
   13.065    7.2249
   13.080    6.5192
   13.095    5.9294
   13.110    5.7767
   13.125    6.0084
   13.140    5.8662
   13.155    5.6240
   13.170    5.5082
   13.185    5.5924
   13.200    5.8873
   13.215    5.6240
   13.230    5.5187
   13.245    5.4502
   13.260    5.7293
   13.275    5.7978
   13.290    5.7399
   13.305    5.6925
   13.320    5.7504
   13.335    5.7662
   13.350    5.6925
   13.365    5.7293
   13.380    6.0190
   13.395    5.6819
   13.410    5.9400
   13.425    5.8083
   13.440    5.8504
   13.455    5.8610
   13.470    5.8452
   13.485    6.1295
   13.500    6.1243
   13.515    6.4508
   13.530    6.5034
   13.545    6.3928
   13.560    6.8299
   13.575    7.0985
   13.590    7.1985
   13.605    6.9563
   13.620    6.7773
   13.635    6.3349
   13.650    5.9926
   13.665    5.7399
   13.680    5.6135
   13.695    5.6240
   13.710    5.5714
   13.725    5.4924
   13.740    5.7609
   13.755    5.7030
   13.770    5.6240
   13.785    5.7030
   13.800    5.9136
   13.815    5.6398
   13.830    5.6029
   13.845    5.4766
   13.860    5.7030
   13.875    5.5608
   13.890    5.3291
   13.905    5.5977
   13.920    5.9347
   13.935    6.0874
   13.950    6.0084
   13.965    5.6451
   13.980    5.8715
   13.995    6.0348
   14.010    6.1243
   14.025    6.2296
   14.040    6.2928
   14.055    6.5140
   14.070    6.6245
   14.085    6.7720
   14.100    7.0616
   14.115    7.7988
   14.130    8.1253
   14.145    8.6098
   14.160    8.2096
   14.175    8.0411
   14.190    7.2880
   14.205    6.3823
   14.220    6.0348
   14.235    5.7293
   14.250    5.7399
   14.265    5.6345
   14.280    5.5029
   14.295    5.6187
   14.310    5.6029
   14.325    5.6609
   14.340    5.5766
   14.355    5.3186
   14.370    5.5029
   14.385    5.6398
   14.400    5.6135
   14.415    5.7135
   14.430    5.4292
   14.445    5.4081
   14.460    5.3397
   14.475    5.2238
   14.490    5.5608
   14.505    5.4081
   14.520    5.3291
   14.535    5.4081
   14.550    5.4818
   14.565    5.4028
   14.580    5.4766
   14.595    5.2923
   14.610    5.4397
   14.625    5.4239
   14.640    5.3765
   14.655    5.3502
   14.670    5.2027
   14.685    5.4502
   14.700    5.5819
   14.715    5.6609
   14.730    5.5977
   14.745    5.5345
   14.760    5.4713
   14.775    5.4924
   14.790    5.5872
   14.805    5.5450
   14.820    5.4397
   14.835    5.4186
   14.850    5.3133
   14.865    5.4818
   14.880    5.4660
   14.895    5.3239
   14.910    5.1922
   14.925    5.4134
   14.940    5.1132
   14.955    5.6135
   14.970    5.4239
   14.985    5.2765
   15.000    5.6240
   15.015    5.6029
   15.030    5.5240
   15.045    5.5556
   15.060    5.4292
   15.075    5.5187
   15.090    5.8241
   15.105    5.5556
   15.120    5.4924
   15.135    5.5977
   15.150    5.6767
   15.165    5.8347
   15.180    5.7873
   15.195    5.7820
   15.210    6.1980
   15.225    6.1559
   15.240    5.8768
   15.255    5.8557
   15.270    5.6503
   15.285    5.5556
   15.300    5.5082
   15.315    5.6398
   15.330    5.4397
   15.345    5.5240
   15.360    5.6503
   15.375    5.4976
   15.390    5.2659
   15.405    5.1869
   15.420    5.2817
   15.435    5.1659
   15.450    5.0342
   15.465    5.0237
   15.480    5.2554
   15.495    5.2712
   15.510    5.5187
   15.525    5.3607
   15.540    5.4292
   15.555    5.3660
   15.570    5.4502
   15.585    5.3397
   15.600    5.2975
   15.615    5.3976
   15.630    5.4186
   15.645    5.3976
   15.660    5.1975
   15.675    5.2712
   15.690    5.3870
   15.705    5.5608
   15.720    5.6556
   15.735    5.3291
   15.750    5.4186
   15.765    5.4818
   15.780    5.4924
   15.795    5.4660
   15.810    5.2133
   15.825    5.3239
   15.840    5.5872
   15.855    5.5134
   15.870    5.3502
   15.885    5.5503
   15.900    5.6135
   15.915    5.5661
   15.930    5.6451
   15.945    5.6556
   15.960    5.6029
   15.975    5.5292
   15.990    5.6661
   16.005    5.6082
   16.020    5.5924
   16.035    5.6451
   16.050    5.4450
   16.065    5.4871
   16.080    5.5714
   16.095    5.8662
   16.110    5.9505
   16.125    5.7662
   16.140    5.7609
   16.155    5.7820
   16.170    5.9716
   16.185    6.0821
   16.200    6.2296
   16.215    6.0506
   16.230    5.8768
   16.245    5.8083
   16.260    5.6187
   16.275    5.5924
   16.290    5.5608
   16.305    5.1922
   16.320    5.2554
   16.335    5.5608
   16.350    5.4186
   16.365    5.4450
   16.380    5.3923
   16.395    5.4713
   16.410    5.2975
   16.425    5.5134
   16.440    5.5661
   16.455    5.4397
   16.470    5.3818
   16.485    5.3818
   16.500    5.2712
   16.515    5.3976
   16.530    5.5029
   16.545    5.7399
   16.560    5.5134
   16.575    5.6345
   16.590    5.5082
   16.605    5.7346
   16.620    5.8083
   16.635    5.8715
   16.650    6.0242
   16.665    6.2981
   16.680    6.1453
   16.695    6.0664
   16.710    5.7662
   16.725    5.6609
   16.740    5.5240
   16.755    5.6451
   16.770    5.6029
   16.785    5.3765
   16.800    5.3555
   16.815    5.4976
   16.830    5.6556
   16.845    5.5924
   16.860    5.5345
   16.875    5.5977
   16.890    5.5977
   16.905    5.7504
   16.920    5.6187
   16.935    5.9663
   16.950    5.7346
   16.965    5.5398
   16.980    5.8189
   16.995    5.8926
   17.010    5.6714
   17.025    6.1875
   17.040    6.2981
   17.055    6.4350
   17.070    6.6983
   17.085    7.0248
   17.100    7.5303
   17.115    7.8989
   17.130    8.2201
   17.145    7.6198
   17.160    7.2407
   17.175    6.8194
   17.190    6.4876
   17.205    6.0716
   17.220    5.8662
   17.235    5.6345
   17.250    5.6609
   17.265    5.5240
   17.280    5.2291
   17.295    5.4608
   17.310    5.4555
   17.325    5.6293
   17.340    5.7083
   17.355    5.2975
   17.370    5.6187
   17.385    5.8189
   17.400    5.4081
   17.415    5.4397
   17.430    5.6503
   17.445    5.5661
   17.460    5.7083
   17.475    5.6187
   17.490    5.5714
   17.505    5.5345
   17.520    5.6977
   17.535    5.7346
   17.550    5.8662
   17.565    5.9926
   17.580    6.0137
   17.595    5.8504
   17.610    5.7609
   17.625    5.8873
   17.640    5.4397
   17.655    5.6609
   17.670    5.2607
   17.685    5.4134
   17.700    5.4713
   17.715    5.4292
   17.730    5.3028
   17.745    5.6661
   17.760    5.2501
   17.775    5.3923
   17.790    5.6398
   17.805    5.4344
   17.820    5.4976
   17.835    5.5345
   17.850    5.4239
   17.865    5.5345
   17.880    5.5029
   17.895    5.4924
   17.910    5.3765
   17.925    5.7451
   17.940    5.6240
   17.955    5.6503
   17.970    5.6135
   17.985    5.5819
   18.000    5.7241
   18.015    5.9294
   18.030    5.9084
   18.045    6.0927
   18.060    5.8347
   18.075    5.5345
   18.090    5.3976
   18.105    5.6187
   18.120    5.5450
   18.135    5.5398
   18.150    5.4818
   18.165    5.4081
   18.180    5.6398
   18.195    5.4239
   18.210    5.6135
   18.225    5.5924
   18.240    5.3555
   18.255    5.3976
   18.270    5.4028
   18.285    5.5503
   18.300    5.5872
   18.315    5.6240
   18.330    5.3344
   18.345    5.7451
   18.360    5.8820
   18.375    5.6451
   18.390    6.0084
   18.405    5.9716
   18.420    5.7346
   18.435    5.8662
   18.450    5.8399
   18.465    6.1348
   18.480    5.8504
   18.495    5.6977
   18.510    5.7293
   18.525    5.7767
   18.540    5.5134
   18.555    5.5292
   18.570    5.5661
   18.585    5.5134
   18.600    5.6714
   18.615    5.5134
   18.630    5.3081
   18.645    5.4081
   18.660    5.5924
   18.675    5.3133
   18.690    5.2975
   18.705    5.4555
   18.720    5.3186
   18.735    5.5872
   18.750    5.5608
   18.765    5.7820
   18.780    5.6977
   18.795    5.4976
   18.810    5.3028
   18.825    5.4976
   18.840    5.7399
   18.855    5.5082
   18.870    5.7925
   18.885    5.5924
   18.900    5.7609
   18.915    5.6293
   18.930    5.4028
   18.945    5.6029
   18.960    5.4239
   18.975    4.9658
   18.990    5.4397
   19.005    5.3818
   19.020    5.4555
   19.035    5.4186
   19.050    5.2712
   19.065    5.1080
   19.080    5.2712
   19.095    5.5924
   19.110    5.2975
   19.125    5.3239
   19.140    5.5556
   19.155    5.6082
   19.170    5.5029
   19.185    5.4871
   19.200    5.5608
   19.215    5.5082
   19.230    5.4502
   19.245    5.1553
   19.260    5.1922
   19.275    5.2923
   19.290    5.3765
   19.305    5.3133
   19.320    5.5450
   19.335    5.5134
   19.350    5.3133
   19.365    5.4344
   19.380    5.2712
   19.395    5.3344
   19.410    5.3502
   19.425    5.5714
   19.440    5.2923
   19.455    5.6609
   19.470    5.4450
   19.485    5.6293
   19.500    5.7504
   19.515    5.7083
   19.530    5.3186
   19.545    5.4450
   19.560    5.6398
   19.575    5.7820
   19.590    5.8136
   19.605    5.7135
   19.620    5.6714
   19.635    5.9031
   19.650    6.1190
   19.665    6.4455
   19.680    6.2243
   19.695    5.8610
   19.710    6.0664
   19.725    5.7873
   19.740    5.6082
   19.755    5.5503
   19.770    5.5082
   19.785    5.3291
   19.800    5.4502
   19.815    5.5661
   19.830    5.4608
   19.845    5.5819
   19.860    5.5029
   19.875    5.3133
   19.890    5.4186
   19.905    5.2607
   19.920    5.4134
   19.935    5.2923
   19.950    5.3976
   19.965    5.4134
   19.980    5.2501
   19.995    5.6819
   20.010    5.5292
   20.025    5.5029
   20.040    5.5661
   20.055    5.6240
   20.070    5.5766
   20.085    5.6451
   20.100    5.3712
   20.115    5.5608
   20.130    5.5977
   20.145    5.2185
   20.160    5.5556
   20.175    5.5766
   20.190    5.5556
   20.205    5.2923
   20.220    5.5029
   20.235    5.6661
   20.250    5.3397
   20.265    5.4818
   20.280    5.6661
   20.295    5.4028
   20.310    5.5082
   20.325    5.9663
   20.340    6.1243
   20.355    6.0242
   20.370    6.0506
   20.385    6.2033
   20.400    6.3981
   20.415    6.5719
   20.430    6.7667
   20.445    7.1459
   20.460    7.1195
   20.475    7.2828
   20.490    6.9563
   20.505    6.6298
   20.520    5.9821
   20.535    5.7451
   20.550    5.9347
   20.565    5.5556
   20.580    5.4134
   20.595    5.7030
   20.610    5.3555
   20.625    5.5450
   20.640    5.3765
   20.655    5.2185
   20.670    5.2554
   20.685    5.3976
   20.700    5.3976
   20.715    5.3344
   20.730    5.6977
   20.745    5.5082
   20.760    5.5714
   20.775    5.5503
   20.790    5.3397
   20.805    5.4818
   20.820    5.5240
   20.835    5.5766
   20.850    5.4766
   20.865    5.5292
   20.880    5.5924
   20.895    5.4292
   20.910    5.5924
   20.925    5.5661
   20.940    5.6029
   20.955    5.6714
   20.970    5.5450
   20.985    5.4608
   21.000    5.4713
   21.015    5.5977
   21.030    5.4818
   21.045    5.2765
   21.060    5.3660
   21.075    5.4976
   21.090    5.4818
   21.105    5.4081
   21.120    5.5292
   21.135    5.4081
   21.150    5.5398
   21.165    5.4081
   21.180    5.5714
   21.195    5.5714
   21.210    5.6767
   21.225    5.4766
   21.240    5.3923
   21.255    5.4239
   21.270    5.3081
   21.285    5.3607
   21.300    5.5766
   21.315    5.7083
   21.330    5.6556
   21.345    5.6345
   21.360    5.6556
   21.375    5.5029
   21.390    5.4766
   21.405    5.6714
   21.420    5.5714
   21.435    5.4450
   21.450    5.1711
   21.465    5.4239
   21.480    5.3397
   21.495    5.3502
   21.510    5.3976
   21.525    5.5082
   21.540    5.4555
   21.555    5.4713
   21.570    5.5503
   21.585    5.5398
   21.600    5.6293
   21.615    5.5134
   21.630    5.2501
   21.645    5.6714
   21.660    5.7399
   21.675    5.7978
   21.690    5.7030
   21.705    5.5819
   21.720    5.3712
   21.735    5.3660
   21.750    5.4924
   21.765    5.8399
   21.780    5.5398
   21.795    5.6503
   21.810    6.0084
   21.825    5.8031
   21.840    5.6451
   21.855    5.8083
   21.870    5.9242
   21.885    5.9979
   21.900    5.9926
   21.915    6.2401
   21.930    6.2033
   21.945    6.1506
   21.960    6.0190
   21.975    6.2770
   21.990    6.0716
   22.005    6.0137
   22.020    5.6398
   22.035    5.7715
   22.050    5.4713
   22.065    5.5240
   22.080    5.5345
   22.095    5.2923
   22.110    5.3291
   22.125    5.4081
   22.140    5.6293
   22.155    5.7135
   22.170    5.6135
   22.185    5.7820
   22.200    5.6609
   22.215    5.5187
   22.230    5.5661
   22.245    5.8294
   22.260    6.0558
   22.275    6.0137
   22.290    5.7873
   22.305    5.9926
   22.320    5.8031
   22.335    5.4239
   22.350    5.5556
   22.365    5.9136
   22.380    5.7399
   22.395    5.8294
   22.410    5.8926
   22.425    5.5187
   22.440    5.5292
   22.455    5.7346
   22.470    5.8241
   22.485    5.9926
   22.500    5.8452
   22.515    5.7030
   22.530    6.0348
   22.545    5.9294
   22.560    6.0400
   22.575    6.6403
   22.590    6.9194
   22.605    7.1933
   22.620    7.3723
   22.635    7.5935
   22.650    7.6040
   22.665    7.4144
   22.680    7.2196
   22.695    6.7193
   22.710    6.3402
   22.725    6.1190
   22.740    5.6187
   22.755    5.9400
   22.770    6.0769
   22.785    5.8610
   22.800    5.7767
   22.815    5.7346
   22.830    5.6556
   22.845    6.0242
   22.860    6.1295
   22.875    6.3033
   22.890    6.2349
   22.905    6.3191
   22.920    6.5456
   22.935    6.7825
   22.950    7.1564
   22.965    7.6672
   22.980    7.7778
   22.995    7.7041
   23.010    7.4197
   23.025    7.1248
   23.040    6.8299
   23.055    6.3191
   23.070    6.0242
   23.085    5.8873
   23.100    5.9926
   23.115    6.0664
   23.130    5.6977
   23.145    5.8189
   23.160    5.6767
   23.175    5.6029
   23.190    5.8083
   23.205    5.5187
   23.220    5.6661
   23.235    5.5187
   23.250    5.7030
   23.265    6.0032
   23.280    6.0242
   23.295    6.1506
   23.310    6.3402
   23.325    6.3138
   23.340    6.3612
   23.355    6.1085
   23.370    5.8610
   23.385    5.9294
   23.400    6.0558
   23.415    5.9242
   23.430    5.5556
   23.445    5.6556
   23.460    5.6345
   23.475    5.4134
   23.490    5.3870
   23.505    5.5187
   23.520    5.4976
   23.535    5.5924
   23.550    5.4766
   23.565    5.3239
   23.580    5.2080
   23.595    5.3870
   23.610    5.5977
   23.625    5.5924
   23.640    5.6345
   23.655    5.6925
   23.670    5.4766
   23.685    5.5134
   23.700    5.4292
   23.715    5.6714
   23.730    5.6977
   23.745    5.4871
   23.760    5.4344
   23.775    5.4239
   23.790    5.4450
   23.805    5.4660
   23.820    5.4976
   23.835    5.3081
   23.850    5.5556
   23.865    5.3239
   23.880    5.5082
   23.895    5.4818
   23.910    5.7715
   23.925    5.8978
   23.940    5.7083
   23.955    5.9716
   23.970    5.7399
   23.985    5.9926
   24.000    6.0821
   24.015    6.1295
   24.030    6.2349
   24.045    5.7820
   24.060    5.6714
   24.075    5.6398
   24.090    5.4292
   24.105    5.5292
   24.120    5.3081
   24.135    5.3870
   24.150    5.2870
   24.165    5.4081
   24.180    5.2554
   24.195    5.3870
   24.210    5.4766
   24.225    5.2607
   24.240    5.4239
   24.255    5.3502
   24.270    5.2607
   24.285    5.5398
   24.300    5.6187
   24.315    5.7346
   24.330    5.4081
   24.345    5.5714
   24.360    5.5292
   24.375    5.4397
   24.390    5.3028
   24.405    5.5292
   24.420    5.3449
   24.435    5.2080
   24.450    5.2449
   24.465    5.3344
   24.480    5.5398
   24.495    5.4713
   24.510    5.5977
   24.525    5.6029
   24.540    5.2607
   24.555    5.2975
   24.570    5.3081
   24.585    5.3555
   24.600    5.4555
   24.615    5.5450
   24.630    5.6556
   24.645    5.5450
   24.660    5.6135
   24.675    5.4555
   24.690    5.5977
   24.705    5.4081
   24.720    5.4766
   24.735    5.4555
   24.750    5.3976
   24.765    5.1290
   24.780    5.3607
   24.795    5.4239
   24.810    5.5292
   24.825    5.4608
   24.840    5.4344
   24.855    5.2501
   24.870    5.3502
   24.885    5.6240
   24.900    5.4186
   24.915    5.2133
   24.930    5.1711
   24.945    5.4713
   24.960    5.4502
   24.975    5.5134
   24.990    5.4713
   25.005    5.4608
   25.020    5.2607
   25.035    5.2817
   25.050    5.3291
   25.065    5.5977
   25.080    5.2923
   25.095    5.2975
   25.110    5.4871
   25.125    5.2291
   25.140    5.4450
   25.155    5.4555
   25.170    5.4186
   25.185    5.4976
   25.200    5.8873
   25.215    5.5503
   25.230    5.5187
   25.245    5.6925
   25.260    5.7978
   25.275    5.3291
   25.290    5.6661
   25.305    5.6029
   25.320    5.6187
   25.335    5.4186
   25.350    5.4292
   25.365    5.5398
   25.380    5.2027
   25.395    5.3923
   25.410    5.3923
   25.425    5.2133
   25.440    5.1395
   25.455    5.2343
   25.470    5.0711
   25.485    5.0342
   25.500    5.3923
   25.515    5.3028
   25.530    5.4660
   25.545    5.4976
   25.560    5.2027
   25.575    5.1975
   25.590    5.4344
   25.605    5.4818
   25.620    5.5714
   25.635    5.4028
   25.650    5.6819
   25.665    5.3449
   25.680    5.2923
   25.695    5.4186
   25.710    5.0816
   25.725    5.3239
   25.740    5.3923
   25.755    5.1975
   25.770    5.3133
   25.785    5.3660
   25.800    5.5292
   25.815    5.8504
   25.830    6.0716
   25.845    6.3560
   25.860    6.5403
   25.875    6.7720
   25.890    6.7878
   25.905    6.7299
   25.920    6.6140
   25.935    6.5666
   25.950    6.2717
   25.965    5.6977
   25.980    5.5029
   25.995    5.1132
   26.010    5.2027
   26.025    5.2554
   26.040    5.2133
   26.055    5.3397
   26.070    5.3607
   26.085    5.0606
   26.100    5.0974
   26.115    5.2870
   26.130    5.4713
   26.145    5.3607
   26.160    5.5608
   26.175    5.5345
   26.190    5.3765
   26.205    5.4239
   26.220    5.2343
   26.235    5.3555
   26.250    5.2870
   26.265    5.3291
   26.280    5.3660
   26.295    5.1922
   26.310    4.9552
   26.325    5.1290
   26.340    5.3239
   26.355    5.1764
   26.370    5.3291
   26.385    5.3186
   26.400    5.0500
   26.415    5.2554
   26.430    5.3239
   26.445    5.5714
   26.460    5.3081
   26.475    5.6240
   26.490    5.3870
   26.505    5.6082
   26.520    5.5819
   26.535    5.3607
   26.550    5.4660
   26.565    5.4766
   26.580    5.2923
   26.595    5.4186
   26.610    5.2765
   26.625    5.1553
   26.640    5.1027
   26.655    5.1395
   26.670    5.0290
   26.685    5.0711
   26.700    5.1922
   26.715    5.3555
   26.730    5.0026
   26.745    5.0869
   26.760    5.3923
   26.775    4.9868
   26.790    5.0290
   26.805    5.1237
   26.820    5.1606
   26.835    5.3397
   26.850    4.9236
   26.865    5.1659
   26.880    5.0869
   26.895    4.8552
   26.910    4.9131
   26.925    5.1711
   26.940    5.2185
   26.955    5.3976
   26.970    5.2238
   26.985    5.3449
   27.000    5.2870
   27.015    5.2185
   27.030    5.4081
   27.045    5.5082
   27.060    5.5766
   27.075    5.3976
   27.090    5.6819
   27.105    5.7135
   27.120    5.4555
   27.135    5.2817
   27.150    5.2554
   27.165    5.3660
   27.180    5.3607
   27.195    5.2501
   27.210    5.0922
   27.225    5.2765
   27.240    5.2923
   27.255    5.3818
   27.270    4.9658
   27.285    5.1080
   27.300    5.0079
   27.315    4.7025
   27.330    5.1290
   27.345    4.9026
   27.360    5.2554
   27.375    5.3449
   27.390    4.8447
   27.405    5.1501
   27.420    5.2343
   27.435    5.0606
   27.450    5.1185
   27.465    5.0026
   27.480    4.8131
   27.495    5.1395
   27.510    5.2238
   27.525    5.1869
   27.540    5.0290
   27.555    4.8552
   27.570    5.1027
   27.585    4.9552
   27.600    5.1185
   27.615    5.0500
   27.630    5.2080
   27.645    5.3397
   27.660    5.2449
   27.675    5.2659
   27.690    5.4081
   27.705    5.5450
   27.720    5.3870
   27.735    5.3818
   27.750    5.4186
   27.765    4.9974
   27.780    5.0606
   27.795    5.1343
   27.810    4.9236
   27.825    4.9974
   27.840    4.9500
   27.855    5.1395
   27.870    5.1343
   27.885    4.8605
   27.900    4.9447
   27.915    5.0711
   27.930    5.2659
   27.945    5.0711
   27.960    5.1764
   27.975    5.3133
   27.990    5.3660
   28.005    5.1711
   28.020    5.1395
   28.035    5.1869
   28.050    5.0237
   28.065    4.9974
   28.080    5.1711
   28.095    5.1553
   28.110    4.9184
   28.125    4.9974
   28.140    5.0606
   28.155    5.3344
   28.170    5.1975
   28.185    5.2765
   28.200    5.3818
   28.215    5.5082
   28.230    5.4134
   28.245    5.7346
   28.260    5.6872
   28.275    5.5503
   28.290    5.4608
   28.305    5.5082
   28.320    5.1922
   28.335    5.5556
   28.350    5.3555
   28.365    4.8289
   28.380    4.8710
   28.395    5.0553
   28.410    5.0026
   28.425    5.1448
   28.440    5.2080
   28.455    5.2238
   28.470    5.1922
   28.485    5.4608
   28.500    5.3555
   28.515    5.3712
   28.530    5.6503
   28.545    5.5766
   28.560    5.5766
   28.575    5.2817
   28.590    5.2133
   28.605    5.3239
   28.620    5.4028
   28.635    5.2975
   28.650    5.0290
   28.665    4.7762
   28.680    4.9394
   28.695    4.9605
   28.710    4.9289
   28.725    4.6761
   28.740    4.6972
   28.755    4.9921
   28.770    4.9500
   28.785    5.0869
   28.800    4.6288
   28.815    4.9921
   28.830    4.7077
   28.845    4.5972
   28.860    4.6340
   28.875    4.7077
   28.890    4.7077
   28.905    4.8973
   28.920    4.6867
   28.935    4.8394
   28.950    4.9131
   28.965    4.7551
   28.980    4.9710
   28.995    5.0658
   29.010    4.9236
   29.025    5.0079
   29.040    5.0553
   29.055    4.9974
   29.070    4.7762
   29.085    5.2027
   29.100    5.0500
   29.115    4.7604
   29.130    4.8815
   29.145    4.6603
   29.160    5.0079
   29.175    4.9816
   29.190    4.9974
   29.205    5.2185
   29.220    4.9236
   29.235    5.0974
   29.250    5.0395
   29.265    4.9447
   29.280    5.0974
   29.295    5.0342
   29.310    4.9605
   29.325    5.0237
   29.340    5.1185
   29.355    5.2501
   29.370    5.5134
   29.385    5.3397
   29.400    5.0816
   29.415    5.0974
   29.430    4.9605
   29.445    4.9500
   29.460    5.0079
   29.475    4.8710
   29.490    4.8078
   29.505    4.8657
   29.520    4.8078
   29.535    4.7130
   29.550    4.9394
   29.565    4.9710
   29.580    4.9710
   29.595    4.7920
   29.610    4.7920
   29.625    4.9763
   29.640    4.8657
   29.655    4.9394
   29.670    4.9236
   29.685    4.7815
   29.700    4.5392
   29.715    4.7973
   29.730    4.7551
   29.745    4.7183
   29.760    4.8131
   29.775    4.5234
   29.790    4.6340
   29.805    4.9184
   29.820    4.9763
   29.835    4.8078
   29.850    4.8552
   29.865    4.9026
   29.880    4.8447
   29.895    4.6709
   29.910    4.9974
   29.925    5.0290
   29.940    4.8710
   29.955    4.6814
   29.970    4.8447
   29.985    4.8078
   30.000    4.8394
   30.015    4.9026
   30.030    4.7235
   30.045    4.5656
   30.060    4.7920
   30.075    4.7288
   30.090    4.9868
   30.105    4.8868
   30.120    4.7130
   30.135    4.9552
   30.150    4.9921
   30.165    4.7130
   30.180    4.9131
   30.195    4.9763
   30.210    4.7288
   30.225    4.9184
   30.240    4.6972
   30.255    4.6551
   30.270    4.6656
   30.285    4.7341
   30.300    4.8447
   30.315    4.5603
   30.330    4.6393
   30.345    4.7762
   30.360    4.8341
   30.375    4.6603
   30.390    4.7077
   30.405    4.5919
   30.420    4.7551
   30.435    4.9868
   30.450    4.5919
   30.465    4.6235
   30.480    4.7077
   30.495    4.6656
   30.510    4.7762
   30.525    4.5340
   30.540    4.5234
   30.555    4.8025
   30.570    4.7657
   30.585    4.5392
   30.600    4.5076
   30.615    4.8183
   30.630    4.7183
   30.645    4.6919
   30.660    4.8236
   30.675    4.7077
   30.690    4.8183
   30.705    4.9447
   30.720    4.8763
   30.735    4.8605
   30.750    5.0184
   30.765    5.0658
   30.780    4.7973
   30.795    4.7446
   30.810    4.6445
   30.825    4.5550
   30.840    4.8920
   30.855    4.5656
   30.870    4.7762
   30.885    4.7025
   30.900    4.6235
   30.915    4.6919
   30.930    4.7815
   30.945    4.7920
   30.960    4.5182
   30.975    4.7815
   30.990    5.0237
   31.005    4.7235
   31.020    4.5761
   31.035    4.6340
   31.050    4.5866
   31.065    4.4602
   31.080    4.6340
   31.095    4.7762
   31.110    4.5024
   31.125    4.3813
   31.140    4.5340
   31.155    4.3865
   31.170    4.5392
   31.185    4.4444
   31.200    4.3075
   31.215    4.5972
   31.230    4.4550
   31.245    4.6288
   31.260    4.4760
   31.275    4.5182
   31.290    4.4550
   31.305    4.6130
   31.320    4.3760
   31.335    4.5761
   31.350    4.4444
   31.365    4.5024
   31.380    4.5076
   31.395    4.4708
   31.410    4.6182
   31.425    4.7446
   31.440    4.7341
   31.455    4.7393
   31.470    4.9658
   31.485    4.6919
   31.500    4.8605
   31.515    4.7446
   31.530    4.9763
   31.545    4.8025
   31.560    4.8920
   31.575    4.7077
   31.590    4.5708
   31.605    4.4971
   31.620    4.6498
   31.635    4.5445
   31.650    4.7973
   31.665    4.4655
   31.680    4.5340
   31.695    4.6235
   31.710    4.8078
   31.725    4.7341
   31.740    4.3602
   31.755    4.6393
   31.770    4.4971
   31.785    4.4602
   31.800    4.6445
   31.815    4.6235
   31.830    4.4602
   31.845    4.5129
   31.860    4.2865
   31.875    4.3971
   31.890    4.4760
   31.905    4.2707
   31.920    4.4760
   31.935    4.4602
   31.950    4.4181
   31.965    4.4760
   31.980    4.3971
   31.995    4.7657
   32.010    4.8499
   32.025    4.5182
   32.040    4.5392
   32.055    4.3602
   32.070    4.5656
   32.085    4.3497
   32.100    4.6340
   32.115    4.5445
   32.130    4.4550
   32.145    4.2338
   32.160    4.5814
   32.175    4.6024
   32.190    4.5708
   32.205    4.5603
   32.220    4.6130
   32.235    4.4813
   32.250    4.2759
   32.265    4.3497
   32.280    4.1811
   32.295    4.1811
   32.310    4.3286
   32.325    4.3549
   32.340    4.4602
   32.355    4.3602
   32.370    4.4128
   32.385    4.2812
   32.400    4.3813
   32.415    4.5392
   32.430    4.5550
   32.445    4.7235
   32.460    4.2917
   32.475    4.3865
   32.490    4.2917
   32.505    4.3181
   32.520    4.2022
   32.535    4.1969
   32.550    4.3286
   32.565    4.2917
   32.580    4.2865
   32.595    4.1917
   32.610    4.1759
   32.625    4.1811
   32.640    4.2759
   32.655    4.3075
   32.670    4.4550
   32.685    4.3813
   32.700    4.1548
   32.715    4.3707
   32.730    4.4866
   32.745    4.2338
   32.760    4.1496
   32.775    4.1864
   32.790    4.1338
   32.805    4.3813
   32.820    4.4497
   32.835    4.5076
   32.850    4.1390
   32.865    4.2443
   32.880    4.5656
   32.895    4.4286
   32.910    4.3233
   32.925    4.6498
   32.940    4.6603
   32.955    4.3181
   32.970    4.4602
   32.985    4.5866
   33.000    4.4760
   33.015    4.2865
   33.030    4.5603
   33.045    4.5182
   33.060    4.7604
   33.075    4.3286
   33.090    4.3760
   33.105    4.3128
   33.120    4.1180
   33.135    4.4181
   33.150    4.6445
   33.165    4.3497
   33.180    4.1180
   33.195    3.9758
   33.210    4.3444
   33.225    4.2917
   33.240    4.2865
   33.255    4.3971
   33.270    4.2812
   33.285    4.2338
   33.300    4.1864
   33.315    4.2654
   33.330    4.0706
   33.345    4.0811
   33.360    4.1390
   33.375    3.9442
   33.390    4.1180
   33.405    4.3602
   33.420    4.1706
   33.435    4.4339
   33.450    4.2075
   33.465    4.3233
   33.480    4.2180
   33.495    4.2443
   33.510    4.3286
   33.525    4.1917
   33.540    4.3181
   33.555    4.1496
   33.570    4.2443
   33.585    4.2180
   33.600    4.0758
   33.615    4.3391
   33.630    4.1917
   33.645    4.0706
   33.660    4.2391
   33.675    4.2285
   33.690    4.2075
   33.705    4.3181
   33.720    4.1285
   33.735    4.3286
   33.750    4.3602
   33.765    4.3181
   33.780    4.3655
   33.795    4.0600
   33.810    4.1706
   33.825    4.1390
   33.840    4.2075
   33.855    4.3391
   33.870    4.0337
   33.885    4.2865
   33.900    4.5024
   33.915    4.4076
   33.930    4.5076
   33.945    4.6340
   33.960    4.6024
   33.975    4.4128
   33.990    4.6919
   34.005    4.3075
   34.020    4.2496
   34.035    4.0864
   34.050    4.1917
   34.065    4.4760
   34.080    4.2233
   34.095    4.0548
   34.110    4.0126
   34.125    4.1969
   34.140    4.2865
   34.155    4.4866
   34.170    4.4813
   34.185    4.2707
   34.200    4.2338
   34.215    4.5234
   34.230    4.3918
   34.245    4.1811
   34.260    4.1811
   34.275    4.0969
   34.290    4.1496
   34.305    4.1917
   34.320    4.0600
   34.335    4.1074
   34.350    4.3181
   34.365    4.2338
   34.380    4.1864
   34.395    4.1706
   34.410    4.2549
   34.425    4.1496
   34.440    4.1548
   34.455    4.0232
   34.470    4.3707
   34.485    4.0758
   34.500    4.2022
   34.515    4.2865
   34.530    4.1917
   34.545    3.9916
   34.560    4.1601
   34.575    4.1390
   34.590    3.9863
   34.605    3.9705
   34.620    4.0232
   34.635    4.2338
   34.650    4.0390
   34.665    4.1548
   34.680    4.0495
   34.695    4.1654
   34.710    4.2443
   34.725    4.0232
   34.740    4.0811
   34.755    3.9863
   34.770    3.9231
   34.785    4.0021
   34.800    4.1338
   34.815    4.2391
   34.830    4.1443
   34.845    3.8441
   34.860    4.1285
   34.875    4.0021
   34.890    4.1443
   34.905    3.9284
   34.920    4.1917
   34.935    4.2549
   34.950    4.2391
   34.965    4.1285
   34.980    4.1811
   34.995    4.2812
   35.010    3.9863
   35.025    3.9705
   35.040    3.9442
   35.055    3.7967
   35.070    4.1443
   35.085    4.2391
   35.100    4.1074
   35.115    3.9442
   35.130    3.9442
   35.145    4.0495
   35.160    3.9126
   35.175    4.1180
   35.190    3.9916
   35.205    4.0074
   35.220    4.1917
   35.235    3.9758
   35.250    4.0758
   35.265    4.0021
   35.280    3.8599
   35.295    4.1548
   35.310    4.1443
   35.325    4.0600
   35.340    3.9600
   35.355    3.9758
   35.370    4.0548
   35.385    4.0179
   35.400    4.0074
   35.415    3.9547
   35.430    4.0811
   35.445    4.0179
   35.460    4.1601
   35.475    3.9231
   35.490    4.1443
   35.505    4.1074
   35.520    3.9126
   35.535    3.9705
   35.550    3.9494
   35.565    3.9231
   35.580    4.0284
   35.595    4.0864
   35.610    3.9810
   35.625    4.0074
   35.640    3.9231
   35.655    4.0706
   35.670    3.8757
   35.685    3.9231
   35.700    4.0232
   35.715    3.9126
   35.730    4.1022
   35.745    4.0284
   35.760    3.9863
   35.775    4.0706
   35.790    4.0390
   35.805    3.9179
   35.820    3.9336
   35.835    3.9600
   35.850    4.0653
   35.865    4.1864
   35.880    4.1496
   35.895    3.8283
   35.910    3.7704
   35.925    4.0074
   35.940    3.8863
   35.955    3.8968
   35.970    3.8863
   35.985    3.9126
   36.000    3.7230
   36.015    3.9179
   36.030    3.9179
   36.045    4.1232
   36.060    4.0126
   36.075    4.0179
   36.090    4.1496
   36.105    4.1706
   36.120    3.8231
   36.135    3.7441
   36.150    3.9073
   36.165    3.8020
   36.180    4.0021
   36.195    4.0126
   36.210    3.9179
   36.225    3.9231
   36.240    3.9021
   36.255    3.9705
   36.270    3.9600
   36.285    3.9126
   36.300    3.7019
   36.315    4.0126
   36.330    4.3444
   36.345    4.0337
   36.360    3.9179
   36.375    3.9547
   36.390    3.8494
   36.405    3.8178
   36.420    3.7809
   36.435    3.5492
   36.450    3.7125
   36.465    3.8810
   36.480    3.7388
   36.495    4.0074
   36.510    3.7915
   36.525    3.9126
   36.540    3.9652
   36.555    3.7809
   36.570    3.8547
   36.585    3.7125
   36.600    3.7072
   36.615    3.8389
   36.630    3.7757
   36.645    3.7809
   36.660    3.7651
   36.675    3.7704
   36.690    4.1074
   36.705    3.7915
   36.720    4.0653
   36.735    4.0284
   36.750    3.9758
   36.765    3.9494
   36.780    3.9284
   36.795    4.0548
   36.810    3.7651
   36.825    3.7177
   36.840    3.9652
   36.855    3.9810
   36.870    4.0600
   36.885    3.6914
   36.900    3.6704
   36.915    3.7704
   36.930    4.0232
   36.945    3.8705
   36.960    3.8968
   36.975    3.8810
   36.990    3.5914
   37.005    3.6862
   37.020    3.7546
   37.035    3.6019
   37.050    3.9389
   37.065    3.8968
   37.080    4.0126
   37.095    3.9705
   37.110    3.8125
   37.125    3.8283
   37.140    3.9547
   37.155    3.9600
   37.170    4.1601
   37.185    4.0021
   37.200    4.0442
   37.215    3.9126
   37.230    4.0864
   37.245    3.7809
   37.260    3.8178
   37.275    3.8494
   37.290    3.8125
   37.305    3.7599
   37.320    3.9336
   37.335    3.9231
   37.350    3.9968
   37.365    3.7915
   37.380    3.9494
   37.395    3.7546
   37.410    3.6124
   37.425    3.7967
   37.440    3.8283
   37.455    3.7177
   37.470    3.8915
   37.485    3.9179
   37.500    3.7651
   37.515    3.7019
   37.530    3.7493
   37.545    3.6862
   37.560    3.9810
   37.575    3.6862
   37.590    3.8178
   37.605    4.1969
   37.620    3.7651
   37.635    3.6546
   37.650    3.6546
   37.665    3.7335
   37.680    3.5018
   37.695    3.6914
   37.710    3.7546
   37.725    3.7230
   37.740    3.6546
   37.755    3.5176
   37.770    3.5861
   37.785    3.9073
   37.800    3.9336
   37.815    3.8494
   37.830    3.7915
   37.845    3.9179
   37.860    3.7546
   37.875    3.7757
   37.890    3.7125
   37.905    3.7809
   37.920    3.5387
   37.935    3.7072
   37.950    3.8231
   37.965    3.7651
   37.980    3.8178
   37.995    3.6072
   38.010    3.9126
   38.025    3.9810
   38.040    3.9916
   38.055    3.9494
   38.070    3.8757
   38.085    4.0495
   38.100    4.0706
   38.115    3.9758
   38.130    4.0811
   38.145    3.8073
   38.160    3.6177
   38.175    3.8757
   38.190    3.7704
   38.205    3.9389
   38.220    3.6177
   38.235    3.7651
   38.250    3.8599
   38.265    3.8178
   38.280    3.8283
   38.295    3.7915
   38.310    3.7335
   38.325    3.7546
   38.340    3.5808
   38.355    3.6019
   38.370    3.7019
   38.385    3.7967
   38.400    3.7335
   38.415    3.7335
   38.430    3.6019
   38.445    3.6440
   38.460    3.8178
   38.475    3.6335
   38.490    3.7072
   38.505    3.6914
   38.520    3.6124
   38.535    3.8863
   38.550    3.8757
   38.565    3.8336
   38.580    3.6598
   38.595    3.6072
   38.610    3.4544
   38.625    3.4597
   38.640    3.6651
   38.655    3.6651
   38.670    3.5914
   38.685    3.6914
   38.700    3.5545
   38.715    3.6862
   38.730    3.5176
   38.745    3.8705
   38.760    3.7177
   38.775    3.6914
   38.790    3.7335
   38.805    3.8283
   38.820    3.7967
   38.835    3.5492
   38.850    3.4966
   38.865    3.7493
   38.880    3.7019
   38.895    3.7230
   38.910    3.7441
   38.925    3.9179
   38.940    3.7757
   38.955    3.5124
   38.970    3.7493
   38.985    3.6546
   39.000    3.7177
   39.015    3.6335
   39.030    3.5914
   39.045    3.6493
   39.060    3.7283
   39.075    3.8336
   39.090    3.6651
   39.105    3.4544
   39.120    3.6440
   39.135    3.6967
   39.150    3.7019
   39.165    3.6967
   39.180    3.7651
   39.195    3.6862
   39.210    3.6124
   39.225    3.6440
   39.240    3.6493
   39.255    3.5545
   39.270    3.7388
   39.285    3.6967
   39.300    3.6493
   39.315    3.7230
   39.330    3.8283
   39.345    3.7125
   39.360    3.8231
   39.375    3.7915
   39.390    3.9758
   39.405    3.7704
   39.420    3.7177
   39.435    3.8073
   39.450    3.8283
   39.465    3.7757
   39.480    3.6914
   39.495    3.7493
   39.510    3.4860
   39.525    3.6967
   39.540    3.5492
   39.555    3.7915
   39.570    3.6230
   39.585    3.8389
   39.600    3.5914
   39.615    3.6282
   39.630    3.6651
   39.645    3.6651
   39.660    3.6335
   39.675    3.5334
   39.690    3.7283
   39.705    3.7546
   39.720    3.7967
   39.735    3.7283
   39.750    3.7757
   39.765    3.6282
   39.780    3.9284
   39.795    3.8073
   39.810    3.8125
   39.825    3.5966
   39.840    3.6388
   39.855    3.5018
   39.870    3.6177
   39.885    3.7072
   39.900    3.7809
   39.915    3.7283
   39.930    3.5966
   39.945    3.7599
   39.960    3.7599
   39.975    3.7177
   39.990    3.7177
