    1.500    5.8110
    1.515    5.8206
    1.530    5.8022
    1.545    5.7486
    1.560    5.6600
    1.575    5.6556
    1.590    5.5196
    1.605    5.5477
    1.620    5.4678
    1.635    5.4652
    1.650    5.3326
    1.665    5.3239
    1.680    5.2194
    1.695    5.2001
    1.710    5.2150
    1.725    5.1194
    1.740    5.0772
    1.755    5.1106
    1.770    5.0334
    1.785    4.9675
    1.800    4.7867
    1.815    4.8736
    1.830    4.9087
    1.845    4.8315
    1.860    4.7744
    1.875    4.7604
    1.890    4.7358
    1.905    4.7077
    1.920    4.6051
    1.935    4.6033
    1.950    4.6410
    1.965    4.5875
    1.980    4.4997
    1.995    4.4734
    2.010    4.4594
    2.025    4.5454
    2.040    4.4383
    2.055    4.3339
    2.070    4.4243
    2.085    4.3365
    2.100    4.2549
    2.115    4.2347
    2.130    4.3093
    2.145    4.1522
    2.160    4.2242
    2.175    4.2461
    2.190    4.1899
    2.205    4.1610
    2.220    4.1522
    2.235    4.0363
    2.250    4.0820
    2.265    4.1013
    2.280    4.1206
    2.295    4.0451
    2.310    3.9942
    2.325    3.9907
    2.340    3.9424
    2.355    3.8547
    2.370    3.9056
    2.385    3.8731
    2.400    3.8450
    2.415    3.8547
    2.430    3.9152
    2.445    3.7827
    2.460    3.7564
    2.475    3.8301
    2.490    3.7950
    2.505    3.6879
    2.520    3.7098
    2.535    3.7897
    2.550    3.7388
    2.565    3.7274
    2.580    3.7186
    2.595    3.7116
    2.610    3.6405
    2.625    3.7441
    2.640    3.6352
    2.655    3.6528
    2.670    3.6230
    2.685    3.5089
    2.700    3.5773
    2.715    3.5975
    2.730    3.5405
    2.745    3.5896
    2.760    3.5291
    2.775    3.5879
    2.790    3.5492
    2.805    3.5685
    2.820    3.5010
    2.835    3.5334
    2.850    3.5852
    2.865    3.6291
    2.880    3.6177
    2.895    3.5721
    2.910    3.6563
    2.925    3.6177
    2.940    3.6414
    2.955    3.7213
    2.970    3.7458
    2.985    3.8740
    3.000    3.8871
    3.015    3.8555
    3.030    3.9512
    3.045    3.9284
    3.060    4.0267
    3.075    4.0486
    3.090    4.1302
    3.105    4.2277
    3.120    4.3962
    3.135    4.4497
    3.150    4.5761
    3.165    4.6296
    3.180    4.7788
    3.195    4.8631
    3.210    5.0930
    3.225    5.3265
    3.240    5.3563
    3.255    5.6100
    3.270    5.7355
    3.285    6.0786
    3.300    6.1559
    3.315    6.3604
    3.330    6.7334
    3.345    7.1160
    3.360    7.4715
    3.375    7.8103
    3.390    8.1596
    3.405    8.6194
    3.420    8.9389
    3.435    9.4392
    3.450    9.9860
    3.465   10.5468
    3.480   10.9110
    3.495   11.6711
    3.510   12.4021
    3.525   13.1710
    3.540   14.1653
    3.555   14.9710
    3.570   15.9180
    3.585   17.1309
    3.600   18.4176
    3.615   19.6296
    3.630   20.9672
    3.645   22.7023
    3.660   24.6779
    3.675   26.9905
    3.690   29.3514
    3.705   32.0958
    3.720   35.5828
    3.735   39.1390
    3.750   44.0065
    3.765   49.6173
    3.780   57.0669
    3.795   67.2415
    3.810   79.8236
    3.825   92.0116
    3.840   94.8280
    3.855   87.2573
    3.870   71.5534
    3.885   52.6031
    3.900   33.6984
    3.915   19.2084
    3.930   10.9294
    3.945    7.1801
    3.960    5.4941
    3.975    4.7113
    3.990    4.3023
    4.005    3.9442
    4.020    3.7221
    4.035    3.5352
    4.050    3.3158
    4.065    3.1912
    4.080    3.2491
    4.095    3.1025
    4.110    3.0349
    4.125    3.0060
    4.140    3.0200
    4.155    2.9401
    4.170    2.8743
    4.185    2.8901
    4.200    2.9085
    4.215    2.8076
    4.230    2.7313
    4.245    2.7471
    4.260    2.7813
    4.275    2.6470
    4.290    2.7058
    4.305    2.6575
    4.320    2.6891
    4.335    2.6558
    4.350    2.6804
    4.365    2.6479
    4.380    2.7251
    4.395    2.7304
    4.410    2.7076
    4.425    2.6479
    4.440    2.6768
    4.455    2.6391
    4.470    2.6751
    4.485    2.6347
    4.500    2.5540
    4.515    2.6014
    4.530    2.5742
    4.545    2.6014
    4.560    2.5549
    4.575    2.6049
    4.590    2.5987
    4.605    2.6207
    4.620    2.5952
    4.635    2.6005
    4.650    2.5338
    4.665    2.5303
    4.680    2.5312
    4.695    2.5162
    4.710    2.5619
    4.725    2.5197
    4.740    2.5715
    4.755    2.5619
    4.770    2.5259
    4.785    2.4996
    4.800    2.5759
    4.815    2.5312
    4.830    2.6382
    4.845    2.6453
    4.860    2.6646
    4.875    2.6891
    4.890    2.7225
    4.905    2.6567
    4.920    2.6672
    4.935    2.7620
    4.950    2.7602
    4.965    2.8559
    4.980    2.9050
    4.995    2.8954
    5.010    2.9164
    5.025    3.0384
    5.040    3.1201
    5.055    3.1701
    5.070    3.2833
    5.085    3.2763
    5.100    3.4308
    5.115    3.5589
    5.130    3.6862
    5.145    3.9064
    5.160    4.1548
    5.175    4.2724
    5.190    4.4796
    5.205    4.7130
    5.220    4.9386
    5.235    5.2317
    5.250    5.6977
    5.265    6.0971
    5.280    6.4894
    5.295    7.1116
    5.310    7.7260
    5.325    8.4527
    5.340    9.2654
    5.355   10.2238
    5.370   11.4420
    5.385   13.0604
    5.400   14.9561
    5.415   17.6979
    5.430   20.8583
    5.445   24.2048
    5.460   25.7100
    5.475   24.1750
    5.490   20.6398
    5.505   15.9909
    5.520   11.2366
    5.535    7.1810
    5.550    4.7516
    5.565    3.7335
    5.580    3.2298
    5.595    2.8726
    5.610    2.7541
    5.625    2.5610
    5.640    2.5171
    5.655    2.6128
    5.670    2.6602
    5.685    2.5110
    5.700    2.4969
    5.715    2.4750
    5.730    2.5057
    5.745    2.4285
    5.760    2.4566
    5.775    2.4092
    5.790    2.4074
    5.805    2.3978
    5.820    2.4179
    5.835    2.4495
    5.850    2.3934
    5.865    2.3530
    5.880    2.3591
    5.895    2.3925
    5.910    2.4583
    5.925    2.3758
    5.940    2.3556
    5.955    2.4074
    5.970    2.3934
    5.985    2.3214
    6.000    2.3679
    6.015    2.3047
    6.030    2.3495
    6.045    2.3074
    6.060    2.4136
    6.075    2.4004
    6.090    2.3144
    6.105    2.3802
    6.120    2.4039
    6.135    2.3635
    6.150    2.3951
    6.165    2.3547
    6.180    2.3381
    6.195    2.2942
    6.210    2.3346
    6.225    2.3626
    6.240    2.3784
    6.255    2.3372
    6.270    2.3732
    6.285    2.3319
    6.300    2.4065
    6.315    2.3776
    6.330    2.3951
    6.345    2.4381
    6.360    2.4425
    6.375    2.4609
    6.390    2.5540
    6.405    2.5470
    6.420    2.5215
    6.435    2.5926
    6.450    2.5794
    6.465    2.7278
    6.480    2.7234
    6.495    2.8015
    6.510    2.9551
    6.525    2.9603
    6.540    3.0858
    6.555    3.3061
    6.570    3.3386
    6.585    3.4992
    6.600    3.8257
    6.615    4.0662
    6.630    4.3391
    6.645    4.7964
    6.660    5.3002
    6.675    6.0628
    6.690    6.8755
    6.705    7.1810
    6.720    6.8510
    6.735    6.2199
    6.750    5.1720
    6.765    4.2145
    6.780    3.3579
    6.795    2.8181
    6.810    2.5838
    6.825    2.4337
    6.840    2.4223
    6.855    2.3442
    6.870    2.3267
    6.885    2.3205
    6.900    2.2819
    6.915    2.2635
    6.930    2.3547
    6.945    2.2643
    6.960    2.3284
    6.975    2.3468
    6.990    2.3223
    7.005    2.3214
    7.020    2.2784
    7.035    2.2670
    7.050    2.2652
    7.065    2.2521
    7.080    2.2091
    7.095    2.2968
    7.110    2.3056
    7.125    2.2591
    7.140    2.2547
    7.155    2.2450
    7.170    2.1906
    7.185    2.2020
    7.200    2.2152
    7.215    2.2740
    7.230    2.2459
    7.245    2.2196
    7.260    2.2038
    7.275    2.2749
    7.290    2.2731
    7.305    2.2600
    7.320    2.2591
    7.335    2.2608
    7.350    2.2205
    7.365    2.2310
    7.380    2.2301
    7.395    2.3100
    7.410    2.3495
    7.425    2.3591
    7.440    2.3433
    7.455    2.2986
    7.470    2.4092
    7.485    2.4592
    7.500    2.4961
    7.515    2.5601
    7.530    2.5829
    7.545    2.6716
    7.560    2.8576
    7.575    2.8550
    7.590    2.9937
    7.605    3.0929
    7.620    3.2219
    7.635    3.4509
    7.650    3.6238
    7.665    3.9626
    7.680    4.4392
    7.695    4.8043
    7.710    5.5152
    7.725    6.3226
    7.740    7.2222
    7.755    7.6997
    7.770    7.3863
    7.785    6.6333
    7.800    5.7100
    7.815    4.4471
    7.830    3.4764
    7.845    2.8568
    7.860    2.4609
    7.875    2.3495
    7.890    2.2854
    7.905    2.2521
    7.920    2.2494
    7.935    2.2091
    7.950    2.2292
    7.965    2.2328
    7.980    2.1827
    7.995    2.1889
    8.010    2.1959
    8.025    2.1652
    8.040    2.2257
    8.055    2.2424
    8.070    2.1617
    8.085    2.1494
    8.100    2.1555
    8.115    2.2407
    8.130    2.1792
    8.145    2.2003
    8.160    2.1748
    8.175    2.1072
    8.190    2.1520
    8.205    2.1345
    8.220    2.2231
    8.235    2.2029
    8.250    2.1169
    8.265    2.1169
    8.280    2.1195
    8.295    2.0994
    8.310    2.1239
    8.325    2.1336
    8.340    2.1643
    8.355    2.1388
    8.370    2.1467
    8.385    2.1661
    8.400    2.1187
    8.415    2.2161
    8.430    2.1933
    8.445    2.1625
    8.460    2.1801
    8.475    2.2433
    8.490    2.1573
    8.505    2.2249
    8.520    2.2310
    8.535    2.1792
    8.550    2.2854
    8.565    2.3284
    8.580    2.3267
    8.595    2.3223
    8.610    2.3986
    8.625    2.4390
    8.640    2.5961
    8.655    2.6830
    8.670    2.7997
    8.685    2.7980
    8.700    2.7655
    8.715    2.6602
    8.730    2.5496
    8.745    2.4039
    8.760    2.3767
    8.775    2.1625
    8.790    2.0792
    8.805    2.1529
    8.820    2.1617
    8.835    2.0923
    8.850    2.1248
    8.865    2.1599
    8.880    2.1450
    8.895    2.0941
    8.910    2.0976
    8.925    2.0879
    8.940    2.1283
    8.955    2.1116
    8.970    2.1002
    8.985    2.1195
    9.000    2.1230
    9.015    2.0932
    9.030    2.1678
    9.045    2.1187
    9.060    2.1687
    9.075    2.1441
    9.090    2.1476
    9.105    2.1661
    9.120    2.1871
    9.135    2.1959
    9.150    2.1862
    9.165    2.1538
    9.180    2.1090
    9.195    2.1941
    9.210    2.2319
    9.225    2.2784
    9.240    2.3232
    9.255    2.2494
    9.270    2.2977
    9.285    2.4566
    9.300    2.5294
    9.315    2.5926
    9.330    2.7672
    9.345    2.9270
    9.360    3.0674
    9.375    3.2833
    9.390    3.6774
    9.405    3.9819
    9.420    4.3075
    9.435    4.8684
    9.450    5.7144
    9.465    6.6491
    9.480    8.0060
    9.495    9.6551
    9.510   10.9057
    9.525   11.1322
    9.540   10.4994
    9.555    8.8494
    9.570    7.0932
    9.585    5.3493
    9.600    3.8547
    9.615    2.9858
    9.630    2.5663
    9.645    2.4285
    9.660    2.2845
    9.675    2.2433
    9.690    2.2442
    9.705    2.1933
    9.720    2.2231
    9.735    2.1880
    9.750    2.1055
    9.765    2.1450
    9.780    2.1169
    9.795    2.0572
    9.810    2.1467
    9.825    2.1187
    9.840    2.0976
    9.855    2.1222
    9.870    2.0923
    9.885    2.0774
    9.900    2.0546
    9.915    2.0792
    9.930    2.0599
    9.945    2.1055
    9.960    2.0915
    9.975    2.0958
    9.990    2.1494
   10.005    2.1327
   10.020    2.0046
   10.035    2.0853
   10.050    2.1757
   10.065    2.2143
   10.080    2.1573
   10.095    2.2450
   10.110    2.2020
   10.125    2.2731
   10.140    2.3670
   10.155    2.5224
   10.170    2.6426
   10.185    2.7023
   10.200    2.9015
   10.215    3.1218
   10.230    3.4000
   10.245    3.7669
   10.260    4.2154
   10.275    4.7622
   10.290    5.0123
   10.305    4.9763
   10.320    4.4681
   10.335    3.9986
   10.350    3.3921
   10.365    2.9024
   10.380    2.4987
   10.395    2.2424
   10.410    2.2196
   10.425    2.1388
   10.440    2.0616
   10.455    2.0581
   10.470    2.0370
   10.485    2.0221
   10.500    2.0660
   10.515    2.0142
   10.530    2.0160
   10.545    2.0283
   10.560    2.0783
   10.575    2.0239
   10.590    2.0704
   10.605    2.1081
   10.620    2.1020
   10.635    2.0958
   10.650    2.0414
   10.665    2.0160
   10.680    2.0432
   10.695    2.0046
   10.710    2.0730
   10.725    2.0362
   10.740    2.0607
   10.755    2.0581
   10.770    2.0326
   10.785    2.0388
   10.800    2.1827
   10.815    2.1511
   10.830    2.1827
   10.845    2.2626
   10.860    2.3196
   10.875    2.4179
   10.890    2.5066
   10.905    2.6409
   10.920    2.8533
   10.935    3.1297
   10.950    3.4720
   10.965    3.7397
   10.980    4.2970
   10.995    4.7253
   11.010    4.9666
   11.025    4.8526
   11.040    4.4225
   11.055    3.8283
   11.070    3.2728
   11.085    2.8339
   11.100    2.4179
   11.115    2.2521
   11.130    2.1055
   11.145    2.0950
   11.160    2.0011
   11.175    2.1002
   11.190    2.0607
   11.205    1.9949
   11.220    2.0230
   11.235    2.0283
   11.250    2.0019
   11.265    2.0318
   11.280    2.0177
   11.295    1.9835
   11.310    1.9528
   11.325    2.0133
   11.340    2.0432
   11.355    2.0388
   11.370    1.9940
   11.385    2.0247
   11.400    2.0098
   11.415    2.0625
   11.430    2.0291
   11.445    2.0660
   11.460    2.1011
   11.475    2.1169
   11.490    2.1213
   11.505    2.1590
   11.520    2.1704
   11.535    2.3574
   11.550    2.3767
   11.565    2.5110
   11.580    2.6391
   11.595    2.8708
   11.610    3.1613
   11.625    3.5141
   11.640    4.0372
   11.655    4.6814
   11.670    5.0404
   11.685    5.3563
   11.700    5.1703
   11.715    4.6419
   11.730    3.9951
   11.745    3.4264
   11.760    2.7962
   11.775    2.4443
   11.790    2.1871
   11.805    2.1064
   11.820    2.0897
   11.835    2.0757
   11.850    2.0239
   11.865    2.0046
   11.880    2.0037
   11.895    2.0274
   11.910    2.0432
   11.925    2.0002
   11.940    1.9809
   11.955    2.0151
   11.970    1.9659
   11.985    2.0046
   12.000    1.9493
   12.015    1.9686
   12.030    2.0090
   12.045    1.9782
   12.060    2.0212
   12.075    1.9501
   12.090    1.9853
   12.105    1.9967
   12.120    2.0107
   12.135    2.0757
   12.150    1.9984
   12.165    2.0081
   12.180    2.0204
   12.195    2.0098
   12.210    2.0511
   12.225    2.1143
   12.240    2.1327
   12.255    2.1704
   12.270    2.1353
   12.285    2.3363
   12.300    2.4978
   12.315    2.5434
   12.330    2.5294
   12.345    2.4065
   12.360    2.3828
   12.375    2.2433
   12.390    2.1643
   12.405    2.0125
   12.420    2.0379
   12.435    2.0318
   12.450    2.0037
   12.465    1.9651
   12.480    1.9616
   12.495    1.9475
   12.510    1.9949
   12.525    2.0247
   12.540    1.9809
   12.555    1.9765
   12.570    2.0037
   12.585    1.9537
   12.600    1.9589
   12.615    1.9247
   12.630    1.9589
   12.645    2.0309
   12.660    1.9791
   12.675    2.0186
   12.690    1.9730
   12.705    1.9861
   12.720    2.0379
   12.735    2.0002
   12.750    2.0054
   12.765    2.0502
   12.780    2.0449
   12.795    2.1222
   12.810    2.1889
   12.825    2.2942
   12.840    2.4311
   12.855    2.5961
   12.870    2.8313
   12.885    3.1332
   12.900    3.5150
   12.915    3.7932
   12.930    3.8845
   12.945    3.8389
   12.960    3.6124
   12.975    3.2008
   12.990    2.8664
   13.005    2.5505
   13.020    2.2670
   13.035    2.0906
   13.050    2.0634
   13.065    1.9387
   13.080    1.9756
   13.095    1.9940
   13.110    1.9958
   13.125    2.0037
   13.140    1.9475
   13.155    1.9844
   13.170    2.0467
   13.185    1.9835
   13.200    1.9396
   13.215    1.9914
   13.230    1.9537
   13.245    2.0142
   13.260    2.0212
   13.275    2.0344
   13.290    1.9607
   13.305    2.0160
   13.320    1.9712
   13.335    1.9475
   13.350    1.9800
   13.365    1.9817
   13.380    2.0511
   13.395    2.0967
   13.410    2.2284
   13.425    2.2521
   13.440    2.2775
   13.455    2.3811
   13.470    2.5917
   13.485    2.6970
   13.500    2.8225
   13.515    2.9103
   13.530    2.9015
   13.545    2.7199
   13.560    2.5136
   13.575    2.3504
   13.590    2.1985
   13.605    2.0344
   13.620    2.0651
   13.635    1.9975
   13.650    1.9598
   13.665    1.9923
   13.680    1.9589
   13.695    1.9932
   13.710    1.9905
   13.725    1.9405
   13.740    1.9344
   13.755    1.9387
   13.770    1.9466
   13.785    1.9888
   13.800    1.9466
   13.815    1.9308
   13.830    1.9361
   13.845    1.9212
   13.860    1.9651
   13.875    1.9765
   13.890    2.0072
   13.905    2.0432
   13.920    2.0072
   13.935    2.0528
   13.950    2.1906
   13.965    2.1968
   13.980    2.3319
   13.995    2.5461
   14.010    2.7435
   14.025    3.0305
   14.040    3.3535
   14.055    3.5703
   14.070    3.6309
   14.085    3.6467
   14.100    3.3728
   14.115    3.1025
   14.130    2.7041
   14.145    2.4557
   14.160    2.1099
   14.175    2.0353
   14.190    1.9949
   14.205    2.0142
   14.220    1.9563
   14.235    1.9379
   14.250    1.9256
   14.265    1.9159
   14.280    1.9335
   14.295    1.8799
   14.310    1.9054
   14.325    1.9107
   14.340    1.8975
   14.355    1.8387
   14.370    1.9265
   14.385    1.8624
   14.400    1.9300
   14.415    1.9247
   14.430    1.9598
   14.445    1.9080
   14.460    1.8826
   14.475    1.9326
   14.490    1.9150
   14.505    1.9352
   14.520    1.9203
   14.535    1.9326
   14.550    1.8992
   14.565    1.9107
   14.580    1.9835
   14.595    1.9186
   14.610    1.8957
   14.625    1.9265
   14.640    1.9712
   14.655    1.9071
   14.670    1.9861
   14.685    1.9405
   14.700    1.9475
   14.715    1.9150
   14.730    1.9150
   14.745    1.9124
   14.760    1.8905
   14.775    1.8992
   14.790    1.9791
   14.805    1.9019
   14.820    1.9431
   14.835    1.9554
   14.850    1.9405
   14.865    1.9589
   14.880    1.9001
   14.895    1.9142
   14.910    1.8922
   14.925    1.9308
   14.940    1.9168
   14.955    1.9554
   14.970    1.9256
   14.985    1.9774
   15.000    1.9923
   15.015    1.9835
   15.030    1.9896
   15.045    2.0169
   15.060    2.0748
   15.075    2.1222
   15.090    2.2196
   15.105    2.3117
   15.120    2.3855
   15.135    2.3881
   15.150    2.3793
   15.165    2.3372
   15.180    2.2170
   15.195    2.0686
   15.210    2.0476
   15.225    1.9089
   15.240    1.9572
   15.255    1.9396
   15.270    1.9677
   15.285    1.9967
   15.300    1.9528
   15.315    1.9440
   15.330    1.9501
   15.345    1.9774
   15.360    1.9993
   15.375    1.9098
   15.390    1.8922
   15.405    1.8229
   15.420    1.8773
   15.435    1.9291
   15.450    1.8887
   15.465    1.9150
   15.480    1.9291
   15.495    1.9317
   15.510    1.8966
   15.525    1.9449
   15.540    1.9098
   15.555    1.8826
   15.570    1.8624
   15.585    1.9115
   15.600    1.9475
   15.615    1.8966
   15.630    1.9124
   15.645    1.9282
   15.660    1.9352
   15.675    1.8922
   15.690    1.8527
   15.705    1.9124
   15.720    1.8755
   15.735    1.9221
   15.750    1.9107
   15.765    1.9458
   15.780    1.9326
   15.795    1.9642
   15.810    1.9300
   15.825    1.9335
   15.840    1.9115
   15.855    1.9510
   15.870    2.0063
   15.885    1.9853
   15.900    1.9466
   15.915    1.8668
   15.930    1.8984
   15.945    1.9668
   15.960    1.9589
   15.975    1.9414
   15.990    2.0081
   16.005    2.0432
   16.020    2.0125
   16.035    2.0546
   16.050    2.1046
   16.065    2.1187
   16.080    2.1880
   16.095    2.3521
   16.110    2.3714
   16.125    2.3030
   16.140    2.2591
   16.155    2.2363
   16.170    2.1599
   16.185    2.1230
   16.200    2.0133
   16.215    2.0002
   16.230    1.9782
   16.245    1.9361
   16.260    1.9686
   16.275    1.9387
   16.290    1.9879
   16.305    1.9098
   16.320    1.8975
   16.335    1.8676
   16.350    1.9344
   16.365    1.9835
   16.380    1.9282
   16.395    1.9317
   16.410    1.9335
   16.425    1.9282
   16.440    1.9765
   16.455    2.0555
   16.470    2.0186
   16.485    2.0125
   16.500    2.1169
   16.515    2.0765
   16.530    2.1783
   16.545    2.2600
   16.560    2.4083
   16.575    2.4329
   16.590    2.4258
   16.605    2.3732
   16.620    2.2968
   16.635    2.2345
   16.650    2.2064
   16.665    2.0730
   16.680    1.9747
   16.695    1.9598
   16.710    1.9484
   16.725    1.9923
   16.740    1.9835
   16.755    1.9528
   16.770    1.9844
   16.785    1.9967
   16.800    1.9686
   16.815    1.9054
   16.830    1.9247
   16.845    1.9256
   16.860    2.0256
   16.875    1.9932
   16.890    2.0590
   16.905    2.1230
   16.920    2.1195
   16.935    2.2170
   16.950    2.2433
   16.965    2.3802
   16.980    2.5821
   16.995    2.6804
   17.010    2.9735
   17.025    3.1262
   17.040    3.2895
   17.055    3.3289
   17.070    3.2342
   17.085    3.0411
   17.100    2.7541
   17.115    2.4346
   17.130    2.2854
   17.145    2.1845
   17.160    2.0827
   17.175    1.9765
   17.190    1.8992
   17.205    1.9273
   17.220    1.8861
   17.235    1.9721
   17.250    1.9282
   17.265    1.9431
   17.280    2.0283
   17.295    1.9914
   17.310    1.9782
   17.325    1.9528
   17.340    1.9229
   17.355    1.9756
   17.370    1.9387
   17.385    2.0107
   17.400    1.9870
   17.415    2.0441
   17.430    2.0230
   17.445    2.1643
   17.460    2.2134
   17.475    2.2029
   17.490    2.2845
   17.505    2.3074
   17.520    2.2661
   17.535    2.2249
   17.550    2.1748
   17.565    2.0695
   17.580    2.0721
   17.595    2.0230
   17.610    2.0265
   17.625    2.0274
   17.640    1.9967
   17.655    1.9589
   17.670    1.9914
   17.685    2.0116
   17.700    2.0142
   17.715    2.0169
   17.730    1.9545
   17.745    1.9844
   17.760    1.9107
   17.775    1.8685
   17.790    1.9712
   17.805    1.9835
   17.820    2.0125
   17.835    2.0923
   17.850    2.0493
   17.865    2.0721
   17.880    2.0757
   17.895    2.1669
   17.910    2.1959
   17.925    2.1766
   17.940    2.2064
   17.955    2.2556
   17.970    2.1818
   17.985    2.1020
   18.000    2.0800
   18.015    2.0599
   18.030    2.0405
   18.045    1.9888
   18.060    1.9493
   18.075    2.0046
   18.090    2.0283
   18.105    2.0002
   18.120    1.9423
   18.135    2.0239
   18.150    1.9782
   18.165    1.9677
   18.180    1.9774
   18.195    1.9861
   18.210    1.9686
   18.225    2.0546
   18.240    2.0160
   18.255    2.0002
   18.270    2.0616
   18.285    2.1002
   18.300    2.1353
   18.315    2.1520
   18.330    2.2740
   18.345    2.3363
   18.360    2.3705
   18.375    2.3381
   18.390    2.2942
   18.405    2.2082
   18.420    2.1827
   18.435    2.1239
   18.450    2.0967
   18.465    2.0142
   18.480    2.0090
   18.495    2.0476
   18.510    1.9879
   18.525    1.9651
   18.540    1.9580
   18.555    1.9765
   18.570    1.9896
   18.585    2.0098
   18.600    2.0502
   18.615    2.0169
   18.630    2.0054
   18.645    1.9580
   18.660    1.9563
   18.675    2.0221
   18.690    1.9932
   18.705    1.9712
   18.720    2.0011
   18.735    2.0985
   18.750    2.1625
   18.765    2.2161
   18.780    2.1740
   18.795    2.1406
   18.810    2.1169
   18.825    2.0397
   18.840    2.0011
   18.855    2.0467
   18.870    1.9721
   18.885    1.9405
   18.900    1.9642
   18.915    1.9326
   18.930    1.9186
   18.945    1.9326
   18.960    2.0011
   18.975    1.9826
   18.990    1.9633
   19.005    1.9712
   19.020    2.0142
   19.035    1.9853
   19.050    1.9115
   19.065    2.0370
   19.080    1.9932
   19.095    2.0256
   19.110    2.0037
   19.125    2.0072
   19.140    1.9414
   19.155    1.9545
   19.170    2.0432
   19.185    2.0590
   19.200    2.0256
   19.215    1.9993
   19.230    1.9993
   19.245    1.9747
   19.260    1.9835
   19.275    1.9914
   19.290    1.9712
   19.305    1.9958
   19.320    1.9730
   19.335    1.9545
   19.350    1.9826
   19.365    2.0107
   19.380    1.9940
   19.395    2.0054
   19.410    1.9817
   19.425    1.9659
   19.440    2.0028
   19.455    2.0379
   19.470    2.0028
   19.485    2.0853
   19.500    2.1143
   19.515    2.1503
   19.530    2.2319
   19.545    2.3074
   19.560    2.4136
   19.575    2.3960
   19.590    2.4320
   19.605    2.4302
   19.620    2.4873
   19.635    2.4013
   19.650    2.2679
   19.665    2.1792
   19.680    2.0836
   19.695    2.0599
   19.710    1.9809
   19.725    1.9800
   19.740    2.0642
   19.755    1.9616
   19.770    2.0309
   19.785    2.0528
   19.800    2.0520
   19.815    2.0142
   19.830    2.0265
   19.845    1.9537
   19.860    2.0335
   19.875    2.0555
   19.890    2.0011
   19.905    2.0160
   19.920    2.0028
   19.935    2.0160
   19.950    2.0212
   19.965    2.0142
   19.980    2.1020
   19.995    2.0897
   20.010    2.0405
   20.025    2.0309
   20.040    2.0449
   20.055    2.0037
   20.070    1.9870
   20.085    2.0046
   20.100    2.0186
   20.115    2.0265
   20.130    2.0230
   20.145    2.0107
   20.160    1.9958
   20.175    2.0871
   20.190    1.9747
   20.205    2.0274
   20.220    2.1090
   20.235    2.1415
   20.250    2.1020
   20.265    2.1845
   20.280    2.3144
   20.295    2.3978
   20.310    2.5584
   20.325    2.7550
   20.340    2.8901
   20.355    2.9524
   20.370    3.0305
   20.385    3.0358
   20.400    2.9279
   20.415    2.7585
   20.430    2.6066
   20.445    2.3802
   20.460    2.1994
   20.475    2.1327
   20.490    2.1301
   20.505    2.1020
   20.520    2.0818
   20.535    2.0888
   20.550    2.0546
   20.565    2.0362
   20.580    2.0458
   20.595    2.1169
   20.610    2.0739
   20.625    2.0520
   20.640    2.0449
   20.655    2.0888
   20.670    1.9940
   20.685    2.0432
   20.700    2.0678
   20.715    2.0528
   20.730    2.0563
   20.745    2.0678
   20.760    2.0335
   20.775    2.0090
   20.790    2.0098
   20.805    2.0046
   20.820    2.0177
   20.835    2.0467
   20.850    2.0011
   20.865    2.0204
   20.880    2.0897
   20.895    2.0063
   20.910    2.0142
   20.925    2.0239
   20.940    2.0247
   20.955    2.0256
   20.970    1.9826
   20.985    2.0932
   21.000    2.0230
   21.015    2.0081
   21.030    2.0476
   21.045    1.9888
   21.060    2.0651
   21.075    2.1099
   21.090    2.0704
   21.105    2.0256
   21.120    2.0458
   21.135    2.1169
   21.150    2.0607
   21.165    2.0274
   21.180    2.0642
   21.195    2.0256
   21.210    2.0493
   21.225    1.9791
   21.240    2.0678
   21.255    2.0177
   21.270    1.9949
   21.285    2.0449
   21.300    2.0388
   21.315    2.0239
   21.330    2.0581
   21.345    2.0555
   21.360    2.0660
   21.375    2.0432
   21.390    2.0520
   21.405    1.9844
   21.420    2.0212
   21.435    2.0739
   21.450    2.0528
   21.465    2.0318
   21.480    2.0107
   21.495    2.0678
   21.510    2.0283
   21.525    2.0572
   21.540    2.0932
   21.555    2.0054
   21.570    2.0388
   21.585    2.0520
   21.600    2.0476
   21.615    2.0599
   21.630    2.0370
   21.645    2.0256
   21.660    2.0607
   21.675    2.0414
   21.690    2.0502
   21.705    2.0590
   21.720    2.1467
   21.735    2.1731
   21.750    2.1511
   21.765    2.1854
   21.780    2.2196
   21.795    2.2845
   21.810    2.3705
   21.825    2.3776
   21.840    2.4566
   21.855    2.3960
   21.870    2.4153
   21.885    2.3802
   21.900    2.4039
   21.915    2.2845
   21.930    2.2134
   21.945    2.1274
   21.960    2.0309
   21.975    2.0906
   21.990    2.1353
   22.005    2.0379
   22.020    2.0256
   22.035    2.0397
   22.050    2.0660
   22.065    2.1116
   22.080    2.1257
   22.095    2.0950
   22.110    2.1230
   22.125    2.1380
   22.140    2.1906
   22.155    2.2687
   22.170    2.3512
   22.185    2.2837
   22.200    2.3407
   22.215    2.3275
   22.230    2.2389
   22.245    2.1722
   22.260    2.2178
   22.275    2.1582
   22.290    2.1564
   22.305    2.1046
   22.320    2.1371
   22.335    2.0765
   22.350    2.0388
   22.365    2.1134
   22.380    2.0862
   22.395    2.0897
   22.410    2.1450
   22.425    2.1336
   22.440    2.2371
   22.455    2.2503
   22.470    2.4092
   22.485    2.5768
   22.500    2.7313
   22.515    2.9401
   22.530    3.0762
   22.545    3.1552
   22.560    3.1332
   22.575    3.0516
   22.590    2.8928
   22.605    2.8120
   22.620    2.6698
   22.635    2.5224
   22.650    2.3188
   22.665    2.1818
   22.680    2.1941
   22.695    2.1239
   22.710    2.1459
   22.725    2.1371
   22.740    2.0660
   22.755    2.1573
   22.770    2.1950
   22.785    2.1643
   22.800    2.3153
   22.815    2.4416
   22.830    2.5979
   22.845    2.8278
   22.860    3.0358
   22.875    3.1885
   22.890    3.2789
   22.905    3.3158
   22.920    3.2350
   22.935    3.0893
   22.950    2.9129
   22.965    2.8217
   22.980    2.5847
   22.995    2.3951
   23.010    2.1599
   23.025    2.1766
   23.040    2.1792
   23.055    2.0976
   23.070    2.0932
   23.085    2.0748
   23.100    2.0783
   23.115    2.1292
   23.130    2.1345
   23.145    2.1845
   23.160    2.2845
   23.175    2.2512
   23.190    2.2679
   23.205    2.3232
   23.220    2.3196
   23.235    2.4232
   23.250    2.3907
   23.265    2.3767
   23.280    2.3267
   23.295    2.2740
   23.310    2.1941
   23.325    2.1459
   23.340    2.1222
   23.355    2.0906
   23.370    2.0818
   23.385    2.0563
   23.400    2.0309
   23.415    2.0274
   23.430    2.0291
   23.445    2.1178
   23.460    2.0827
   23.475    2.0932
   23.490    2.0704
   23.505    2.0853
   23.520    2.1283
   23.535    2.1467
   23.550    2.1274
   23.565    2.1520
   23.580    2.1011
   23.595    2.0976
   23.610    2.1011
   23.625    2.1345
   23.640    2.1213
   23.655    2.0871
   23.670    2.0897
   23.685    2.1301
   23.700    2.0177
   23.715    2.1011
   23.730    2.0879
   23.745    2.0678
   23.760    2.0879
   23.775    2.0432
   23.790    2.0019
   23.805    2.0028
   23.820    2.1169
   23.835    2.1669
   23.850    2.1941
   23.865    2.3100
   23.880    2.3249
   23.895    2.4118
   23.910    2.3565
   23.925    2.3793
   23.940    2.3074
   23.955    2.2679
   23.970    2.2398
   23.985    2.2038
   24.000    2.1538
   24.015    2.1002
   24.030    2.0713
   24.045    2.0528
   24.060    2.0046
   24.075    2.0642
   24.090    2.0133
   24.105    2.0915
   24.120    2.0274
   24.135    2.0581
   24.150    2.0484
   24.165    2.0204
   24.180    2.0844
   24.195    2.0836
   24.210    2.0634
   24.225    2.0651
   24.240    2.0704
   24.255    2.0616
   24.270    2.0660
   24.285    2.0555
   24.300    2.0590
   24.315    2.0388
   24.330    2.0142
   24.345    2.0607
   24.360    2.0090
   24.375    2.0335
   24.390    1.9501
   24.405    1.9519
   24.420    1.9545
   24.435    2.0344
   24.450    2.0642
   24.465    2.0432
   24.480    2.0730
   24.495    2.0397
   24.510    2.0906
   24.525    2.1187
   24.540    2.0739
   24.555    2.1011
   24.570    2.0414
   24.585    2.1116
   24.600    2.0634
   24.615    2.0967
   24.630    2.0836
   24.645    1.9896
   24.660    2.0335
   24.675    2.0142
   24.690    1.9774
   24.705    1.9940
   24.720    1.9624
   24.735    2.0002
   24.750    1.9440
   24.765    1.9335
   24.780    1.9695
   24.795    2.0002
   24.810    2.0054
   24.825    2.0037
   24.840    2.0871
   24.855    2.0923
   24.870    2.1652
   24.885    2.0669
   24.900    2.0590
   24.915    2.0353
   24.930    2.0590
   24.945    2.0458
   24.960    2.0063
   24.975    2.0318
   24.990    2.0528
   25.005    2.0344
   25.020    2.0581
   25.035    2.0177
   25.050    2.0300
   25.065    2.0125
   25.080    2.0195
   25.095    1.9598
   25.110    2.0572
   25.125    2.0721
   25.140    2.1116
   25.155    2.1169
   25.170    2.0809
   25.185    2.0932
   25.200    2.0994
   25.215    2.0923
   25.230    2.1002
   25.245    2.1582
   25.260    2.0757
   25.275    2.0335
   25.290    1.9686
   25.305    2.0142
   25.320    1.9949
   25.335    1.9975
   25.350    1.9300
   25.365    1.9896
   25.380    2.0221
   25.395    2.0397
   25.410    1.9809
   25.425    2.0142
   25.440    2.0827
   25.455    2.0300
   25.470    2.0836
   25.485    2.1590
   25.500    2.1108
   25.515    2.1283
   25.530    2.0309
   25.545    2.0414
   25.560    2.0950
   25.575    2.0686
   25.590    2.0125
   25.605    2.0151
   25.620    2.0432
   25.635    2.0678
   25.650    1.9817
   25.665    1.9440
   25.680    1.9782
   25.695    2.0871
   25.710    2.1257
   25.725    2.1678
   25.740    2.3846
   25.755    2.4214
   25.770    2.6119
   25.785    2.7435
   25.800    2.7058
   25.815    2.7892
   25.830    2.6795
   25.845    2.6198
   25.860    2.5162
   25.875    2.4127
   25.890    2.2643
   25.905    2.2433
   25.920    2.1090
   25.935    2.0283
   25.950    2.0739
   25.965    2.0247
   25.980    2.0133
   25.995    1.9809
   26.010    2.0054
   26.025    2.0783
   26.040    2.0160
   26.055    1.9756
   26.070    2.0607
   26.085    2.0581
   26.100    1.9642
   26.115    1.9624
   26.130    2.0721
   26.145    2.1081
   26.160    2.0379
   26.175    2.0484
   26.190    2.0247
   26.205    2.0362
   26.220    1.9537
   26.235    1.9791
   26.250    1.9273
   26.265    1.9633
   26.280    1.8896
   26.295    2.0046
   26.310    1.9686
   26.325    2.0011
   26.340    1.9932
   26.355    2.1090
   26.370    2.1257
   26.385    2.1766
   26.400    2.1678
   26.415    2.1327
   26.430    2.2477
   26.445    2.1345
   26.460    2.1353
   26.475    2.1064
   26.490    2.0353
   26.505    2.0379
   26.520    1.9844
   26.535    1.9861
   26.550    2.0651
   26.565    1.9835
   26.580    1.9396
   26.595    1.9545
   26.610    1.9080
   26.625    1.9168
   26.640    1.9098
   26.655    1.9028
   26.670    1.9361
   26.685    1.9475
   26.700    1.8931
   26.715    1.9747
   26.730    1.9247
   26.745    1.8922
   26.760    1.9308
   26.775    1.9071
   26.790    1.8826
   26.805    1.8755
   26.820    1.9361
   26.835    1.9054
   26.850    1.9370
   26.865    1.9607
   26.880    1.9449
   26.895    1.9308
   26.910    2.0397
   26.925    2.0713
   26.940    2.0660
   26.955    2.1424
   26.970    2.2091
   26.985    2.2240
   27.000    2.2731
   27.015    2.2784
   27.030    2.3003
   27.045    2.2608
   27.060    2.1941
   27.075    2.1669
   27.090    2.0669
   27.105    1.9888
   27.120    1.9133
   27.135    1.9142
   27.150    1.8975
   27.165    1.8799
   27.180    1.9458
   27.195    1.9370
   27.210    1.8966
   27.225    1.9036
   27.240    1.9063
   27.255    1.9247
   27.270    1.8668
   27.285    1.9396
   27.300    1.9212
   27.315    1.9054
   27.330    1.8852
   27.345    1.8957
   27.360    1.9221
   27.375    1.9572
   27.390    1.8966
   27.405    1.8913
   27.420    1.8773
   27.435    1.8878
   27.450    1.8905
   27.465    1.8922
   27.480    1.8782
   27.495    1.9835
   27.510    2.0046
   27.525    1.9975
   27.540    2.0256
   27.555    2.0818
   27.570    2.1230
   27.585    2.0792
   27.600    2.1345
   27.615    2.0774
   27.630    2.1301
   27.645    2.0853
   27.660    2.1081
   27.675    1.9791
   27.690    1.9124
   27.705    1.8527
   27.720    1.8536
   27.735    1.9300
   27.750    1.8808
   27.765    1.8712
   27.780    1.9177
   27.795    1.9265
   27.810    1.9133
   27.825    1.9580
   27.840    1.9572
   27.855    1.9809
   27.870    1.9756
   27.885    1.9291
   27.900    1.9370
   27.915    1.9738
   27.930    1.9817
   27.945    1.9335
   27.960    1.9177
   27.975    1.9019
   27.990    1.9019
   28.005    1.9124
   28.020    1.9142
   28.035    1.9001
   28.050    1.9475
   28.065    1.9431
   28.080    2.0063
   28.095    2.0247
   28.110    2.1195
   28.125    2.1371
   28.140    2.1213
   28.155    2.1661
   28.170    2.1713
   28.185    2.1309
   28.200    2.2196
   28.215    2.1283
   28.230    2.0862
   28.245    2.0493
   28.260    1.9765
   28.275    1.9379
   28.290    1.8791
   28.305    1.8782
   28.320    1.8905
   28.335    1.8887
   28.350    1.9300
   28.365    1.9861
   28.380    2.0616
   28.395    2.0783
   28.410    2.1239
   28.425    2.1257
   28.440    2.1748
   28.455    2.1371
   28.470    2.1415
   28.485    2.1599
   28.500    2.0555
   28.515    2.0423
   28.530    1.9932
   28.545    1.9168
   28.560    1.8755
   28.575    1.8571
   28.590    1.8799
   28.605    1.9019
   28.620    1.8211
   28.635    1.7825
   28.650    1.8633
   28.665    1.9194
   28.680    1.8940
   28.695    1.8641
   28.710    1.8764
   28.725    1.8483
   28.740    1.7948
   28.755    1.8378
   28.770    1.8747
   28.785    1.8633
   28.800    1.8896
   28.815    1.8387
   28.830    1.8343
   28.845    1.8764
   28.860    1.8606
   28.875    1.8115
   28.890    1.8009
   28.905    1.8132
   28.920    1.8071
   28.935    1.8440
   28.950    1.8290
   28.965    1.8905
   28.980    1.9291
   28.995    1.9396
   29.010    1.9642
   29.025    1.8729
   29.040    1.8738
   29.055    1.8466
   29.070    1.8729
   29.085    1.8633
   29.100    1.8650
   29.115    1.8519
   29.130    1.8694
   29.145    1.9071
   29.160    1.9133
   29.175    1.8747
   29.190    1.8905
   29.205    1.9519
   29.220    1.9177
   29.235    2.0063
   29.250    1.9493
   29.265    2.0309
   29.280    2.0300
   29.295    2.0204
   29.310    2.0247
   29.325    2.0160
   29.340    1.9940
   29.355    1.9115
   29.370    1.8922
   29.385    1.8527
   29.400    1.7974
   29.415    1.8466
   29.430    1.8062
   29.445    1.8238
   29.460    1.7571
   29.475    1.8176
   29.490    1.8124
   29.505    1.7597
   29.520    1.8211
   29.535    1.7746
   29.550    1.8150
   29.565    1.7658
   29.580    1.8009
   29.595    1.8045
   29.610    1.8045
   29.625    1.6991
   29.640    1.7615
   29.655    1.7939
   29.670    1.7650
   29.685    1.7913
   29.700    1.7808
   29.715    1.8088
   29.730    1.8001
   29.745    1.8843
   29.760    1.8475
   29.775    1.8834
   29.790    1.9028
   29.805    1.9203
   29.820    1.8887
   29.835    1.8782
   29.850    1.8448
   29.865    1.8580
   29.880    1.9089
   29.895    1.8694
   29.910    1.8404
   29.925    1.8422
   29.940    1.7509
   29.955    1.7658
   29.970    1.8062
   29.985    1.8159
   30.000    1.8536
   30.015    1.8071
   30.030    1.8238
   30.045    1.8422
   30.060    1.8282
   30.075    1.8571
   30.090    1.8422
   30.105    1.8413
   30.120    1.8273
   30.135    1.7579
   30.150    1.7571
   30.165    1.7825
   30.180    1.8159
   30.195    1.7667
   30.210    1.7413
   30.225    1.7781
   30.240    1.7702
   30.255    1.8053
   30.270    1.8791
   30.285    1.8299
   30.300    1.8185
   30.315    1.8440
   30.330    1.8167
   30.345    1.8519
   30.360    1.8317
   30.375    1.8510
   30.390    1.8150
   30.405    1.8001
   30.420    1.7667
   30.435    1.7887
   30.450    1.7764
   30.465    1.7149
   30.480    1.7623
   30.495    1.7860
   30.510    1.7658
   30.525    1.8071
   30.540    1.8255
   30.555    1.8246
   30.570    1.8097
   30.585    1.8589
   30.600    1.8615
   30.615    1.8053
   30.630    1.8317
   30.645    1.8308
   30.660    1.8492
   30.675    1.8141
   30.690    1.8334
   30.705    1.7571
   30.720    1.7483
   30.735    1.7500
   30.750    1.7500
   30.765    1.7246
   30.780    1.7316
   30.795    1.7079
   30.810    1.7404
   30.825    1.7571
   30.840    1.7316
   30.855    1.7413
   30.870    1.7843
   30.885    1.7325
   30.900    1.7263
   30.915    1.7149
   30.930    1.7360
   30.945    1.7843
   30.960    1.7299
   30.975    1.6965
   30.990    1.7246
   31.005    1.6447
   31.020    1.6430
   31.035    1.6869
   31.050    1.6596
   31.065    1.7176
   31.080    1.7009
   31.095    1.6895
   31.110    1.7465
   31.125    1.7079
   31.140    1.6482
   31.155    1.7211
   31.170    1.7263
   31.185    1.7088
   31.200    1.6956
   31.215    1.7220
   31.230    1.6948
   31.245    1.7149
   31.260    1.6605
   31.275    1.7220
   31.290    1.6684
   31.305    1.7211
   31.320    1.7676
   31.335    1.7413
   31.350    1.7378
   31.365    1.7843
   31.380    1.8361
   31.395    1.8238
   31.410    1.8334
   31.425    1.7746
   31.440    1.7202
   31.455    1.7615
   31.470    1.7035
   31.485    1.7193
   31.500    1.7105
   31.515    1.7378
   31.530    1.7457
   31.545    1.6895
   31.560    1.7158
   31.575    1.6939
   31.590    1.7018
   31.605    1.6711
   31.620    1.7018
   31.635    1.7290
   31.650    1.7299
   31.665    1.7571
   31.680    1.6421
   31.695    1.6833
   31.710    1.6877
   31.725    1.6825
   31.740    1.6877
   31.755    1.6921
   31.770    1.7167
   31.785    1.7220
   31.800    1.6948
   31.815    1.6667
   31.830    1.7070
   31.845    1.6719
   31.860    1.6816
   31.875    1.7606
   31.890    1.7623
   31.905    1.7263
   31.920    1.7088
   31.935    1.6991
   31.950    1.7027
   31.965    1.7193
   31.980    1.6377
   31.995    1.6140
   32.010    1.6658
   32.025    1.6368
   32.040    1.6948
   32.055    1.6842
   32.070    1.6070
   32.085    1.6210
   32.100    1.6816
   32.115    1.7141
   32.130    1.6965
   32.145    1.7184
   32.160    1.6886
   32.175    1.6447
   32.190    1.6438
   32.205    1.6228
   32.220    1.6570
   32.235    1.6886
   32.250    1.6316
   32.265    1.6307
   32.280    1.6798
   32.295    1.6877
   32.310    1.6070
   32.325    1.6377
   32.340    1.6491
   32.355    1.6351
   32.370    1.6316
   32.385    1.6632
   32.400    1.6816
   32.415    1.6772
   32.430    1.5868
   32.445    1.6052
   32.460    1.6237
   32.475    1.5561
   32.490    1.6123
   32.505    1.6412
   32.520    1.6000
   32.535    1.5947
   32.550    1.5798
   32.565    1.6087
   32.580    1.5315
   32.595    1.5886
   32.610    1.6131
   32.625    1.6377
   32.640    1.6640
   32.655    1.6719
   32.670    1.6298
   32.685    1.6561
   32.700    1.6500
   32.715    1.5903
   32.730    1.6395
   32.745    1.6640
   32.760    1.5649
   32.775    1.5728
   32.790    1.6096
   32.805    1.6210
   32.820    1.6544
   32.835    1.6447
   32.850    1.6561
   32.865    1.7027
   32.880    1.7632
   32.895    1.7009
   32.910    1.6588
   32.925    1.7176
   32.940    1.7465
   32.955    1.7044
   32.970    1.5710
   32.985    1.5438
   33.000    1.6307
   33.015    1.6000
   33.030    1.5157
   33.045    1.5561
   33.060    1.5929
   33.075    1.5578
   33.090    1.4455
   33.105    1.5543
   33.120    1.5613
   33.135    1.5341
   33.150    1.5298
   33.165    1.5657
   33.180    1.5728
   33.195    1.5385
   33.210    1.5298
   33.225    1.5043
   33.240    1.5034
   33.255    1.4973
   33.270    1.5613
   33.285    1.5350
   33.300    1.5315
   33.315    1.5078
   33.330    1.5298
   33.345    1.5719
   33.360    1.5368
   33.375    1.5596
   33.390    1.5175
   33.405    1.4674
   33.420    1.5385
   33.435    1.5613
   33.450    1.5675
   33.465    1.5473
   33.480    1.4657
   33.495    1.4920
   33.510    1.5587
   33.525    1.5280
   33.540    1.5420
   33.555    1.5394
   33.570    1.5254
   33.585    1.5517
   33.600    1.5394
   33.615    1.5666
   33.630    1.5377
   33.645    1.5341
   33.660    1.5175
   33.675    1.5315
   33.690    1.5166
   33.705    1.5447
   33.720    1.5412
   33.735    1.5508
   33.750    1.5912
   33.765    1.5578
   33.780    1.5894
   33.795    1.6044
   33.810    1.5886
   33.825    1.6193
   33.840    1.6526
   33.855    1.6412
   33.870    1.6412
   33.885    1.6869
   33.900    1.6886
   33.915    1.6614
   33.930    1.6245
   33.945    1.6096
   33.960    1.5368
   33.975    1.5227
   33.990    1.5508
   34.005    1.5210
   34.020    1.4631
   34.035    1.5280
   34.050    1.5306
   34.065    1.5578
   34.080    1.5096
   34.095    1.5508
   34.110    1.5341
   34.125    1.5412
   34.140    1.5517
   34.155    1.5210
   34.170    1.5078
   34.185    1.4859
   34.200    1.4674
   34.215    1.4639
   34.230    1.4692
   34.245    1.4455
   34.260    1.5201
   34.275    1.4788
   34.290    1.5078
   34.305    1.4350
   34.320    1.4288
   34.335    1.4376
   34.350    1.4376
   34.365    1.4543
   34.380    1.4867
   34.395    1.4473
   34.410    1.5017
   34.425    1.4999
   34.440    1.4622
   34.455    1.4666
   34.470    1.4358
   34.485    1.3893
   34.500    1.4420
   34.515    1.4622
   34.530    1.4701
   34.545    1.4297
   34.560    1.4622
   34.575    1.5271
   34.590    1.4534
   34.605    1.4499
   34.620    1.4429
   34.635    1.4604
   34.650    1.4236
   34.665    1.4464
   34.680    1.4341
   34.695    1.4657
   34.710    1.4692
   34.725    1.4841
   34.740    1.4490
   34.755    1.4876
   34.770    1.4999
   34.785    1.4832
   34.800    1.5061
   34.815    1.5122
   34.830    1.4815
   34.845    1.5069
   34.860    1.5245
   34.875    1.4762
   34.890    1.5052
   34.905    1.4745
   34.920    1.4402
   34.935    1.3885
   34.950    1.4104
   34.965    1.4078
   34.980    1.3902
   34.995    1.3542
   35.010    1.3709
   35.025    1.4042
   35.040    1.3876
   35.055    1.3577
   35.070    1.4446
   35.085    1.4034
   35.100    1.3823
   35.115    1.4332
   35.130    1.4455
   35.145    1.4481
   35.160    1.3744
   35.175    1.4218
   35.190    1.4183
   35.205    1.4007
   35.220    1.4437
   35.235    1.4490
   35.250    1.3806
   35.265    1.3867
   35.280    1.3700
   35.295    1.3735
   35.310    1.3920
   35.325    1.4358
   35.340    1.4385
   35.355    1.4034
   35.370    1.3762
   35.385    1.4051
   35.400    1.3814
   35.415    1.3981
   35.430    1.4236
   35.445    1.4297
   35.460    1.3709
   35.475    1.3674
   35.490    1.3849
   35.505    1.4341
   35.520    1.3858
   35.535    1.3876
   35.550    1.3437
   35.565    1.3779
   35.580    1.3683
   35.595    1.3200
   35.610    1.3955
   35.625    1.3744
   35.640    1.3621
   35.655    1.4016
   35.670    1.3691
   35.685    1.3656
   35.700    1.4674
   35.715    1.4271
   35.730    1.4253
   35.745    1.4306
   35.760    1.3832
   35.775    1.4200
   35.790    1.3902
   35.805    1.3744
   35.820    1.3735
   35.835    1.3656
   35.850    1.4104
   35.865    1.4165
   35.880    1.4078
   35.895    1.3630
   35.910    1.3691
   35.925    1.3797
   35.940    1.3727
   35.955    1.3937
   35.970    1.4060
   35.985    1.3621
   36.000    1.3946
   36.015    1.4209
   36.030    1.4007
   36.045    1.3604
   36.060    1.3735
   36.075    1.3648
   36.090    1.3621
   36.105    1.3437
   36.120    1.3279
   36.135    1.3428
   36.150    1.3314
   36.165    1.4420
   36.180    1.4060
   36.195    1.4358
   36.210    1.4095
   36.225    1.3920
   36.240    1.3367
   36.255    1.3446
   36.270    1.3261
   36.285    1.3779
   36.300    1.3674
   36.315    1.3261
   36.330    1.3639
   36.345    1.3411
   36.360    1.3200
   36.375    1.3762
   36.390    1.3375
   36.405    1.3516
   36.420    1.3446
   36.435    1.3946
   36.450    1.3340
   36.465    1.3165
   36.480    1.3393
   36.495    1.3007
   36.510    1.3086
   36.525    1.3314
   36.540    1.3665
   36.555    1.3542
   36.570    1.3779
   36.585    1.3779
   36.600    1.3454
   36.615    1.3349
   36.630    1.3217
   36.645    1.3630
   36.660    1.3621
   36.675    1.3744
   36.690    1.3209
   36.705    1.3498
   36.720    1.3516
   36.735    1.3103
   36.750    1.3393
   36.765    1.3569
   36.780    1.3226
   36.795    1.3016
   36.810    1.2928
   36.825    1.2796
   36.840    1.2682
   36.855    1.2928
   36.870    1.2814
   36.885    1.2638
   36.900    1.2787
   36.915    1.2787
   36.930    1.2199
   36.945    1.2647
   36.960    1.3332
   36.975    1.3990
   36.990    1.3560
   37.005    1.3876
   37.020    1.3841
   37.035    1.3718
   37.050    1.3744
   37.065    1.4543
   37.080    1.4358
   37.095    1.4358
   37.110    1.4104
   37.125    1.3999
   37.140    1.4034
   37.155    1.3963
   37.170    1.4209
   37.185    1.4025
   37.200    1.3261
   37.215    1.2972
   37.230    1.3103
   37.245    1.3007
   37.260    1.2963
   37.275    1.2937
   37.290    1.2954
   37.305    1.2937
   37.320    1.3244
   37.335    1.2445
   37.350    1.2498
   37.365    1.2252
   37.380    1.2665
   37.395    1.3174
   37.410    1.2559
   37.425    1.3095
   37.440    1.3103
   37.455    1.2963
   37.470    1.2823
   37.485    1.3086
   37.500    1.3525
   37.515    1.3226
   37.530    1.3060
   37.545    1.3051
   37.560    1.3130
   37.575    1.3288
   37.590    1.2998
   37.605    1.3024
   37.620    1.3147
   37.635    1.2963
   37.650    1.3182
   37.665    1.3191
   37.680    1.2963
   37.695    1.2708
   37.710    1.3121
   37.725    1.3454
   37.740    1.3437
   37.755    1.3507
   37.770    1.3060
   37.785    1.2945
   37.800    1.2875
   37.815    1.2507
   37.830    1.3112
   37.845    1.2752
   37.860    1.2761
   37.875    1.3007
   37.890    1.2884
   37.905    1.3007
   37.920    1.3191
   37.935    1.2910
   37.950    1.3007
   37.965    1.3174
   37.980    1.3419
   37.995    1.2893
   38.010    1.2366
   38.025    1.3463
   38.040    1.2963
   38.055    1.2454
   38.070    1.2647
   38.085    1.2954
   38.100    1.2612
   38.115    1.2436
   38.130    1.2419
   38.145    1.2831
   38.160    1.2954
   38.175    1.2586
   38.190    1.2638
   38.205    1.2489
   38.220    1.2287
   38.235    1.2392
   38.250    1.2296
   38.265    1.2761
   38.280    1.2322
   38.295    1.2463
   38.310    1.2436
   38.325    1.2278
   38.340    1.2735
   38.355    1.2366
   38.370    1.2858
   38.385    1.2515
   38.400    1.2796
   38.415    1.2533
   38.430    1.2638
   38.445    1.2498
   38.460    1.2515
   38.475    1.2507
   38.490    1.2489
   38.505    1.2419
   38.520    1.2691
   38.535    1.2313
   38.550    1.2375
   38.565    1.2489
   38.580    1.2313
   38.595    1.1682
   38.610    1.1954
   38.625    1.1892
   38.640    1.1962
   38.655    1.2401
   38.670    1.2366
   38.685    1.2226
   38.700    1.2542
   38.715    1.2647
   38.730    1.2296
   38.745    1.2199
   38.760    1.2471
   38.775    1.2445
   38.790    1.2138
   38.805    1.2191
   38.820    1.2603
   38.835    1.2507
   38.850    1.2191
   38.865    1.2296
   38.880    1.2322
   38.895    1.2235
   38.910    1.2059
   38.925    1.2191
   38.940    1.2208
   38.955    1.1866
   38.970    1.1743
   38.985    1.2471
   39.000    1.2910
   39.015    1.2173
   39.030    1.1962
   39.045    1.2199
   39.060    1.1945
   39.075    1.2006
   39.090    1.1541
   39.105    1.1998
   39.120    1.2559
   39.135    1.2682
   39.150    1.2094
   39.165    1.2059
   39.180    1.2823
   39.195    1.2471
   39.210    1.2726
   39.225    1.2831
   39.240    1.2243
   39.255    1.2392
   39.270    1.2831
   39.285    1.2594
   39.300    1.2849
   39.315    1.2533
   39.330    1.2349
   39.345    1.2331
   39.360    1.2577
   39.375    1.2068
   39.390    1.1585
   39.405    1.2392
   39.420    1.1980
   39.435    1.2392
   39.450    1.2120
   39.465    1.2577
   39.480    1.1778
   39.495    1.1761
   39.510    1.2305
   39.525    1.2568
   39.540    1.1927
   39.555    1.2428
   39.570    1.2480
   39.585    1.2568
   39.600    1.2384
   39.615    1.2568
   39.630    1.2691
   39.645    1.2761
   39.660    1.2691
   39.675    1.2313
   39.690    1.2313
   39.705    1.2270
   39.720    1.1866
   39.735    1.2270
   39.750    1.2410
   39.765    1.2436
   39.780    1.2366
   39.795    1.1945
   39.810    1.1541
   39.825    1.2085
   39.840    1.2392
   39.855    1.2182
   39.870    1.2673
   39.885    1.2068
   39.900    1.2191
   39.915    1.2542
   39.930    1.2621
   39.945    1.2173
   39.960    1.2059
   39.975    1.2454
   39.990    1.2708
