    1.500   21.2217
    1.515   21.0988
    1.530   21.3446
    1.545   20.2036
    1.560   19.8701
    1.575   20.3967
    1.590   19.6244
    1.605   19.3435
    1.620   18.2552
    1.635   18.4834
    1.650   18.2903
    1.665   18.3605
    1.680   18.1850
    1.695   17.4478
    1.710   16.9036
    1.725   17.3425
    1.740   17.5882
    1.755   16.6754
    1.770   17.1669
    1.785   16.4121
    1.800   15.9031
    1.815   15.9031
    1.830   16.2366
    1.845   15.8504
    1.860   14.9728
    1.875   15.5169
    1.890   16.2717
    1.905   15.5696
    1.920   14.4989
    1.935   14.5515
    1.950   14.5691
    1.965   14.4813
    1.980   14.8675
    1.995   14.9026
    2.010   13.7616
    2.025   13.6914
    2.040   14.2005
    2.055   13.4106
    2.070   13.6739
    2.085   13.7616
    2.100   13.6388
    2.115   13.5159
    2.130   13.7967
    2.145   13.9372
    2.160   13.2877
    2.175   14.2707
    2.190   13.6212
    2.205   13.4106
    2.220   13.0244
    2.235   13.5159
    2.250   12.7611
    2.265   12.1643
    2.280   12.4978
    2.295   13.5159
    2.310   13.1297
    2.325   12.4100
    2.340   12.4978
    2.355   12.6733
    2.370   13.0771
    2.385   12.8840
    2.400   13.3228
    2.415   13.2877
    2.430   13.1473
    2.445   12.9542
    2.460   13.6388
    2.475   13.1473
    2.490   12.8489
    2.505   13.2175
    2.520   13.5334
    2.535   13.9723
    2.550   13.1122
    2.565   13.2877
    2.580   12.8664
    2.595   13.4632
    2.610   14.5691
    2.625   13.3052
    2.640   13.0068
    2.655   13.6212
    2.670   13.9372
    2.685   14.6042
    2.700   14.3233
    2.715   14.2005
    2.730   14.0249
    2.745   14.4638
    2.760   14.8324
    2.775   14.3233
    2.790   14.4989
    2.805   14.6744
    2.820   14.8148
    2.835   15.5520
    2.850   15.6574
    2.865   15.3063
    2.880   15.5696
    2.895   16.0786
    2.910   15.4292
    2.925   16.6052
    2.940   16.9914
    2.955   17.0967
    2.970   17.4829
    2.985   18.3956
    3.000   18.7994
    3.015   18.7818
    3.030   19.1153
    3.045   18.9925
    3.060   19.1329
    3.075   19.8701
    3.090   19.6595
    3.105   20.0105
    3.120   20.8531
    3.135   21.2568
    3.150   22.2047
    3.165   21.8536
    3.180   22.0116
    3.195   22.2222
    3.210   23.4685
    3.225   23.8547
    3.240   24.5743
    3.255   25.9259
    3.270   26.2945
    3.285   27.4530
    3.300   27.2951
    3.315   29.4365
    3.330   29.2435
    3.345   29.3488
    3.360   30.7706
    3.375   31.7360
    3.390   33.0700
    3.405   33.8248
    3.420   34.7551
    3.435   35.7908
    3.450   37.0546
    3.465   38.9328
    3.480   39.9860
    3.495   40.9514
    3.510   42.9700
    3.525   44.1109
    3.540   46.2875
    3.555   48.1306
    3.570   51.0444
    3.585   52.4662
    3.600   54.1162
    3.615   58.3992
    3.630   61.6816
    3.645   65.6135
    3.660   68.6502
    3.675   74.5831
    3.690   77.9182
    3.705   84.0793
    3.720   88.9942
    3.735   95.5240
    3.750  105.1957
    3.765  115.5696
    3.780  130.4195
    3.795  149.8859
    3.810  176.6368
    3.825  198.2096
    3.840  204.5112
    3.855  190.1703
    3.870  161.0672
    3.885  119.2031
    3.900   74.3198
    3.915   42.3205
    3.930   23.2052
    3.945   15.9382
    3.960   12.7962
    3.975   11.0233
    3.990   10.0228
    4.005   10.0228
    4.020    9.7244
    4.035    8.8117
    4.050    8.5133
    4.065    8.5484
    4.080    7.7409
    4.095    7.8111
    4.110    8.0920
    4.125    8.0744
    4.140    7.7409
    4.155    7.9164
    4.170    7.7058
    4.185    7.3547
    4.200    7.4074
    4.215    7.6005
    4.230    7.7760
    4.245    7.1968
    4.260    6.4771
    4.275    7.3899
    4.290    7.0212
    4.305    7.1266
    4.320    7.4952
    4.335    7.1968
    4.350    7.2670
    4.365    7.2319
    4.380    6.8106
    4.395    6.5473
    4.410    7.4601
    4.425    6.8808
    4.440    6.9159
    4.455    7.1090
    4.470    6.6877
    4.485    6.5824
    4.500    7.1441
    4.515    7.0037
    4.530    6.9335
    4.545    6.9335
    4.560    7.0388
    4.575    6.4595
    4.590    6.6877
    4.605    6.5824
    4.620    7.1090
    4.635    7.1617
    4.650    6.8457
    4.665    7.0388
    4.680    7.1968
    4.695    7.1266
    4.710    6.7755
    4.725    7.3723
    4.740    7.4425
    4.755    7.1792
    4.770    7.3372
    4.785    7.4601
    4.800    7.2494
    4.815    7.2845
    4.830    7.2670
    4.845    7.2845
    4.860    7.4776
    4.875    8.1622
    4.890    8.1446
    4.905    8.2675
    4.920    7.7936
    4.935    8.1095
    4.950    8.0744
    4.965    7.9691
    4.980    8.0218
    4.995    7.9516
    5.010    8.6712
    5.025    8.2675
    5.040    8.4957
    5.055    8.7063
    5.070    9.0750
    5.085    8.9696
    5.100    9.0223
    5.115    9.6718
    5.130    9.7420
    5.145    9.5489
    5.160   10.1281
    5.175   10.7249
    5.190   10.7074
    5.205   11.4622
    5.220   12.0590
    5.235   11.9361
    5.250   12.0239
    5.265   12.0941
    5.280   12.8840
    5.295   14.0249
    5.310   14.0600
    5.325   14.5866
    5.340   15.5520
    5.355   16.6052
    5.370   17.4302
    5.385   19.4664
    5.400   21.0286
    5.415   24.2584
    5.430   27.9621
    5.445   30.4722
    5.460   32.1924
    5.475   30.6126
    5.490   27.2424
    5.505   21.7834
    5.520   16.3244
    5.535   11.2691
    5.550    8.7063
    5.565    6.8106
    5.580    6.7228
    5.595    6.5122
    5.610    6.5298
    5.625    6.6702
    5.640    5.9505
    5.655    5.7048
    5.670    5.7574
    5.685    6.2138
    5.700    6.2665
    5.715    5.8978
    5.730    5.4766
    5.745    6.0734
    5.760    5.8101
    5.775    6.1611
    5.790    5.8627
    5.805    5.8276
    5.820    6.4946
    5.835    6.1085
    5.850    6.1436
    5.865    6.0734
    5.880    6.1085
    5.895    6.1260
    5.910    6.1085
    5.925    5.6697
    5.940    5.8452
    5.955    5.5117
    5.970    6.0032
    5.985    6.0032
    6.000    5.9856
    6.015    6.3718
    6.030    5.5819
    6.045    6.0734
    6.060    6.0383
    6.075    6.0032
    6.090    5.9681
    6.105    5.7750
    6.120    5.7574
    6.135    5.5468
    6.150    6.6526
    6.165    6.1085
    6.180    5.5819
    6.195    5.8101
    6.210    6.1436
    6.225    6.6000
    6.240    6.3718
    6.255    6.7930
    6.270    6.9335
    6.285    6.0207
    6.300    6.0734
    6.315    6.4771
    6.330    6.3016
    6.345    6.5649
    6.360    5.8627
    6.375    6.0032
    6.390    6.6877
    6.405    5.6872
    6.420    6.4069
    6.435    6.5649
    6.450    6.9510
    6.465    6.6702
    6.480    6.8984
    6.495    6.7053
    6.510    6.9686
    6.525    7.0915
    6.540    6.9159
    6.555    7.6707
    6.570    8.1446
    6.585    7.8638
    6.600    7.7760
    6.615    7.8989
    6.630    8.4255
    6.645    9.2680
    6.660   10.0404
    6.675   10.6547
    6.690   11.5324
    6.705   11.4271
    6.720   10.5319
    6.735   10.4792
    6.750    9.3207
    6.765    8.2500
    6.780    6.8457
    6.795    6.6526
    6.810    5.8276
    6.825    5.8978
    6.840    5.8452
    6.855    5.7399
    6.870    5.9856
    6.885    5.4941
    6.900    6.0383
    6.915    5.8803
    6.930    5.6872
    6.945    5.9681
    6.960    6.0909
    6.975    6.0032
    6.990    5.8101
    7.005    6.0558
    7.020    6.2665
    7.035    6.0383
    7.050    6.1260
    7.065    6.1260
    7.080    5.7750
    7.095    5.8276
    7.110    6.1436
    7.125    5.4064
    7.140    6.0207
    7.155    6.2489
    7.170    6.3367
    7.185    5.2484
    7.200    5.5292
    7.215    5.4239
    7.230    5.7223
    7.245    6.1436
    7.260    5.8101
    7.275    5.9329
    7.290    6.1085
    7.305    6.0909
    7.320    6.3016
    7.335    6.3718
    7.350    6.4595
    7.365    6.0558
    7.380    5.7750
    7.395    6.5122
    7.410    6.0032
    7.425    5.9681
    7.440    6.1260
    7.455    6.0909
    7.470    5.8803
    7.485    6.3191
    7.500    6.6877
    7.515    6.5649
    7.530    6.6702
    7.545    6.8808
    7.560    6.9510
    7.575    7.4601
    7.590    7.3372
    7.605    7.6532
    7.620    7.6532
    7.635    7.3899
    7.650    7.6707
    7.665    8.7590
    7.680    9.5664
    7.695   10.6021
    7.710   10.3563
    7.725   11.4973
    7.740   12.4627
    7.755   12.6382
    7.770   12.7260
    7.785   12.3047
    7.800   10.3212
    7.815    9.4436
    7.830    7.6532
    7.845    6.3718
    7.860    5.8452
    7.875    5.5994
    7.890    5.5292
    7.905    5.3186
    7.920    5.4941
    7.935    5.6345
    7.950    5.8452
    7.965    5.7574
    7.980    5.8452
    7.995    5.6872
    8.010    5.5117
    8.025    5.2308
    8.040    5.5468
    8.055    5.6170
    8.070    5.5468
    8.085    6.0909
    8.100    5.5117
    8.115    5.9856
    8.130    5.7750
    8.145    5.6521
    8.160    5.0904
    8.175    5.4064
    8.190    5.5117
    8.205    5.4415
    8.220    5.6697
    8.235    5.5468
    8.250    5.5468
    8.265    5.6521
    8.280    5.1782
    8.295    5.2659
    8.310    5.4239
    8.325    5.7750
    8.340    5.7750
    8.355    5.7048
    8.370    5.3888
    8.385    5.3186
    8.400    5.4941
    8.415    5.3010
    8.430    5.5292
    8.445    5.6697
    8.460    5.9681
    8.475    5.7399
    8.490    6.4069
    8.505    6.4420
    8.520    6.0558
    8.535    6.0032
    8.550    6.4244
    8.565    6.0909
    8.580    5.6170
    8.595    6.1085
    8.610    6.0734
    8.625    5.8978
    8.640    6.1260
    8.655    6.2665
    8.670    6.4069
    8.685    6.4595
    8.700    6.6175
    8.715    6.1085
    8.730    6.1787
    8.745    5.9681
    8.760    6.1260
    8.775    5.6872
    8.790    5.4415
    8.805    5.8803
    8.820    5.6521
    8.835    5.8452
    8.850    6.0032
    8.865    5.3888
    8.880    5.5994
    8.895    5.6697
    8.910    5.7048
    8.925    5.7399
    8.940    5.3888
    8.955    5.4590
    8.970    5.7399
    8.985    5.8803
    9.000    6.0558
    9.015    5.9329
    9.030    5.7048
    9.045    5.9154
    9.060    6.2313
    9.075    5.8452
    9.090    6.2665
    9.105    6.6000
    9.120    6.2489
    9.135    6.6877
    9.150    6.3542
    9.165    6.3893
    9.180    6.5824
    9.195    6.5298
    9.210    6.8808
    9.225    7.1968
    9.240    7.6707
    9.255    6.7755
    9.270    6.6702
    9.285    7.5303
    9.300    7.5478
    9.315    8.4255
    9.330    8.9872
    9.345    9.3909
    9.360    9.6015
    9.375   10.4792
    9.390   10.6372
    9.405   11.7606
    9.420   12.7787
    9.435   13.3228
    9.450   14.8850
    9.465   17.2898
    9.480   19.5893
    9.495   22.5557
    9.510   24.1531
    9.525   24.5041
    9.540   22.5908
    9.555   20.1159
    9.570   16.8861
    9.585   12.8664
    9.600    9.1627
    9.615    7.2494
    9.630    6.3893
    9.645    5.9681
    9.660    6.1787
    9.675    5.5292
    9.690    5.7399
    9.705    6.0558
    9.720    5.7048
    9.735    5.6345
    9.750    5.6170
    9.765    5.5468
    9.780    5.5117
    9.795    5.9505
    9.810    5.6170
    9.825    5.3010
    9.840    5.4766
    9.855    5.4064
    9.870    5.7399
    9.885    5.2835
    9.900    5.5117
    9.915    5.8803
    9.930    5.9505
    9.945    5.8978
    9.960    5.8101
    9.975    5.9329
    9.990    6.0909
   10.005    6.7053
   10.020    6.1260
   10.035    6.2840
   10.050    5.9154
   10.065    6.5122
   10.080    6.7404
   10.095    7.1266
   10.110    7.2670
   10.125    7.0915
   10.140    7.1792
   10.155    7.5303
   10.170    7.3196
   10.185    7.6883
   10.200    8.4430
   10.215    9.1627
   10.230    9.6015
   10.245   10.3388
   10.260   11.9537
   10.275   12.5856
   10.290   13.4457
   10.305   12.4978
   10.320   11.8659
   10.335   10.1457
   10.350    8.2851
   10.365    7.3547
   10.380    6.7228
   10.395    6.0909
   10.410    5.8803
   10.425    5.6345
   10.440    5.4415
   10.455    5.2308
   10.470    5.3712
   10.485    5.4415
   10.500    5.6872
   10.515    5.5819
   10.530    5.8101
   10.545    5.3361
   10.560    5.3361
   10.575    5.1957
   10.590    5.0377
   10.605    5.5819
   10.620    5.3361
   10.635    5.3537
   10.650    5.6170
   10.665    5.4239
   10.680    5.7048
   10.695    6.0032
   10.710    5.8627
   10.725    5.8101
   10.740    5.5994
   10.755    6.4420
   10.770    6.1260
   10.785    5.6521
   10.800    5.5468
   10.815    5.9505
   10.830    6.0032
   10.845    6.0207
   10.860    6.7404
   10.875    7.1968
   10.890    7.0388
   10.905    7.1968
   10.920    7.4952
   10.935    8.3202
   10.950    8.4255
   10.965    8.7239
   10.980    9.5840
   10.995   10.8829
   11.010   11.3042
   11.025   10.8829
   11.040   10.5319
   11.055    9.2856
   11.070    7.7936
   11.085    6.7228
   11.100    6.3542
   11.115    6.0207
   11.130    5.6697
   11.145    5.4064
   11.160    5.3712
   11.175    5.5468
   11.190    5.3361
   11.205    5.3010
   11.220    5.4590
   11.235    5.5994
   11.250    4.9149
   11.265    5.0728
   11.280    5.2484
   11.295    5.4941
   11.310    5.3888
   11.325    5.5994
   11.340    5.6697
   11.355    5.1782
   11.370    4.8973
   11.385    5.1431
   11.400    5.2659
   11.415    5.8452
   11.430    5.7223
   11.445    5.3186
   11.460    5.4239
   11.475    5.9505
   11.490    6.1436
   11.505    6.4771
   11.520    6.4595
   11.535    6.7053
   11.550    7.1617
   11.565    7.1266
   11.580    7.6180
   11.595    7.7760
   11.610    8.5484
   11.625    9.4436
   11.640    9.4787
   11.655   10.5845
   11.670   11.1462
   11.685   10.6372
   11.700   11.6553
   11.715   11.1813
   11.730    9.1627
   11.745    8.3728
   11.760    7.5829
   11.775    6.0734
   11.790    5.6872
   11.805    5.1782
   11.820    5.4766
   11.835    5.5643
   11.850    5.2835
   11.865    5.5819
   11.880    4.7920
   11.895    4.9851
   11.910    5.1782
   11.925    5.2133
   11.940    5.2308
   11.955    5.2835
   11.970    5.5117
   11.985    5.4415
   12.000    5.0728
   12.015    5.4590
   12.030    5.1255
   12.045    5.1080
   12.060    5.0026
   12.075    5.1431
   12.090    5.2308
   12.105    5.4239
   12.120    5.3712
   12.135    5.2308
   12.150    4.8271
   12.165    5.2133
   12.180    5.1255
   12.195    5.4590
   12.210    5.4941
   12.225    5.3361
   12.240    5.6697
   12.255    5.7048
   12.270    5.8803
   12.285    5.8978
   12.300    5.7048
   12.315    5.5994
   12.330    6.0909
   12.345    6.1611
   12.360    5.6170
   12.375    5.3712
   12.390    5.3361
   12.405    5.6170
   12.420    5.4941
   12.435    5.4239
   12.450    5.1782
   12.465    5.0377
   12.480    5.2484
   12.495    5.3186
   12.510    5.4239
   12.525    5.1080
   12.540    5.1080
   12.555    5.0377
   12.570    5.4941
   12.585    5.2308
   12.600    5.5643
   12.615    5.3186
   12.630    5.3186
   12.645    5.5643
   12.660    5.4415
   12.675    5.4941
   12.690    5.9329
   12.705    6.2665
   12.720    5.5117
   12.735    5.7925
   12.750    6.1962
   12.765    6.2665
   12.780    6.8106
   12.795    6.3016
   12.810    6.6351
   12.825    7.1792
   12.840    7.2494
   12.855    7.6883
   12.870    7.5654
   12.885    8.2500
   12.900    9.9877
   12.915   10.4441
   12.930   10.8654
   12.945   10.7249
   12.960    9.3382
   12.975    8.9696
   12.990    7.9691
   13.005    6.8633
   13.020    6.1611
   13.035    5.9329
   13.050    6.0207
   13.065    6.1085
   13.080    5.1255
   13.095    5.0904
   13.110    5.0728
   13.125    4.8271
   13.140    4.7393
   13.155    5.1606
   13.170    5.2835
   13.185    5.2308
   13.200    5.1431
   13.215    5.4590
   13.230    5.3712
   13.245    5.2659
   13.260    5.1782
   13.275    4.9851
   13.290    5.4766
   13.305    5.2835
   13.320    5.5819
   13.335    5.5643
   13.350    5.3537
   13.365    5.3186
   13.380    5.9681
   13.395    5.6872
   13.410    5.7574
   13.425    5.9681
   13.440    6.0383
   13.455    6.5122
   13.470    7.3372
   13.485    7.4425
   13.500    7.8813
   13.515    8.1271
   13.530    7.3196
   13.545    7.1617
   13.560    6.7404
   13.575    6.5298
   13.590    6.0558
   13.605    5.0904
   13.620    5.1080
   13.635    5.3010
   13.650    5.0553
   13.665    5.4415
   13.680    5.2835
   13.695    5.2659
   13.710    4.9675
   13.725    5.0904
   13.740    4.9675
   13.755    5.3186
   13.770    5.1782
   13.785    5.5117
   13.800    4.9675
   13.815    5.0377
   13.830    5.5292
   13.845    5.5117
   13.860    5.2484
   13.875    5.7750
   13.890    5.4415
   13.905    5.5819
   13.920    5.7223
   13.935    6.0909
   13.950    6.2489
   13.965    6.3367
   13.980    6.1611
   13.995    6.3367
   14.010    6.6702
   14.025    7.1090
   14.040    7.5127
   14.055    7.8111
   14.070    8.4430
   14.085    8.2324
   14.100    7.8111
   14.115    7.3547
   14.130    6.8984
   14.145    5.7925
   14.160    5.6170
   14.175    5.5117
   14.190    5.1957
   14.205    5.2133
   14.220    5.0553
   14.235    5.2659
   14.250    5.3888
   14.265    5.4766
   14.280    5.3361
   14.295    5.3712
   14.310    4.9675
   14.325    4.5287
   14.340    4.9675
   14.355    5.1080
   14.370    5.6345
   14.385    5.5468
   14.400    4.5638
   14.415    4.3181
   14.430    4.6340
   14.445    5.0377
   14.460    4.6691
   14.475    4.7744
   14.490    5.2484
   14.505    5.2484
   14.520    5.1080
   14.535    5.3010
   14.550    5.2308
   14.565    5.3010
   14.580    5.2484
   14.595    4.9500
   14.610    4.9500
   14.625    5.0728
   14.640    5.7399
   14.655    5.2133
   14.670    4.8973
   14.685    5.1606
   14.700    5.0904
   14.715    4.6691
   14.730    4.7920
   14.745    4.9500
   14.760    5.1255
   14.775    5.2835
   14.790    5.1431
   14.805    4.9675
   14.820    5.2133
   14.835    4.9851
   14.850    5.0026
   14.865    4.5463
   14.880    5.4064
   14.895    5.1606
   14.910    5.0202
   14.925    5.1957
   14.940    5.4239
   14.955    5.7750
   14.970    5.4590
   14.985    5.3537
   15.000    5.2659
   15.015    5.0026
   15.030    5.6345
   15.045    5.3537
   15.060    5.5643
   15.075    5.5468
   15.090    5.5468
   15.105    6.0207
   15.120    6.3893
   15.135    6.1787
   15.150    6.1611
   15.165    5.9505
   15.180    5.7574
   15.195    5.5994
   15.210    5.3537
   15.225    5.5292
   15.240    4.9675
   15.255    5.1080
   15.270    5.6170
   15.285    5.1782
   15.300    4.9675
   15.315    4.7218
   15.330    5.1431
   15.345    4.8095
   15.360    4.8271
   15.375    5.0202
   15.390    5.1080
   15.405    5.2133
   15.420    4.8798
   15.435    5.0026
   15.450    5.0377
   15.465    5.1957
   15.480    4.9851
   15.495    5.1957
   15.510    5.2835
   15.525    5.0202
   15.540    5.0377
   15.555    5.0553
   15.570    4.9851
   15.585    4.9851
   15.600    5.1606
   15.615    5.3186
   15.630    5.2659
   15.645    5.0728
   15.660    5.0728
   15.675    5.0202
   15.690    5.2659
   15.705    5.1255
   15.720    4.5638
   15.735    4.7920
   15.750    5.3888
   15.765    4.9500
   15.780    5.0202
   15.795    5.1255
   15.810    4.9851
   15.825    5.3361
   15.840    5.3010
   15.855    4.7393
   15.870    4.5287
   15.885    4.8447
   15.900    5.0202
   15.915    4.9851
   15.930    5.1782
   15.945    5.2659
   15.960    4.9324
   15.975    5.1080
   15.990    5.5994
   16.005    6.1260
   16.020    5.8276
   16.035    5.5468
   16.050    5.3888
   16.065    6.0734
   16.080    6.4244
   16.095    6.4069
   16.110    6.9861
   16.125    6.0734
   16.140    6.3718
   16.155    6.3367
   16.170    5.5994
   16.185    5.5117
   16.200    5.5292
   16.215    5.1431
   16.230    5.4415
   16.245    5.5643
   16.260    5.4064
   16.275    5.4415
   16.290    5.5468
   16.305    5.2133
   16.320    5.3186
   16.335    5.1782
   16.350    5.0553
   16.365    5.1606
   16.380    5.4590
   16.395    5.8452
   16.410    5.5468
   16.425    5.6521
   16.440    5.5643
   16.455    5.6345
   16.470    5.4064
   16.485    5.8276
   16.500    6.1787
   16.515    6.4946
   16.530    6.7404
   16.545    6.2840
   16.560    6.7228
   16.575    6.8633
   16.590    7.3899
   16.605    6.9510
   16.620    6.6702
   16.635    6.2138
   16.650    6.1085
   16.665    5.5292
   16.680    5.4064
   16.695    5.2308
   16.710    5.1782
   16.725    5.2133
   16.740    5.3010
   16.755    5.4766
   16.770    5.2133
   16.785    5.4590
   16.800    5.5292
   16.815    5.5994
   16.830    5.6170
   16.845    5.4766
   16.860    5.4766
   16.875    5.4415
   16.890    5.9505
   16.905    6.0207
   16.920    5.6697
   16.935    6.3542
   16.950    6.4595
   16.965    6.7930
   16.980    7.0915
   16.995    7.4601
   17.010    8.7239
   17.025    8.8117
   17.040    9.0047
   17.055    9.2680
   17.070    8.6537
   17.085    7.7234
   17.100    7.5478
   17.115    6.9510
   17.130    6.1260
   17.145    4.9149
   17.160    5.2659
   17.175    5.3537
   17.190    5.4766
   17.205    5.7223
   17.220    5.3010
   17.235    5.3888
   17.250    5.1782
   17.265    5.5643
   17.280    5.3186
   17.295    5.3010
   17.310    5.2484
   17.325    5.3537
   17.340    5.3712
   17.355    5.3010
   17.370    4.9149
   17.385    5.3361
   17.400    5.9505
   17.415    5.8978
   17.430    5.9154
   17.445    5.1080
   17.460    4.8973
   17.475    5.2835
   17.490    5.2659
   17.505    5.6872
   17.520    6.1436
   17.535    5.2308
   17.550    5.3537
   17.565    5.1431
   17.580    4.8271
   17.595    4.7920
   17.610    5.1957
   17.625    5.6345
   17.640    5.4239
   17.655    5.4766
   17.670    5.8627
   17.685    5.1080
   17.700    4.8271
   17.715    4.5638
   17.730    5.1080
   17.745    5.1782
   17.760    5.3537
   17.775    5.6872
   17.790    5.7574
   17.805    5.6521
   17.820    5.3888
   17.835    4.9851
   17.850    5.1957
   17.865    5.8276
   17.880    5.5994
   17.895    5.8803
   17.910    6.3191
   17.925    6.1085
   17.940    6.5122
   17.955    6.6877
   17.970    5.6521
   17.985    5.8627
   18.000    5.6345
   18.015    5.7574
   18.030    5.8627
   18.045    5.1255
   18.060    5.1957
   18.075    4.9149
   18.090    4.9149
   18.105    4.9324
   18.120    5.2484
   18.135    5.3010
   18.150    5.6697
   18.165    5.3888
   18.180    6.0032
   18.195    5.4941
   18.210    5.4239
   18.225    4.8622
   18.240    5.3361
   18.255    5.4239
   18.270    5.5468
   18.285    5.8101
   18.300    6.0207
   18.315    5.9329
   18.330    6.6175
   18.345    6.4595
   18.360    6.6351
   18.375    6.3718
   18.390    5.9856
   18.405    5.8978
   18.420    5.9681
   18.435    5.7574
   18.450    6.0558
   18.465    5.4064
   18.480    5.4064
   18.495    5.1255
   18.510    5.4239
   18.525    5.3888
   18.540    5.1957
   18.555    5.1957
   18.570    5.4766
   18.585    5.4941
   18.600    5.4766
   18.615    4.5989
   18.630    5.1957
   18.645    5.4239
   18.660    5.1606
   18.675    5.0728
   18.690    5.5292
   18.705    5.2659
   18.720    5.5643
   18.735    5.3712
   18.750    5.2133
   18.765    5.6697
   18.780    5.4239
   18.795    5.2308
   18.810    6.0032
   18.825    5.8978
   18.840    5.7048
   18.855    6.0734
   18.870    5.2484
   18.885    5.1255
   18.900    5.1782
   18.915    5.1957
   18.930    5.1957
   18.945    5.6521
   18.960    5.2659
   18.975    5.3361
   18.990    5.4064
   19.005    5.2835
   19.020    5.5468
   19.035    5.3888
   19.050    5.3186
   19.065    5.5994
   19.080    5.6697
   19.095    5.4941
   19.110    6.1962
   19.125    5.8276
   19.140    5.5468
   19.155    6.0383
   19.170    6.1085
   19.185    5.8627
   19.200    5.7574
   19.215    5.8452
   19.230    6.1611
   19.245    5.9154
   19.260    6.0734
   19.275    5.2308
   19.290    5.4064
   19.305    5.6872
   19.320    5.8803
   19.335    5.3888
   19.350    5.5292
   19.365    5.0728
   19.380    4.8798
   19.395    5.4941
   19.410    6.0032
   19.425    5.6170
   19.440    5.6697
   19.455    5.3888
   19.470    5.6872
   19.485    6.1787
   19.500    5.9329
   19.515    6.2840
   19.530    6.3542
   19.545    6.6702
   19.560    6.7053
   19.575    7.3899
   19.590    7.4425
   19.605    7.0739
   19.620    7.0915
   19.635    6.8808
   19.650    6.3893
   19.665    6.4244
   19.680    6.0909
   19.695    5.3888
   19.710    5.1255
   19.725    5.5643
   19.740    5.5819
   19.755    4.9851
   19.770    5.1957
   19.785    5.1782
   19.800    5.4766
   19.815    5.1782
   19.830    5.1255
   19.845    5.0377
   19.860    5.3888
   19.875    5.6697
   19.890    5.5292
   19.905    5.2659
   19.920    5.3186
   19.935    5.6170
   19.950    5.8452
   19.965    5.3537
   19.980    5.3537
   19.995    5.6697
   20.010    5.4766
   20.025    5.4415
   20.040    5.9505
   20.055    5.5994
   20.070    5.6345
   20.085    5.6872
   20.100    6.0207
   20.115    5.5819
   20.130    5.7750
   20.145    5.5468
   20.160    5.3537
   20.175    5.5468
   20.190    5.2835
   20.205    5.6521
   20.220    5.7048
   20.235    5.9681
   20.250    5.8627
   20.265    6.3893
   20.280    6.7930
   20.295    7.4952
   20.310    7.3547
   20.325    7.5829
   20.340    7.7058
   20.355    7.9867
   20.370    8.5133
   20.385    9.2154
   20.400    8.4255
   20.415    7.4776
   20.430    6.6877
   20.445    6.5649
   20.460    6.3016
   20.475    5.7750
   20.490    5.7574
   20.505    5.2835
   20.520    5.5994
   20.535    5.5117
   20.550    5.8803
   20.565    5.5994
   20.580    5.3537
   20.595    5.8627
   20.610    5.8276
   20.625    5.4415
   20.640    5.6170
   20.655    5.3888
   20.670    5.5819
   20.685    5.7574
   20.700    5.2308
   20.715    5.2133
   20.730    6.4069
   20.745    5.8803
   20.760    5.2835
   20.775    5.3361
   20.790    5.4766
   20.805    5.7925
   20.820    5.5643
   20.835    5.4766
   20.850    5.2308
   20.865    5.9856
   20.880    5.4415
   20.895    6.0207
   20.910    5.7574
   20.925    5.4766
   20.940    5.3010
   20.955    5.9329
   20.970    5.7750
   20.985    5.3361
   21.000    5.9154
   21.015    5.7574
   21.030    5.4239
   21.045    5.4415
   21.060    5.0904
   21.075    5.2308
   21.090    5.2835
   21.105    5.4415
   21.120    5.7925
   21.135    5.6345
   21.150    5.5819
   21.165    5.7223
   21.180    5.1957
   21.195    5.7399
   21.210    5.3010
   21.225    5.5117
   21.240    5.6521
   21.255    5.5117
   21.270    6.0032
   21.285    5.8803
   21.300    5.3010
   21.315    5.3537
   21.330    5.2835
   21.345    5.5994
   21.360    5.5643
   21.375    5.5643
   21.390    5.1255
   21.405    5.0728
   21.420    5.3712
   21.435    5.5117
   21.450    5.6345
   21.465    6.0032
   21.480    5.6697
   21.495    5.3186
   21.510    6.1085
   21.525    5.7574
   21.540    5.7925
   21.555    5.7399
   21.570    5.3888
   21.585    5.8627
   21.600    5.4239
   21.615    5.8276
   21.630    5.9681
   21.645    5.7048
   21.660    5.5468
   21.675    6.0207
   21.690    5.8452
   21.705    5.4941
   21.720    5.7750
   21.735    5.7574
   21.750    6.1611
   21.765    6.2138
   21.780    6.8282
   21.795    6.6877
   21.810    6.8808
   21.825    6.7404
   21.840    6.8282
   21.855    7.3021
   21.870    7.1441
   21.885    6.8457
   21.900    6.4595
   21.915    6.5122
   21.930    5.9505
   21.945    6.1436
   21.960    5.6521
   21.975    5.9856
   21.990    5.4590
   22.005    5.1606
   22.020    5.4590
   22.035    5.7048
   22.050    5.6872
   22.065    5.7399
   22.080    6.2489
   22.095    6.1436
   22.110    6.3016
   22.125    6.3718
   22.140    6.2840
   22.155    5.9856
   22.170    6.5473
   22.185    6.6702
   22.200    6.7930
   22.215    6.3542
   22.230    6.5473
   22.245    6.2489
   22.260    6.0383
   22.275    5.7750
   22.290    6.1436
   22.305    6.1260
   22.320    6.0383
   22.335    6.0734
   22.350    5.9856
   22.365    6.3718
   22.380    5.9856
   22.395    6.1962
   22.410    6.0909
   22.425    6.5649
   22.440    6.5298
   22.455    6.9861
   22.470    7.2143
   22.485    7.4776
   22.500    8.2851
   22.515    9.3382
   22.530    9.4611
   22.545    9.2505
   22.560    9.5313
   22.575    9.0925
   22.590    9.2505
   22.605    8.3026
   22.620    7.7409
   22.635    7.1792
   22.650    6.5298
   22.665    5.9856
   22.680    6.1085
   22.695    5.8627
   22.710    6.2138
   22.725    5.9681
   22.740    5.8627
   22.755    6.3893
   22.770    6.2489
   22.785    6.2665
   22.800    6.7404
   22.815    7.6356
   22.830    7.5654
   22.845    8.5308
   22.860    8.7765
   22.875    9.2856
   22.890    9.9351
   22.905    9.3031
   22.920    9.4787
   22.935    9.1978
   22.950    8.3202
   22.965    7.4601
   22.980    7.3723
   22.995    6.8984
   23.010    6.5473
   23.025    5.9856
   23.040    6.2665
   23.055    5.4239
   23.070    5.5994
   23.085    5.8627
   23.100    6.1787
   23.115    6.0909
   23.130    6.1787
   23.145    6.1436
   23.160    6.0558
   23.175    6.6351
   23.190    6.4069
   23.205    6.6351
   23.220    7.1266
   23.235    7.1617
   23.250    7.1090
   23.265    6.7228
   23.280    6.8808
   23.295    6.3542
   23.310    5.7750
   23.325    5.5468
   23.340    5.9329
   23.355    5.4941
   23.370    5.7750
   23.385    5.6521
   23.400    6.0383
   23.415    5.8978
   23.430    5.7223
   23.445    6.0383
   23.460    5.9505
   23.475    6.1611
   23.490    6.3542
   23.505    5.9856
   23.520    5.7574
   23.535    6.4946
   23.550    6.0032
   23.565    6.0207
   23.580    5.7223
   23.595    5.9329
   23.610    5.7574
   23.625    6.1962
   23.640    5.8276
   23.655    5.6521
   23.670    5.2308
   23.685    5.4239
   23.700    5.7048
   23.715    6.1787
   23.730    5.8978
   23.745    6.4069
   23.760    5.5819
   23.775    5.6872
   23.790    5.6170
   23.805    5.8978
   23.820    5.7925
   23.835    5.8803
   23.850    6.6877
   23.865    7.2494
   23.880    7.2143
   23.895    7.1968
   23.910    7.3021
   23.925    7.0212
   23.940    6.5649
   23.955    6.8282
   23.970    6.5298
   23.985    6.2489
   24.000    5.8978
   24.015    6.1611
   24.030    5.4766
   24.045    5.5468
   24.060    5.4239
   24.075    5.7048
   24.090    5.7223
   24.105    6.0909
   24.120    5.8803
   24.135    5.7925
   24.150    5.6521
   24.165    5.7574
   24.180    5.5468
   24.195    6.0032
   24.210    5.5819
   24.225    5.5117
   24.240    5.8978
   24.255    5.4590
   24.270    5.5643
   24.285    5.9856
   24.300    5.8276
   24.315    5.5468
   24.330    5.4064
   24.345    5.6345
   24.360    5.5117
   24.375    5.2659
   24.390    6.4595
   24.405    6.1260
   24.420    6.0032
   24.435    5.9329
   24.450    6.1085
   24.465    5.5819
   24.480    5.3888
   24.495    5.5643
   24.510    5.6872
   24.525    6.3191
   24.540    5.9856
   24.555    6.1962
   24.570    5.4415
   24.585    5.8803
   24.600    5.6697
   24.615    5.8452
   24.630    5.5994
   24.645    5.6521
   24.660    5.9329
   24.675    5.7399
   24.690    5.5643
   24.705    5.5819
   24.720    5.2133
   24.735    5.2484
   24.750    5.8101
   24.765    5.7399
   24.780    5.7925
   24.795    5.3361
   24.810    5.5819
   24.825    5.9505
   24.840    5.8276
   24.855    6.0558
   24.870    5.3010
   24.885    5.8101
   24.900    6.1787
   24.915    6.1787
   24.930    5.6872
   24.945    5.5292
   24.960    5.7925
   24.975    5.8101
   24.990    5.4239
   25.005    5.4239
   25.020    5.7750
   25.035    5.6521
   25.050    5.7574
   25.065    6.0207
   25.080    5.7399
   25.095    5.5117
   25.110    5.9329
   25.125    6.1085
   25.140    5.9329
   25.155    6.3893
   25.170    6.2840
   25.185    5.9856
   25.200    6.3367
   25.215    6.1260
   25.230    5.8803
   25.245    6.0383
   25.260    6.2665
   25.275    5.7399
   25.290    5.6170
   25.305    5.7399
   25.320    5.5994
   25.335    5.5994
   25.350    5.5819
   25.365    5.5117
   25.380    5.9681
   25.395    6.1085
   25.410    5.8276
   25.425    5.8978
   25.440    6.0734
   25.455    6.0909
   25.470    5.6521
   25.485    6.1085
   25.500    6.6175
   25.515    6.4069
   25.530    6.1787
   25.545    6.0558
   25.560    5.3537
   25.575    5.6521
   25.590    6.4595
   25.605    6.3191
   25.620    6.2665
   25.635    6.1611
   25.650    6.2138
   25.665    5.7399
   25.680    5.6697
   25.695    6.1260
   25.710    6.9510
   25.725    6.7228
   25.740    7.4601
   25.755    7.7409
   25.770    8.4781
   25.785    8.6010
   25.800    8.8994
   25.815    9.1101
   25.830    7.7936
   25.845    8.1446
   25.860    8.1095
   25.875    7.7936
   25.890    6.7579
   25.905    6.0734
   25.920    6.0558
   25.935    5.8627
   25.950    5.7925
   25.965    5.6345
   25.980    5.3888
   25.995    5.3537
   26.010    5.4590
   26.025    5.7750
   26.040    5.8101
   26.055    5.6170
   26.070    5.6697
   26.085    5.6872
   26.100    5.9154
   26.115    5.7925
   26.130    5.3888
   26.145    5.5117
   26.160    5.4941
   26.175    5.3537
   26.190    5.4064
   26.205    5.5819
   26.220    5.5643
   26.235    5.7750
   26.250    5.7574
   26.265    5.7223
   26.280    5.3010
   26.295    5.9505
   26.310    5.8452
   26.325    6.1260
   26.340    6.0734
   26.355    5.9505
   26.370    5.7223
   26.385    6.4595
   26.400    6.6702
   26.415    6.7053
   26.430    6.6000
   26.445    6.2489
   26.460    6.2489
   26.475    5.9505
   26.490    5.8978
   26.505    5.6521
   26.520    5.7925
   26.535    5.8276
   26.550    5.4766
   26.565    5.3888
   26.580    5.1782
   26.595    5.8452
   26.610    5.2659
   26.625    5.1255
   26.640    5.1080
   26.655    5.2308
   26.670    5.1606
   26.685    5.8803
   26.700    5.9505
   26.715    5.3537
   26.730    5.5819
   26.745    5.4766
   26.760    5.0904
   26.775    5.3537
   26.790    5.3186
   26.805    5.2308
   26.820    5.8978
   26.835    5.8101
   26.850    5.1255
   26.865    5.1080
   26.880    5.3010
   26.895    5.3361
   26.910    5.7048
   26.925    6.2489
   26.940    6.3367
   26.955    6.4420
   26.970    7.1090
   26.985    6.9510
   27.000    6.9861
   27.015    6.6702
   27.030    6.6351
   27.045    6.8457
   27.060    6.6526
   27.075    6.5298
   27.090    6.2489
   27.105    5.7048
   27.120    5.5643
   27.135    5.4941
   27.150    5.2659
   27.165    5.8101
   27.180    5.6521
   27.195    5.2659
   27.210    5.5117
   27.225    5.5468
   27.240    5.7223
   27.255    5.4064
   27.270    5.6697
   27.285    5.3010
   27.300    5.2484
   27.315    5.3537
   27.330    5.6345
   27.345    5.4239
   27.360    5.4590
   27.375    5.3361
   27.390    5.3712
   27.405    5.6345
   27.420    5.3537
   27.435    5.4415
   27.450    5.4064
   27.465    5.2308
   27.480    5.6170
   27.495    5.6872
   27.510    6.0032
   27.525    5.9681
   27.540    6.5298
   27.555    6.6877
   27.570    6.0207
   27.585    6.6702
   27.600    6.1436
   27.615    6.0383
   27.630    5.6697
   27.645    6.0032
   27.660    5.9681
   27.675    6.0734
   27.690    5.3010
   27.705    5.0904
   27.720    5.4064
   27.735    5.0904
   27.750    5.6345
   27.765    5.8452
   27.780    5.5819
   27.795    5.5643
   27.810    5.6521
   27.825    5.8627
   27.840    5.8803
   27.855    5.9329
   27.870    6.3367
   27.885    6.3016
   27.900    6.3016
   27.915    5.8803
   27.930    5.6697
   27.945    5.9154
   27.960    5.4239
   27.975    5.6697
   27.990    5.8276
   28.005    5.4941
   28.020    5.4766
   28.035    5.2133
   28.050    5.3361
   28.065    5.3010
   28.080    5.5994
   28.095    5.9329
   28.110    6.6351
   28.125    6.3016
   28.140    6.6175
   28.155    7.3021
   28.170    6.6175
   28.185    6.3542
   28.200    6.4244
   28.215    6.5824
   28.230    6.5298
   28.245    5.7048
   28.260    5.7223
   28.275    5.5994
   28.290    5.2308
   28.305    5.0377
   28.320    5.0202
   28.335    5.3361
   28.350    5.6697
   28.365    6.1787
   28.380    6.0558
   28.395    6.0383
   28.410    6.0207
   28.425    6.0032
   28.440    6.2138
   28.455    5.8101
   28.470    6.1962
   28.485    6.2489
   28.500    6.0032
   28.515    5.4415
   28.530    5.8978
   28.545    5.7399
   28.560    5.4064
   28.575    5.0553
   28.590    5.4415
   28.605    5.6521
   28.620    5.0202
   28.635    5.1431
   28.650    5.7399
   28.665    5.3186
   28.680    5.2835
   28.695    4.9675
   28.710    4.9149
   28.725    5.4415
   28.740    5.4415
   28.755    5.3010
   28.770    5.0553
   28.785    5.3186
   28.800    4.9500
   28.815    4.9324
   28.830    5.2133
   28.845    5.4239
   28.860    5.0904
   28.875    5.2308
   28.890    5.4415
   28.905    5.3361
   28.920    4.8095
   28.935    4.8447
   28.950    4.9324
   28.965    5.2484
   28.980    5.3186
   28.995    5.3361
   29.010    5.4941
   29.025    5.7925
   29.040    5.8101
   29.055    5.4941
   29.070    5.1957
   29.085    5.3361
   29.100    5.3537
   29.115    5.2484
   29.130    5.3361
   29.145    5.4941
   29.160    5.6170
   29.175    5.2308
   29.190    5.4239
   29.205    5.5643
   29.220    5.9154
   29.235    6.0909
   29.250    6.2313
   29.265    6.1436
   29.280    6.1962
   29.295    6.3542
   29.310    5.7223
   29.325    5.9329
   29.340    5.6345
   29.355    5.3888
   29.370    5.0904
   29.385    5.0728
   29.400    5.1606
   29.415    4.7744
   29.430    5.1255
   29.445    4.7920
   29.460    4.7042
   29.475    5.2835
   29.490    4.9500
   29.505    5.1957
   29.520    5.0553
   29.535    5.5292
   29.550    5.1431
   29.565    4.7393
   29.580    4.8447
   29.595    5.0202
   29.610    5.1782
   29.625    4.7393
   29.640    4.7744
   29.655    5.1431
   29.670    5.0553
   29.685    5.0553
   29.700    5.0377
   29.715    4.8271
   29.730    4.9851
   29.745    5.2835
   29.760    5.3361
   29.775    5.4239
   29.790    5.7048
   29.805    5.4064
   29.820    5.7399
   29.835    4.8622
   29.850    4.7042
   29.865    5.4415
   29.880    4.9675
   29.895    4.8973
   29.910    4.7920
   29.925    4.5989
   29.940    5.0904
   29.955    5.1255
   29.970    5.1255
   29.985    4.8095
   30.000    5.0728
   30.015    5.2835
   30.030    4.8271
   30.045    5.0553
   30.060    5.4239
   30.075    5.3537
   30.090    4.6340
   30.105    4.3181
   30.120    4.8798
   30.135    5.0553
   30.150    4.7393
   30.165    5.0026
   30.180    4.5638
   30.195    4.7218
   30.210    5.1606
   30.225    5.0026
   30.240    4.6867
   30.255    5.1957
   30.270    5.1255
   30.285    5.0728
   30.300    5.1606
   30.315    4.5989
   30.330    5.0553
   30.345    4.8973
   30.360    5.0377
   30.375    4.9149
   30.390    5.1782
   30.405    4.8798
   30.420    5.1782
   30.435    5.3712
   30.450    4.4760
   30.465    4.9500
   30.480    4.4936
   30.495    5.1255
   30.510    4.9675
   30.525    5.2484
   30.540    5.1431
   30.555    5.1255
   30.570    5.1606
   30.585    5.0202
   30.600    5.4766
   30.615    5.3186
   30.630    5.0904
   30.645    4.7920
   30.660    5.0377
   30.675    5.1080
   30.690    5.1431
   30.705    4.8095
   30.720    4.8798
   30.735    4.5989
   30.750    5.2308
   30.765    5.3010
   30.780    4.7042
   30.795    4.8447
   30.810    4.6340
   30.825    5.0026
   30.840    5.2308
   30.855    4.9851
   30.870    4.8622
   30.885    4.7042
   30.900    4.5287
   30.915    4.5463
   30.930    4.6340
   30.945    4.6165
   30.960    5.1957
   30.975    4.8798
   30.990    4.5463
   31.005    4.7393
   31.020    4.8798
   31.035    4.9149
   31.050    5.0553
   31.065    4.4234
   31.080    4.6165
   31.095    4.8447
   31.110    4.6516
   31.125    4.8447
   31.140    4.5814
   31.155    4.3532
   31.170    4.3181
   31.185    4.5111
   31.200    5.0377
   31.215    4.7042
   31.230    4.7042
   31.245    4.6867
   31.260    4.6340
   31.275    4.9500
   31.290    4.8271
   31.305    4.8973
   31.320    4.8622
   31.335    4.9851
   31.350    5.0904
   31.365    5.5994
   31.380    5.3361
   31.395    5.1080
   31.410    4.8798
   31.425    5.3010
   31.440    5.0728
   31.455    4.9851
   31.470    4.8095
   31.485    5.3712
   31.500    4.7218
   31.515    5.0904
   31.530    4.9500
   31.545    5.1957
   31.560    5.0202
   31.575    4.8973
   31.590    4.5638
   31.605    4.9675
   31.620    4.9324
   31.635    4.9500
   31.650    4.9675
   31.665    4.6340
   31.680    4.8973
   31.695    4.9675
   31.710    4.7042
   31.725    5.0553
   31.740    4.8271
   31.755    5.4239
   31.770    5.2484
   31.785    5.0553
   31.800    4.9149
   31.815    5.0377
   31.830    5.1606
   31.845    4.9149
   31.860    5.0026
   31.875    4.6516
   31.890    5.1957
   31.905    4.8271
   31.920    4.7393
   31.935    4.6516
   31.950    4.8622
   31.965    4.9149
   31.980    4.8622
   31.995    4.3883
   32.010    4.7920
   32.025    5.3010
   32.040    4.8622
   32.055    4.3883
   32.070    4.8798
   32.085    4.8622
   32.100    4.6340
   32.115    4.7393
   32.130    4.8095
   32.145    4.3883
   32.160    4.6340
   32.175    4.6516
   32.190    4.6340
   32.205    5.0377
   32.220    4.5814
   32.235    5.0202
   32.250    4.4585
   32.265    4.5814
   32.280    4.4585
   32.295    3.9670
   32.310    4.0723
   32.325    4.5638
   32.340    4.8973
   32.355    4.3181
   32.370    4.7569
   32.385    4.5814
   32.400    4.7393
   32.415    4.5638
   32.430    4.8447
   32.445    4.3005
   32.460    4.4760
   32.475    4.4058
   32.490    4.1952
   32.505    4.3883
   32.520    4.6516
   32.535    4.6867
   32.550    4.4058
   32.565    4.5638
   32.580    4.3005
   32.595    4.3356
   32.610    4.1250
   32.625    4.4409
   32.640    4.2478
   32.655    4.1250
   32.670    4.2127
   32.685    4.4409
   32.700    4.4058
   32.715    4.8973
   32.730    4.3532
   32.745    4.5814
   32.760    4.7218
   32.775    4.7042
   32.790    4.7218
   32.805    4.5463
   32.820    4.8095
   32.835    4.4936
   32.850    4.6165
   32.865    4.7569
   32.880    4.7218
   32.895    4.7920
   32.910    4.9149
   32.925    4.4936
   32.940    4.9500
   32.955    4.5287
   32.970    4.4058
   32.985    4.8447
   33.000    4.3356
   33.015    4.3181
   33.030    4.6340
   33.045    4.2478
   33.060    4.6691
   33.075    4.2654
   33.090    4.1601
   33.105    4.4234
   33.120    4.3707
   33.135    4.3356
   33.150    4.4936
   33.165    4.7393
   33.180    4.5638
   33.195    4.4585
   33.210    4.0548
   33.225    4.1776
   33.240    4.3532
   33.255    4.0899
   33.270    4.2654
   33.285    4.3532
   33.300    4.5463
   33.315    4.3532
   33.330    4.6165
   33.345    4.1425
   33.360    4.4234
   33.375    4.5287
   33.390    4.2478
   33.405    4.3707
   33.420    3.9846
   33.435    4.0723
   33.450    4.6340
   33.465    4.1425
   33.480    4.3532
   33.495    4.2127
   33.510    4.4058
   33.525    4.1601
   33.540    4.3005
   33.555    4.6691
   33.570    4.5989
   33.585    4.2127
   33.600    4.0021
   33.615    4.4058
   33.630    4.5287
   33.645    4.7920
   33.660    4.7393
   33.675    4.5287
   33.690    4.7042
   33.705    4.1074
   33.720    4.1776
   33.735    4.4234
   33.750    4.5287
   33.765    4.4936
   33.780    4.7393
   33.795    4.4585
   33.810    4.5814
   33.825    4.6867
   33.840    4.5989
   33.855    4.8622
   33.870    4.8798
   33.885    4.9324
   33.900    4.9851
   33.915    4.5814
   33.930    4.7218
   33.945    4.4936
   33.960    4.8447
   33.975    4.5989
   33.990    4.7920
   34.005    4.5463
   34.020    4.2830
   34.035    4.6165
   34.050    4.8271
   34.065    4.4409
   34.080    4.8447
   34.095    4.5287
   34.110    4.2303
   34.125    4.2830
   34.140    4.0899
   34.155    4.3883
   34.170    4.3707
   34.185    4.0372
   34.200    4.2127
   34.215    4.5463
   34.230    4.7218
   34.245    3.8617
   34.260    4.0548
   34.275    4.0899
   34.290    4.2478
   34.305    4.0548
   34.320    4.0548
   34.335    4.7042
   34.350    4.5638
   34.365    4.3883
   34.380    4.2303
   34.395    4.3181
   34.410    4.0372
   34.425    4.2830
   34.440    3.9319
   34.455    3.9846
   34.470    4.0548
   34.485    4.1425
   34.500    4.0372
   34.515    4.4409
   34.530    4.2127
   34.545    4.4409
   34.560    4.0723
   34.575    4.2830
   34.590    4.2127
   34.605    4.0021
   34.620    4.3181
   34.635    4.0197
   34.650    3.8968
   34.665    4.1601
   34.680    4.3356
   34.695    4.0021
   34.710    3.8266
   34.725    4.4760
   34.740    4.1952
   34.755    4.1074
   34.770    4.5989
   34.785    4.3707
   34.800    4.4409
   34.815    4.4058
   34.830    4.0372
   34.845    4.5814
   34.860    4.7042
   34.875    4.7744
   34.890    4.5287
   34.905    3.6862
   34.920    3.9143
   34.935    4.0021
   34.950    4.2830
   34.965    4.2303
   34.980    4.0372
   34.995    4.0723
   35.010    4.2830
   35.025    4.1074
   35.040    4.2654
   35.055    4.3005
   35.070    4.1952
   35.085    4.0021
   35.100    3.7564
   35.115    4.2830
   35.130    4.0021
   35.145    3.7564
   35.160    4.2303
   35.175    3.8441
   35.190    3.8792
   35.205    3.8266
   35.220    4.6340
   35.235    4.5638
   35.250    4.6165
   35.265    4.6165
   35.280    4.1074
   35.295    3.9494
   35.310    3.7915
   35.325    3.7213
   35.340    4.0548
   35.355    3.8968
   35.370    3.7915
   35.385    3.8090
   35.400    4.2478
   35.415    4.2830
   35.430    4.4409
   35.445    3.9319
   35.460    3.9494
   35.475    4.0021
   35.490    4.1601
   35.505    4.1074
   35.520    3.9494
   35.535    3.5984
   35.550    3.7388
   35.565    4.5638
   35.580    3.8792
   35.595    3.5282
   35.610    3.7739
   35.625    4.1425
   35.640    3.9319
   35.655    4.3005
   35.670    4.4234
   35.685    4.6340
   35.700    4.1601
   35.715    4.3005
   35.730    4.0372
   35.745    3.7388
   35.760    3.8617
   35.775    4.0372
   35.790    3.9494
   35.805    3.8968
   35.820    4.4058
   35.835    4.1425
   35.850    4.1776
   35.865    4.1074
   35.880    4.1250
   35.895    4.3181
   35.910    3.6335
   35.925    3.7915
   35.940    4.4760
   35.955    4.3181
   35.970    4.1952
   35.985    4.2654
   36.000    3.9846
   36.015    4.1776
   36.030    3.7915
   36.045    4.0021
   36.060    4.1952
   36.075    4.3181
   36.090    4.4585
   36.105    4.0899
   36.120    4.0021
   36.135    3.8617
   36.150    4.5111
   36.165    4.2654
   36.180    3.7739
   36.195    3.8090
   36.210    3.7037
   36.225    3.8090
   36.240    3.9319
   36.255    4.3707
   36.270    4.0372
   36.285    4.1250
   36.300    4.0548
   36.315    4.1601
   36.330    3.7564
   36.345    3.5457
   36.360    3.9670
   36.375    3.9494
   36.390    4.1074
   36.405    4.5111
   36.420    4.3532
   36.435    3.8266
   36.450    4.1601
   36.465    4.2303
   36.480    4.3005
   36.495    4.2830
   36.510    4.1952
   36.525    4.1425
   36.540    4.0021
   36.555    3.9143
   36.570    4.0021
   36.585    4.1776
   36.600    4.0021
   36.615    4.0548
   36.630    4.4058
   36.645    4.2830
   36.660    4.7042
   36.675    4.3181
   36.690    4.0372
   36.705    4.0372
   36.720    4.5111
   36.735    4.9500
   36.750    4.4585
   36.765    4.1601
   36.780    4.1601
   36.795    3.4755
   36.810    3.5282
   36.825    3.7915
   36.840    3.6862
   36.855    3.5282
   36.870    3.7915
   36.885    3.8090
   36.900    3.9670
   36.915    3.7037
   36.930    3.5633
   36.945    3.7739
   36.960    3.6510
   36.975    3.8441
   36.990    4.1601
   37.005    3.9846
   37.020    4.1074
   37.035    4.1952
   37.050    4.2830
   37.065    4.0548
   37.080    4.3532
   37.095    4.3532
   37.110    4.1425
   37.125    4.0197
   37.140    4.2127
   37.155    4.2127
   37.170    4.3356
   37.185    4.2478
   37.200    4.1601
   37.215    3.9319
   37.230    3.9670
   37.245    3.7915
   37.260    4.1250
   37.275    3.9670
   37.290    3.7213
   37.305    3.8792
   37.320    3.6862
   37.335    3.6686
   37.350    3.6510
   37.365    3.6335
   37.380    3.5808
   37.395    3.6686
   37.410    3.8617
   37.425    3.8266
   37.440    4.0548
   37.455    4.2830
   37.470    3.8792
   37.485    4.2478
   37.500    4.1776
   37.515    3.8792
   37.530    4.0021
   37.545    3.9846
   37.560    4.0021
   37.575    3.9143
   37.590    3.7739
   37.605    4.0197
   37.620    3.5808
   37.635    3.8792
   37.650    3.6335
   37.665    3.5984
   37.680    3.6862
   37.695    3.7564
   37.710    3.9143
   37.725    3.8968
   37.740    3.9319
   37.755    3.9670
   37.770    3.7037
   37.785    3.7213
   37.800    3.8792
   37.815    4.1074
   37.830    4.0197
   37.845    3.9670
   37.860    3.8968
   37.875    4.0372
   37.890    4.1074
   37.905    4.2303
   37.920    4.4760
   37.935    4.2127
   37.950    4.0021
   37.965    3.8266
   37.980    3.9670
   37.995    4.0197
   38.010    4.0372
   38.025    3.8441
   38.040    3.3175
   38.055    3.7739
   38.070    3.9670
   38.085    3.7915
   38.100    3.9143
   38.115    3.7739
   38.130    3.5808
   38.145    3.8792
   38.160    3.8090
   38.175    3.5457
   38.190    4.0197
   38.205    3.7915
   38.220    3.8266
   38.235    3.5808
   38.250    3.5457
   38.265    3.7739
   38.280    3.5984
   38.295    3.9494
   38.310    4.0548
   38.325    3.8617
   38.340    3.4755
   38.355    3.7388
   38.370    4.0197
   38.385    4.3005
   38.400    3.8266
   38.415    4.0197
   38.430    4.2478
   38.445    3.7213
   38.460    3.8441
   38.475    3.8968
   38.490    3.5633
   38.505    3.5984
   38.520    3.1947
   38.535    3.6686
   38.550    3.8441
   38.565    3.5633
   38.580    3.8792
   38.595    3.5984
   38.610    3.8441
   38.625    4.1425
   38.640    3.5457
   38.655    3.4229
   38.670    3.6159
   38.685    3.9319
   38.700    3.9846
   38.715    3.6862
   38.730    3.6862
   38.745    3.6862
   38.760    3.7213
   38.775    3.8617
   38.790    4.0197
   38.805    3.5633
   38.820    3.9143
   38.835    3.8266
   38.850    3.7388
   38.865    4.0723
   38.880    3.7037
   38.895    3.9143
   38.910    3.9494
   38.925    3.7739
   38.940    3.5457
   38.955    3.8792
   38.970    3.5282
   38.985    3.6510
   39.000    3.7564
   39.015    4.0723
   39.030    3.7037
   39.045    4.0197
   39.060    4.1601
   39.075    3.7564
   39.090    3.5808
   39.105    3.4229
   39.120    4.1074
   39.135    3.7388
   39.150    3.4931
   39.165    3.2122
   39.180    3.6510
   39.195    3.9143
   39.210    4.1425
   39.225    3.6335
   39.240    4.0021
   39.255    4.0021
   39.270    4.0548
   39.285    3.6686
   39.300    4.0372
   39.315    3.7915
   39.330    3.5633
   39.345    3.5808
   39.360    3.6159
   39.375    3.7213
   39.390    3.5457
   39.405    3.5984
   39.420    3.4931
   39.435    3.7388
   39.450    3.9319
   39.465    3.6159
   39.480    3.5106
   39.495    3.6510
   39.510    3.6335
   39.525    3.6686
   39.540    3.9143
   39.555    4.0548
   39.570    3.7564
   39.585    3.5808
   39.600    3.5106
   39.615    3.4580
   39.630    3.4229
   39.645    3.6159
   39.660    3.9143
   39.675    3.8792
   39.690    3.7915
   39.705    3.5808
   39.720    3.7388
   39.735    3.7037
   39.750    3.6862
   39.765    3.7739
   39.780    4.0548
   39.795    3.4229
   39.810    3.4755
   39.825    3.5282
   39.840    3.5633
   39.855    3.7915
   39.870    3.9670
   39.885    4.0197
   39.900    3.8266
   39.915    3.6510
   39.930    3.7739
   39.945    3.9143
   39.960    3.7564
   39.975    3.1947
   39.990    3.4053
