    1.500   32.7892
    1.515   32.6488
    1.530   32.9472
    1.545   32.4206
    1.560   30.8408
    1.575   31.5956
    1.590   31.5078
    1.605   30.4546
    1.620   31.2796
    1.635   29.8578
    1.650   29.1557
    1.665   29.3488
    1.680   29.3839
    1.695   29.3312
    1.710   28.4711
    1.725   28.1727
    1.740   27.6812
    1.755   26.6280
    1.770   27.2600
    1.785   26.4174
    1.800   25.4169
    1.815   26.2945
    1.830   25.2414
    1.845   25.4520
    1.860   25.1711
    1.875   24.2935
    1.890   24.8727
    1.905   24.6621
    1.920   24.3461
    1.935   23.6265
    1.950   23.6265
    1.965   22.6611
    1.980   22.7137
    1.995   22.3802
    2.010   22.2222
    2.025   22.7137
    2.040   23.0999
    2.055   22.2573
    2.070   21.4674
    2.085   20.6424
    2.100   21.2041
    2.115   21.5377
    2.130   21.6781
    2.145   20.1159
    2.160   20.6073
    2.175   20.2387
    2.190   20.1159
    2.205   20.0281
    2.220   19.8526
    2.235   20.3440
    2.250   20.0807
    2.265   19.7648
    2.280   20.5547
    2.295   20.1685
    2.310   19.7472
    2.325   19.6595
    2.340   18.6940
    2.355   18.9925
    2.370   19.6419
    2.385   19.1153
    2.400   18.9925
    2.415   18.5185
    2.430   18.2903
    2.445   18.9573
    2.460   18.1675
    2.475   19.1153
    2.490   19.0276
    2.505   19.3962
    2.520   19.3786
    2.535   18.5712
    2.550   18.5361
    2.565   19.4313
    2.580   19.3611
    2.595   19.0627
    2.610   18.7292
    2.625   17.6584
    2.640   17.8164
    2.655   18.5887
    2.670   18.9222
    2.685   19.1855
    2.700   18.8169
    2.715   18.7116
    2.730   19.9228
    2.745   19.4488
    2.760   19.9930
    2.775   19.7999
    2.790   20.5371
    2.805   20.8706
    2.820   20.7829
    2.835   20.2387
    2.850   19.7297
    2.865   19.7297
    2.880   20.5371
    2.895   20.8355
    2.910   20.8882
    2.925   21.8536
    2.940   21.6079
    2.955   21.2392
    2.970   21.6956
    2.985   22.3626
    3.000   22.5031
    3.015   22.6786
    3.030   22.9419
    3.045   23.8196
    3.060   23.5738
    3.075   24.7323
    3.090   25.5398
    3.105   25.3642
    3.120   24.9254
    3.135   25.4520
    3.150   26.7334
    3.165   26.9265
    3.180   27.1371
    3.195   28.5062
    3.210   28.4711
    3.225   28.3834
    3.240   28.8924
    3.255   29.8227
    3.270   31.5254
    3.285   30.8057
    3.300   31.1041
    3.315   33.0700
    3.330   33.1403
    3.345   34.2988
    3.360   35.3695
    3.375   36.4929
    3.390   38.0025
    3.405   38.0376
    3.420   39.4418
    3.435   41.4253
    3.450   42.8120
    3.465   44.1636
    3.480   45.7434
    3.495   46.6035
    3.510   48.8854
    3.525   50.7811
    3.540   52.4662
    3.555   54.7481
    3.570   57.1353
    3.585   59.3997
    3.600   62.1555
    3.615   65.2273
    3.630   68.4571
    3.645   72.0906
    3.660   76.2507
    3.675   81.2182
    3.690   86.3788
    3.705   93.1192
    3.720   97.4021
    3.735  106.2138
    3.750  116.3595
    3.765  125.6802
    3.780  135.7030
    3.795  154.5024
    3.810  180.1124
    3.825  211.0409
    3.840  232.9472
    3.855  224.3111
    3.870  187.7655
    3.885  144.3040
    3.900  100.4388
    3.915   61.3656
    3.930   36.6333
    3.945   22.5382
    3.960   17.0441
    3.975   13.9196
    3.990   12.7260
    4.005   12.0765
    4.020   11.4797
    4.035   10.3739
    4.050    9.5489
    4.065    9.8297
    4.080    9.6718
    4.095    9.8122
    4.110    9.3031
    4.125    9.1101
    4.140    9.0574
    4.155    9.3031
    4.170    9.5138
    4.185    9.7420
    4.200    9.0047
    4.215    8.4255
    4.230    8.4079
    4.245    8.3728
    4.260    8.7063
    4.275    8.9696
    4.290    9.1276
    4.305    8.3202
    4.320    8.9170
    4.335    8.7414
    4.350    8.4957
    4.365    8.8994
    4.380    8.6186
    4.395    8.3553
    4.410    8.4606
    4.425    8.7414
    4.440    8.5308
    4.455    8.9696
    4.470    8.4957
    4.485    8.5835
    4.500    8.7239
    4.515    8.2851
    4.530    8.2500
    4.545    7.8813
    4.560    8.3728
    4.575    8.6010
    4.590    8.7414
    4.605    8.7590
    4.620    9.3734
    4.635    8.8819
    4.650    8.4255
    4.665    8.3904
    4.680    9.1101
    4.695    8.7941
    4.710    9.1101
    4.725    8.9872
    4.740    8.4957
    4.755    9.0047
    4.770    9.0223
    4.785    8.8819
    4.800    9.0047
    4.815    9.3734
    4.830    9.3382
    4.845    8.5133
    4.860    9.6718
    4.875    9.7771
    4.890    9.8824
    4.905   10.1632
    4.920   10.0053
    4.935   10.2159
    4.950   10.1281
    4.965   10.4441
    4.980   10.4968
    4.995   11.2691
    5.010   11.1989
    5.025   11.7606
    5.040   11.1638
    5.055   11.9712
    5.070   11.9186
    5.085   11.7957
    5.100   11.9010
    5.115   13.1473
    5.130   12.8313
    5.145   13.0420
    5.160   13.2526
    5.175   13.9723
    5.190   14.8850
    5.205   14.7095
    5.220   15.1132
    5.235   16.0260
    5.250   16.8861
    5.265   17.5707
    5.280   19.4488
    5.295   19.3962
    5.310   19.7121
    5.325   21.2041
    5.340   22.9946
    5.355   25.0307
    5.370   25.9961
    5.385   28.9451
    5.400   31.8238
    5.415   35.6503
    5.430   39.8104
    5.445   46.1471
    5.460   52.9577
    5.475   51.1146
    5.490   45.0588
    5.505   37.2301
    5.520   29.1908
    5.535   19.9228
    5.550   13.9021
    5.565   10.8829
    5.580    9.2329
    5.595    7.8462
    5.610    7.7936
    5.625    7.7234
    5.640    7.6180
    5.655    7.8638
    5.670    7.0915
    5.685    6.6877
    5.700    6.6526
    5.715    6.9159
    5.730    6.9861
    5.745    6.1962
    5.760    6.0032
    5.775    6.5649
    5.790    7.0563
    5.805    7.1441
    5.820    6.8633
    5.835    7.3196
    5.850    6.4420
    5.865    7.1266
    5.880    7.1968
    5.895    6.9159
    5.910    6.6702
    5.925    6.4595
    5.940    6.7053
    5.955    6.9686
    5.970    6.5298
    5.985    6.9510
    6.000    6.7755
    6.015    6.0383
    6.030    6.6702
    6.045    6.7404
    6.060    6.3016
    6.075    7.2670
    6.090    6.7755
    6.105    6.7228
    6.120    6.6351
    6.135    6.5649
    6.150    7.0915
    6.165    7.4425
    6.180    6.2138
    6.195    6.3542
    6.210    7.0563
    6.225    6.5473
    6.240    6.6702
    6.255    7.2845
    6.270    7.1266
    6.285    6.4595
    6.300    7.1617
    6.315    6.7053
    6.330    6.9159
    6.345    6.9335
    6.360    6.6526
    6.375    6.8106
    6.390    7.0915
    6.405    7.1266
    6.420    7.1441
    6.435    7.2494
    6.450    7.3021
    6.465    7.3723
    6.480    7.6883
    6.495    7.8638
    6.510    8.6361
    6.525    8.0920
    6.540    7.8989
    6.555    8.5133
    6.570    7.9867
    6.585    8.4781
    6.600    8.5659
    6.615    8.8994
    6.630    9.5138
    6.645    9.7420
    6.660   10.5143
    6.675   10.7600
    6.690   12.2696
    6.705   12.7787
    6.720   12.8840
    6.735   12.7084
    6.750   11.2866
    6.765    9.7069
    6.780    8.2675
    6.795    7.2494
    6.810    6.6877
    6.825    6.4244
    6.840    6.4420
    6.855    6.0207
    6.870    6.3893
    6.885    6.2665
    6.900    6.0734
    6.915    6.4595
    6.930    6.1962
    6.945    6.4244
    6.960    6.0734
    6.975    6.0558
    6.990    6.0734
    7.005    6.2138
    7.020    6.1436
    7.035    6.3016
    7.050    5.9329
    7.065    5.7925
    7.080    6.0207
    7.095    5.8627
    7.110    6.2489
    7.125    6.3542
    7.140    6.0558
    7.155    5.5819
    7.170    5.9856
    7.185    6.3542
    7.200    6.3893
    7.215    5.8101
    7.230    6.0734
    7.245    6.4771
    7.260    6.6000
    7.275    5.8101
    7.290    6.1085
    7.305    6.2665
    7.320    6.4244
    7.335    6.5473
    7.350    6.1962
    7.365    6.4946
    7.380    6.3718
    7.395    6.6702
    7.410    6.5473
    7.425    6.5649
    7.440    6.5649
    7.455    6.6000
    7.470    7.1266
    7.485    7.2143
    7.500    7.3547
    7.515    7.4776
    7.530    7.8111
    7.545    7.4776
    7.560    7.5654
    7.575    8.2149
    7.590    8.6186
    7.605    8.6010
    7.620    8.7414
    7.635    9.0047
    7.650    9.1627
    7.665   10.1983
    7.680   10.8303
    7.695   11.1638
    7.710   11.5148
    7.725   13.8845
    7.740   15.3063
    7.755   16.8861
    7.770   17.4127
    7.785   16.3419
    7.800   14.3935
    7.815   12.1292
    7.830   10.4265
    7.845    8.3202
    7.860    6.7053
    7.875    6.6000
    7.890    5.7750
    7.905    5.9329
    7.920    6.2840
    7.935    6.4771
    7.950    6.0909
    7.965    5.4415
    7.980    5.8803
    7.995    5.8101
    8.010    5.8803
    8.025    5.7399
    8.040    5.8276
    8.055    5.4415
    8.070    5.3712
    8.085    5.7399
    8.100    5.6697
    8.115    5.7750
    8.130    6.1611
    8.145    5.8101
    8.160    5.2659
    8.175    5.1782
    8.190    5.7925
    8.205    5.3361
    8.220    5.6872
    8.235    5.4766
    8.250    5.5468
    8.265    5.7223
    8.280    5.6697
    8.295    5.8978
    8.310    5.5643
    8.325    5.2133
    8.340    5.2659
    8.355    5.1606
    8.370    5.5468
    8.385    5.5994
    8.400    5.9329
    8.415    5.9154
    8.430    5.7399
    8.445    5.3361
    8.460    5.5994
    8.475    5.6872
    8.490    5.7223
    8.505    5.6697
    8.520    5.6170
    8.535    5.2133
    8.550    5.5117
    8.565    5.8452
    8.580    5.9505
    8.595    5.8803
    8.610    6.3718
    8.625    5.9856
    8.640    6.1436
    8.655    6.5298
    8.670    6.4069
    8.685    6.3191
    8.700    6.6877
    8.715    6.3191
    8.730    5.9154
    8.745    6.3542
    8.760    6.1962
    8.775    5.6170
    8.790    5.6521
    8.805    5.5819
    8.820    5.8276
    8.835    5.3010
    8.850    5.2133
    8.865    5.3010
    8.880    5.4766
    8.895    5.4766
    8.910    6.1260
    8.925    6.2840
    8.940    5.4766
    8.955    5.8101
    8.970    5.6697
    8.985    5.4941
    9.000    5.3010
    9.015    5.6521
    9.030    5.6872
    9.045    5.6521
    9.060    5.5994
    9.075    5.8978
    9.090    6.1260
    9.105    5.4590
    9.120    5.8803
    9.135    5.6872
    9.150    6.2138
    9.165    6.6351
    9.180    6.5649
    9.195    6.3367
    9.210    6.7404
    9.225    6.9335
    9.240    7.3547
    9.255    7.8989
    9.270    7.8813
    9.285    7.3196
    9.300    7.4250
    9.315    7.7936
    9.330    8.4430
    9.345    8.4606
    9.360    8.9345
    9.375    9.7771
    9.390   10.4265
    9.405   10.2159
    9.420   11.6202
    9.435   12.5329
    9.450   12.7787
    9.465   14.9026
    9.480   15.8680
    9.495   18.9925
    9.510   21.1690
    9.525   22.4153
    9.540   22.4855
    9.555   20.8355
    9.570   17.8866
    9.585   13.9898
    9.600   10.7249
    9.615    8.8117
    9.630    7.1968
    9.645    6.0909
    9.660    6.0207
    9.675    6.0207
    9.690    5.5468
    9.705    5.5292
    9.720    5.7574
    9.735    5.9329
    9.750    5.4941
    9.765    5.4590
    9.780    5.4415
    9.795    5.4239
    9.810    5.4415
    9.825    4.9500
    9.840    5.2308
    9.855    5.2484
    9.870    5.2484
    9.885    5.4064
    9.900    5.8978
    9.915    5.9329
    9.930    5.9154
    9.945    6.1611
    9.960    6.1085
    9.975    5.9154
    9.990    5.4941
   10.005    6.0909
   10.020    6.0558
   10.035    5.8276
   10.050    6.1962
   10.065    5.9856
   10.080    6.1260
   10.095    6.3016
   10.110    6.5122
   10.125    6.7053
   10.140    6.2665
   10.155    6.8633
   10.170    7.2494
   10.185    7.1266
   10.200    7.2845
   10.215    8.1622
   10.230    8.5484
   10.245    8.7590
   10.260    9.6191
   10.275   10.0930
   10.290   11.6026
   10.305   11.8308
   10.320   10.9882
   10.335   11.3920
   10.350    9.1452
   10.365    7.7585
   10.380    6.8808
   10.395    5.4415
   10.410    5.4941
   10.425    5.6872
   10.440    5.0377
   10.455    5.4064
   10.470    5.3712
   10.485    5.4590
   10.500    5.2308
   10.515    5.2659
   10.530    5.5994
   10.545    5.6345
   10.560    5.1782
   10.575    5.3361
   10.590    5.4941
   10.605    5.5117
   10.620    4.9149
   10.635    5.0377
   10.650    5.3361
   10.665    5.4239
   10.680    5.8452
   10.695    5.7750
   10.710    5.4064
   10.725    5.6872
   10.740    5.8803
   10.755    5.3010
   10.770    5.7925
   10.785    5.2659
   10.800    5.9154
   10.815    5.9681
   10.830    6.4420
   10.845    6.0032
   10.860    5.7574
   10.875    6.3191
   10.890    6.6175
   10.905    6.5122
   10.920    6.7755
   10.935    7.0739
   10.950    7.6005
   10.965    7.8813
   10.980    8.5133
   10.995    9.3382
   11.010   10.7074
   11.025   10.8478
   11.040   10.2686
   11.055   10.0053
   11.070    8.7765
   11.085    7.3021
   11.100    6.5122
   11.115    5.9505
   11.130    5.5117
   11.145    5.3186
   11.160    5.4415
   11.175    5.1255
   11.190    4.9324
   11.205    5.1606
   11.220    5.6345
   11.235    5.2659
   11.250    5.2659
   11.265    5.2484
   11.280    5.5292
   11.295    5.1431
   11.310    5.5117
   11.325    5.3186
   11.340    4.9500
   11.355    5.1957
   11.370    5.5292
   11.385    5.5468
   11.400    5.4766
   11.415    5.2484
   11.430    5.4590
   11.445    5.2133
   11.460    5.5468
   11.475    6.5649
   11.490    5.7750
   11.505    5.9856
   11.520    5.5994
   11.535    6.0383
   11.550    6.0558
   11.565    6.4069
   11.580    6.9861
   11.595    7.3899
   11.610    7.2670
   11.625    7.6180
   11.640    7.9691
   11.655    9.1803
   11.670   10.8127
   11.685   11.7781
   11.700   11.5675
   11.715   11.3393
   11.730    9.9351
   11.745    8.4606
   11.760    7.5654
   11.775    6.5298
   11.790    5.6521
   11.805    5.3712
   11.820    5.2484
   11.835    5.3537
   11.850    5.2484
   11.865    4.9675
   11.880    4.9675
   11.895    4.7042
   11.910    5.0026
   11.925    5.2659
   11.940    4.7920
   11.955    5.0202
   11.970    4.8973
   11.985    4.8447
   12.000    4.6867
   12.015    5.2308
   12.030    5.0026
   12.045    4.4760
   12.060    4.9851
   12.075    5.1782
   12.090    4.8095
   12.105    5.3888
   12.120    5.5117
   12.135    5.4415
   12.150    4.8447
   12.165    4.9149
   12.180    4.8271
   12.195    5.3186
   12.210    5.2484
   12.225    5.2308
   12.240    5.4415
   12.255    5.5643
   12.270    5.0553
   12.285    5.6345
   12.300    5.4415
   12.315    6.3016
   12.330    5.9154
   12.345    6.1962
   12.360    6.4946
   12.375    5.9329
   12.390    4.9851
   12.405    5.0553
   12.420    5.2133
   12.435    4.7218
   12.450    4.7569
   12.465    4.7569
   12.480    4.7920
   12.495    4.6165
   12.510    5.0377
   12.525    5.2484
   12.540    5.0553
   12.555    4.8447
   12.570    4.6867
   12.585    4.8798
   12.600    5.1431
   12.615    5.1080
   12.630    5.3186
   12.645    4.9675
   12.660    4.8622
   12.675    5.3361
   12.690    5.2659
   12.705    5.2308
   12.720    5.2659
   12.735    5.4064
   12.750    5.8452
   12.765    5.7223
   12.780    5.5994
   12.795    5.1080
   12.810    5.8276
   12.825    5.9681
   12.840    6.4420
   12.855    6.6351
   12.870    6.7053
   12.885    7.6883
   12.900    8.6361
   12.915    9.1101
   12.930    9.7946
   12.945   10.1281
   12.960    9.8999
   12.975    9.7420
   12.990    8.4430
   13.005    6.9510
   13.020    6.5473
   13.035    5.7048
   13.050    5.5468
   13.065    5.3712
   13.080    5.1080
   13.095    4.8271
   13.110    4.7920
   13.125    4.7569
   13.140    4.8095
   13.155    5.0553
   13.170    5.2835
   13.185    5.4239
   13.200    5.4590
   13.215    5.0553
   13.230    5.2133
   13.245    5.3361
   13.260    4.9851
   13.275    4.9324
   13.290    5.0377
   13.305    5.0202
   13.320    5.3712
   13.335    5.0026
   13.350    5.4590
   13.365    5.4239
   13.380    5.3361
   13.395    5.4064
   13.410    4.9500
   13.425    5.3888
   13.440    6.0207
   13.455    5.8276
   13.470    6.0383
   13.485    6.6526
   13.500    6.9335
   13.515    6.7579
   13.530    7.3899
   13.545    7.3547
   13.560    6.4595
   13.575    6.2840
   13.590    5.4239
   13.605    5.8101
   13.620    4.8798
   13.635    4.6867
   13.650    5.1255
   13.665    5.2308
   13.680    5.3186
   13.695    5.1080
   13.710    4.7920
   13.725    5.1606
   13.740    4.9324
   13.755    4.6340
   13.770    4.4234
   13.785    4.9324
   13.800    5.3537
   13.815    4.9675
   13.830    4.7744
   13.845    4.7744
   13.860    4.8095
   13.875    5.3186
   13.890    5.1080
   13.905    4.8271
   13.920    4.9851
   13.935    5.7750
   13.950    5.2659
   13.965    5.6872
   13.980    6.1085
   13.995    6.3718
   14.010    6.7930
   14.025    6.4244
   14.040    7.0037
   14.055    7.9340
   14.070    8.2324
   14.085    8.4430
   14.100    8.4606
   14.115    7.9164
   14.130    7.6356
   14.145    6.8106
   14.160    5.9329
   14.175    5.5819
   14.190    5.1957
   14.205    4.9851
   14.220    5.0026
   14.235    4.8271
   14.250    5.0904
   14.265    4.7744
   14.280    4.7393
   14.295    5.5994
   14.310    4.8271
   14.325    4.5814
   14.340    4.8271
   14.355    5.1431
   14.370    5.0728
   14.385    4.7569
   14.400    4.7744
   14.415    4.2830
   14.430    4.7218
   14.445    4.9675
   14.460    4.6165
   14.475    4.4936
   14.490    4.6165
   14.505    4.7744
   14.520    4.7218
   14.535    4.8095
   14.550    4.8622
   14.565    4.9149
   14.580    4.8622
   14.595    4.9500
   14.610    4.7393
   14.625    4.5814
   14.640    4.6165
   14.655    4.4936
   14.670    4.5638
   14.685    4.4234
   14.700    4.5463
   14.715    4.9149
   14.730    4.7744
   14.745    4.5638
   14.760    4.9500
   14.775    4.4936
   14.790    4.3005
   14.805    4.9500
   14.820    5.0026
   14.835    4.9324
   14.850    4.8798
   14.865    4.8973
   14.880    4.2654
   14.895    4.5111
   14.910    4.7569
   14.925    4.7218
   14.940    4.6516
   14.955    4.6516
   14.970    5.0026
   14.985    5.2835
   15.000    4.8271
   15.015    4.8447
   15.030    4.9324
   15.045    5.1606
   15.060    5.1255
   15.075    4.4409
   15.090    4.7393
   15.105    5.3888
   15.120    5.3010
   15.135    5.5994
   15.150    5.6170
   15.165    5.1080
   15.180    5.1782
   15.195    5.4415
   15.210    5.1080
   15.225    5.4239
   15.240    4.8271
   15.255    4.6165
   15.270    4.9851
   15.285    5.3010
   15.300    4.4585
   15.315    4.4234
   15.330    4.5111
   15.345    4.4936
   15.360    4.5287
   15.375    4.8095
   15.390    4.4760
   15.405    4.7042
   15.420    4.4234
   15.435    4.9324
   15.450    4.6516
   15.465    4.7569
   15.480    4.6165
   15.495    5.3888
   15.510    4.9851
   15.525    5.0202
   15.540    4.7744
   15.555    4.8798
   15.570    4.5463
   15.585    4.6867
   15.600    4.5989
   15.615    5.0728
   15.630    5.3186
   15.645    5.0904
   15.660    4.5989
   15.675    4.9675
   15.690    5.1431
   15.705    4.7042
   15.720    4.6691
   15.735    4.7920
   15.750    4.6516
   15.765    4.7744
   15.780    4.5287
   15.795    5.0553
   15.810    4.7042
   15.825    4.5989
   15.840    4.5463
   15.855    4.4058
   15.870    4.7218
   15.885    5.0377
   15.900    4.8095
   15.915    4.7042
   15.930    4.4936
   15.945    4.5287
   15.960    4.8798
   15.975    4.7920
   15.990    5.0202
   16.005    5.0377
   16.020    5.3186
   16.035    5.1431
   16.050    5.3010
   16.065    5.4941
   16.080    5.3186
   16.095    5.3537
   16.110    5.7223
   16.125    6.0558
   16.140    5.5994
   16.155    5.7750
   16.170    5.9681
   16.185    5.5292
   16.200    5.4415
   16.215    5.3186
   16.230    4.8973
   16.245    4.8973
   16.260    5.1255
   16.275    4.8095
   16.290    5.2835
   16.305    4.7042
   16.320    5.0026
   16.335    4.9149
   16.350    4.5989
   16.365    4.9851
   16.380    4.9851
   16.395    5.1255
   16.410    4.9851
   16.425    4.7920
   16.440    4.7744
   16.455    4.3707
   16.470    4.9851
   16.485    5.0904
   16.500    4.9324
   16.515    4.6867
   16.530    5.0904
   16.545    4.6165
   16.560    5.5819
   16.575    5.7048
   16.590    5.5117
   16.605    5.6170
   16.620    5.7574
   16.635    5.5643
   16.650    5.5994
   16.665    5.5117
   16.680    5.0202
   16.695    4.8447
   16.710    4.3005
   16.725    5.1255
   16.740    4.9851
   16.755    4.8271
   16.770    4.7393
   16.785    4.7042
   16.800    5.1431
   16.815    5.4415
   16.830    4.8798
   16.845    5.0553
   16.860    5.0904
   16.875    4.9851
   16.890    5.3361
   16.905    5.1957
   16.920    5.5117
   16.935    5.9154
   16.950    5.7574
   16.965    5.8101
   16.980    5.8627
   16.995    5.6872
   17.010    6.3718
   17.025    7.3723
   17.040    8.0920
   17.055    8.4079
   17.070    8.5659
   17.085    7.6180
   17.100    7.4776
   17.115    7.3196
   17.130    6.2138
   17.145    5.2659
   17.160    5.6170
   17.175    5.2835
   17.190    5.0553
   17.205    4.6340
   17.220    4.7920
   17.235    4.8447
   17.250    5.1080
   17.265    4.7569
   17.280    5.1957
   17.295    5.2659
   17.310    4.7744
   17.325    5.0026
   17.340    4.6691
   17.355    5.0728
   17.370    5.1255
   17.385    4.8447
   17.400    4.9675
   17.415    4.7744
   17.430    4.7920
   17.445    4.9675
   17.460    5.0728
   17.475    5.0728
   17.490    4.8095
   17.505    5.0904
   17.520    5.3010
   17.535    5.2484
   17.550    5.1606
   17.565    5.3010
   17.580    5.1957
   17.595    5.0202
   17.610    4.6165
   17.625    5.2835
   17.640    4.6691
   17.655    4.5989
   17.670    4.8095
   17.685    4.7218
   17.700    5.0377
   17.715    5.1255
   17.730    4.5814
   17.745    4.3883
   17.760    4.7920
   17.775    4.7920
   17.790    4.9149
   17.805    5.3888
   17.820    4.9324
   17.835    4.8798
   17.850    4.8447
   17.865    4.7393
   17.880    5.2133
   17.895    5.1782
   17.910    5.2308
   17.925    5.2308
   17.940    5.2835
   17.955    5.4415
   17.970    5.1606
   17.985    5.5994
   18.000    5.4766
   18.015    5.3888
   18.030    4.7218
   18.045    5.3361
   18.060    5.1606
   18.075    5.0026
   18.090    4.8622
   18.105    4.9324
   18.120    4.9149
   18.135    4.8447
   18.150    4.8447
   18.165    4.7218
   18.180    5.0202
   18.195    5.1431
   18.210    5.1080
   18.225    4.4936
   18.240    4.5814
   18.255    4.9675
   18.270    5.4064
   18.285    5.4064
   18.300    5.1782
   18.315    5.1255
   18.330    5.5994
   18.345    5.4239
   18.360    5.4064
   18.375    5.8276
   18.390    5.8101
   18.405    5.7925
   18.420    5.6345
   18.435    5.0026
   18.450    5.0202
   18.465    5.2308
   18.480    5.0026
   18.495    4.4936
   18.510    4.4234
   18.525    4.7042
   18.540    4.8271
   18.555    4.8622
   18.570    5.1431
   18.585    4.9851
   18.600    5.0553
   18.615    4.5989
   18.630    4.5463
   18.645    5.2484
   18.660    4.9851
   18.675    4.7569
   18.690    4.4058
   18.705    4.8622
   18.720    4.8973
   18.735    5.1255
   18.750    5.1606
   18.765    5.1606
   18.780    4.9500
   18.795    4.8798
   18.810    5.4766
   18.825    5.4941
   18.840    5.3537
   18.855    4.9324
   18.870    4.5989
   18.885    4.7920
   18.900    5.2133
   18.915    4.9324
   18.930    4.9851
   18.945    4.7920
   18.960    4.9851
   18.975    5.2484
   18.990    5.3186
   19.005    4.6516
   19.020    4.7744
   19.035    5.0728
   19.050    4.6165
   19.065    4.4936
   19.080    4.9500
   19.095    4.5989
   19.110    4.6867
   19.125    4.7393
   19.140    4.8271
   19.155    5.0553
   19.170    5.0728
   19.185    5.0377
   19.200    5.2484
   19.215    4.8798
   19.230    4.9500
   19.245    4.8095
   19.260    4.7569
   19.275    4.7744
   19.290    4.7393
   19.305    4.7920
   19.320    4.7042
   19.335    4.5463
   19.350    4.4234
   19.365    4.6867
   19.380    4.7920
   19.395    4.9324
   19.410    4.8798
   19.425    4.8271
   19.440    4.7744
   19.455    5.0026
   19.470    4.6867
   19.485    4.6340
   19.500    4.7218
   19.515    5.1957
   19.530    5.5994
   19.545    5.1606
   19.560    5.8452
   19.575    6.4244
   19.590    5.7574
   19.605    5.3888
   19.620    5.4766
   19.635    5.6170
   19.650    5.4590
   19.665    5.6872
   19.680    5.4415
   19.695    5.3712
   19.710    4.8622
   19.725    4.5814
   19.740    4.5463
   19.755    4.8798
   19.770    4.7920
   19.785    4.6691
   19.800    4.3532
   19.815    4.6867
   19.830    4.5814
   19.845    4.6516
   19.860    4.7744
   19.875    5.0728
   19.890    4.5814
   19.905    5.0202
   19.920    4.8095
   19.935    4.5814
   19.950    4.7569
   19.965    4.9500
   19.980    4.7393
   19.995    4.8973
   20.010    4.9851
   20.025    5.3712
   20.040    4.9500
   20.055    4.6165
   20.070    4.8271
   20.085    5.2133
   20.100    4.8798
   20.115    4.8447
   20.130    4.4936
   20.145    4.9500
   20.160    5.0377
   20.175    5.0904
   20.190    4.7569
   20.205    5.0377
   20.220    5.3186
   20.235    5.4941
   20.250    5.2835
   20.265    5.2484
   20.280    5.7223
   20.295    5.7750
   20.310    5.8627
   20.325    6.4069
   20.340    6.9159
   20.355    7.0563
   20.370    7.2670
   20.385    7.4425
   20.400    7.7409
   20.415    7.0212
   20.430    6.6702
   20.445    5.9856
   20.460    5.4415
   20.475    5.5468
   20.490    5.3361
   20.505    5.3712
   20.520    5.0377
   20.535    4.8447
   20.550    4.9324
   20.565    4.9500
   20.580    4.8095
   20.595    5.0202
   20.610    4.9675
   20.625    4.6340
   20.640    4.8447
   20.655    5.3361
   20.670    5.0553
   20.685    4.4234
   20.700    4.2830
   20.715    4.5463
   20.730    4.8095
   20.745    5.1431
   20.760    5.1255
   20.775    5.0904
   20.790    5.2835
   20.805    4.8095
   20.820    4.8095
   20.835    4.8447
   20.850    4.8095
   20.865    4.4936
   20.880    4.6516
   20.895    4.6340
   20.910    4.6691
   20.925    5.0728
   20.940    4.9851
   20.955    4.7569
   20.970    5.1431
   20.985    5.1080
   21.000    4.5638
   21.015    4.8095
   21.030    4.5287
   21.045    4.6340
   21.060    4.6867
   21.075    4.8798
   21.090    5.1431
   21.105    5.1080
   21.120    4.7744
   21.135    4.5638
   21.150    5.1431
   21.165    4.6867
   21.180    4.7218
   21.195    4.9324
   21.210    4.9149
   21.225    4.8271
   21.240    4.8271
   21.255    4.9149
   21.270    4.9149
   21.285    5.0904
   21.300    4.9149
   21.315    5.0377
   21.330    4.8798
   21.345    4.9851
   21.360    4.9851
   21.375    4.8095
   21.390    4.6691
   21.405    5.1255
   21.420    4.9149
   21.435    5.1080
   21.450    5.3186
   21.465    4.8271
   21.480    4.5287
   21.495    4.9675
   21.510    4.5814
   21.525    4.8622
   21.540    5.3010
   21.555    4.4585
   21.570    4.7393
   21.585    5.0202
   21.600    5.0377
   21.615    4.6340
   21.630    4.4058
   21.645    4.7218
   21.660    4.9675
   21.675    4.8095
   21.690    4.8798
   21.705    4.9324
   21.720    5.0728
   21.735    5.4590
   21.750    4.9500
   21.765    4.9500
   21.780    5.3888
   21.795    5.3361
   21.810    4.8447
   21.825    5.6170
   21.840    5.9856
   21.855    6.0032
   21.870    5.8803
   21.885    5.9681
   21.900    5.5994
   21.915    5.4239
   21.930    5.5292
   21.945    5.5292
   21.960    5.2835
   21.975    5.0026
   21.990    5.0377
   22.005    5.3010
   22.020    5.3888
   22.035    5.0728
   22.050    4.7920
   22.065    4.8447
   22.080    5.2133
   22.095    5.0377
   22.110    5.3010
   22.125    4.6691
   22.140    4.8095
   22.155    5.4766
   22.170    5.4941
   22.185    5.4941
   22.200    5.6170
   22.215    5.5117
   22.230    5.5819
   22.245    5.7399
   22.260    5.4941
   22.275    5.2659
   22.290    5.1255
   22.305    4.7569
   22.320    5.5117
   22.335    5.2133
   22.350    5.0377
   22.365    4.7744
   22.380    4.6516
   22.395    5.1255
   22.410    5.0728
   22.425    5.0026
   22.440    5.4766
   22.455    5.1782
   22.470    5.4941
   22.485    5.7223
   22.500    5.4415
   22.515    6.1085
   22.530    7.0388
   22.545    7.0212
   22.560    7.6707
   22.575    7.8111
   22.590    8.2149
   22.605    7.6707
   22.620    6.8633
   22.635    6.1962
   22.650    6.6000
   22.665    5.9681
   22.680    5.6697
   22.695    5.3712
   22.710    5.1782
   22.725    5.3010
   22.740    5.2484
   22.755    5.2659
   22.770    5.0728
   22.785    5.2133
   22.800    5.6872
   22.815    5.4941
   22.830    6.0207
   22.845    5.4766
   22.860    6.2489
   22.875    6.6175
   22.890    7.4250
   22.905    7.7058
   22.920    7.8287
   22.935    7.4074
   22.950    7.3021
   22.965    7.2670
   22.980    7.0563
   22.995    6.4946
   23.010    6.4069
   23.025    5.5468
   23.040    5.5117
   23.055    5.1782
   23.070    5.3361
   23.085    5.3888
   23.100    5.1606
   23.115    4.8447
   23.130    4.8798
   23.145    5.0202
   23.160    5.1782
   23.175    5.0377
   23.190    5.2659
   23.205    5.3537
   23.220    5.3888
   23.235    5.7925
   23.250    5.8452
   23.265    5.9505
   23.280    5.6697
   23.295    6.4420
   23.310    6.0032
   23.325    5.0377
   23.340    5.1606
   23.355    4.8973
   23.370    4.7569
   23.385    4.7218
   23.400    4.5989
   23.415    4.9851
   23.430    5.2308
   23.445    5.3010
   23.460    4.9500
   23.475    4.8798
   23.490    4.5287
   23.505    4.3356
   23.520    4.5814
   23.535    4.6516
   23.550    4.6691
   23.565    5.0728
   23.580    4.7920
   23.595    5.1080
   23.610    5.0728
   23.625    5.1080
   23.640    5.1957
   23.655    4.8447
   23.670    4.7218
   23.685    5.0202
   23.700    4.7393
   23.715    4.7042
   23.730    4.5638
   23.745    5.1080
   23.760    4.8095
   23.775    4.5814
   23.790    4.8622
   23.805    5.2659
   23.820    5.0904
   23.835    4.8798
   23.850    5.2133
   23.865    5.2659
   23.880    5.0904
   23.895    5.3888
   23.910    4.9851
   23.925    5.3010
   23.940    5.3186
   23.955    5.0728
   23.970    5.2484
   23.985    5.1080
   24.000    4.8973
   24.015    5.2484
   24.030    5.1957
   24.045    4.4585
   24.060    4.8798
   24.075    4.8447
   24.090    4.7218
   24.105    4.7042
   24.120    5.0202
   24.135    4.6165
   24.150    4.8447
   24.165    5.0904
   24.180    4.5989
   24.195    4.7042
   24.210    5.3010
   24.225    4.7393
   24.240    4.9500
   24.255    4.7393
   24.270    5.3186
   24.285    4.8095
   24.300    5.1080
   24.315    5.1606
   24.330    4.9324
   24.345    4.8271
   24.360    4.7569
   24.375    4.3532
   24.390    5.0202
   24.405    4.5463
   24.420    4.4585
   24.435    4.5463
   24.450    4.5287
   24.465    4.5287
   24.480    4.5111
   24.495    4.8271
   24.510    4.6340
   24.525    4.6691
   24.540    4.9149
   24.555    4.9675
   24.570    5.0553
   24.585    5.1431
   24.600    4.7569
   24.615    5.2659
   24.630    5.0553
   24.645    5.1606
   24.660    4.8095
   24.675    4.8271
   24.690    4.5814
   24.705    4.4058
   24.720    4.8095
   24.735    4.6516
   24.750    4.8447
   24.765    5.0377
   24.780    5.2835
   24.795    5.0904
   24.810    4.5287
   24.825    5.0202
   24.840    4.4760
   24.855    4.6165
   24.870    4.7393
   24.885    5.0728
   24.900    4.6867
   24.915    4.7042
   24.930    4.8271
   24.945    4.8271
   24.960    4.5989
   24.975    4.8798
   24.990    4.4058
   25.005    4.8271
   25.020    4.5463
   25.035    4.5638
   25.050    4.7042
   25.065    4.4585
   25.080    4.5111
   25.095    4.7744
   25.110    4.9675
   25.125    4.8973
   25.140    4.6691
   25.155    5.0904
   25.170    4.9675
   25.185    4.8973
   25.200    5.1431
   25.215    5.3537
   25.230    5.0904
   25.245    4.8447
   25.260    4.6867
   25.275    5.0904
   25.290    4.7744
   25.305    4.9149
   25.320    4.8973
   25.335    4.7744
   25.350    4.7920
   25.365    4.8973
   25.380    4.4585
   25.395    4.8798
   25.410    4.7569
   25.425    4.7569
   25.440    4.7218
   25.455    4.6691
   25.470    5.2659
   25.485    5.0026
   25.500    5.1782
   25.515    4.5638
   25.530    4.9851
   25.545    4.8798
   25.560    4.6691
   25.575    4.6691
   25.590    5.4590
   25.605    5.0026
   25.620    4.8271
   25.635    4.7042
   25.650    4.8798
   25.665    4.7042
   25.680    5.1080
   25.695    4.9149
   25.710    4.8095
   25.725    4.9324
   25.740    5.1431
   25.755    5.2484
   25.770    5.4590
   25.785    6.0383
   25.800    6.7930
   25.815    6.7755
   25.830    6.9335
   25.845    6.5298
   25.860    6.6702
   25.875    6.2840
   25.890    6.3893
   25.905    5.7750
   25.920    5.6170
   25.935    5.1782
   25.950    5.0904
   25.965    4.7218
   25.980    4.8095
   25.995    4.5989
   26.010    4.9851
   26.025    4.5989
   26.040    4.9500
   26.055    5.0026
   26.070    4.5989
   26.085    4.3883
   26.100    4.9851
   26.115    5.0202
   26.130    5.0202
   26.145    4.7920
   26.160    4.5287
   26.175    4.7920
   26.190    5.1080
   26.205    4.6340
   26.220    4.7393
   26.235    4.9851
   26.250    4.3181
   26.265    4.2654
   26.280    4.4936
   26.295    4.9149
   26.310    4.8271
   26.325    4.5111
   26.340    5.0904
   26.355    5.0026
   26.370    4.8622
   26.385    5.1606
   26.400    5.0026
   26.415    5.1606
   26.430    5.2484
   26.445    5.2308
   26.460    5.0553
   26.475    5.1431
   26.490    4.9851
   26.505    4.7744
   26.520    4.8798
   26.535    4.7920
   26.550    4.9675
   26.565    4.7744
   26.580    4.4058
   26.595    4.5463
   26.610    4.6165
   26.625    4.3532
   26.640    4.4058
   26.655    4.6165
   26.670    4.6165
   26.685    4.5989
   26.700    4.4234
   26.715    4.8622
   26.730    4.5989
   26.745    4.3532
   26.760    4.1952
   26.775    4.5638
   26.790    4.3005
   26.805    4.2127
   26.820    4.5989
   26.835    4.4234
   26.850    4.7744
   26.865    4.5111
   26.880    4.4058
   26.895    4.5463
   26.910    4.5287
   26.925    4.5814
   26.940    4.7920
   26.955    4.3883
   26.970    4.8973
   26.985    4.7569
   27.000    5.1782
   27.015    4.8095
   27.030    5.3186
   27.045    5.1606
   27.060    5.1782
   27.075    5.7048
   27.090    4.9851
   27.105    5.0553
   27.120    4.7744
   27.135    4.1425
   27.150    4.8798
   27.165    4.7920
   27.180    4.7569
   27.195    4.8271
   27.210    4.6165
   27.225    4.7042
   27.240    4.3532
   27.255    4.5638
   27.270    4.7218
   27.285    4.4936
   27.300    4.7218
   27.315    4.6516
   27.330    4.6165
   27.345    4.4409
   27.360    4.5463
   27.375    4.7218
   27.390    4.7393
   27.405    3.9670
   27.420    3.9846
   27.435    4.3532
   27.450    4.4234
   27.465    4.8271
   27.480    4.3356
   27.495    4.4936
   27.510    4.7920
   27.525    4.4058
   27.540    4.7744
   27.555    4.5111
   27.570    4.9149
   27.585    5.2484
   27.600    5.1431
   27.615    5.3361
   27.630    5.2484
   27.645    4.7744
   27.660    5.1080
   27.675    4.7042
   27.690    4.5463
   27.705    4.8622
   27.720    4.9675
   27.735    4.5814
   27.750    4.1425
   27.765    4.0899
   27.780    4.5638
   27.795    4.5814
   27.810    4.4585
   27.825    4.6165
   27.840    4.5111
   27.855    4.3532
   27.870    4.5814
   27.885    4.4760
   27.900    4.5111
   27.915    4.2654
   27.930    4.2830
   27.945    4.6340
   27.960    4.4760
   27.975    4.5463
   27.990    4.3181
   28.005    4.3181
   28.020    4.6165
   28.035    4.6867
   28.050    4.7393
   28.065    4.3181
   28.080    4.2303
   28.095    4.5463
   28.110    4.8095
   28.125    4.8447
   28.140    4.7920
   28.155    4.8271
   28.170    5.3361
   28.185    5.4941
   28.200    5.1606
   28.215    4.9500
   28.230    4.8271
   28.245    4.7218
   28.260    4.5111
   28.275    4.7218
   28.290    4.3532
   28.305    4.4409
   28.320    4.7393
   28.335    4.5111
   28.350    4.4760
   28.365    4.5638
   28.380    5.2308
   28.395    4.6516
   28.410    4.9675
   28.425    5.4064
   28.440    4.9851
   28.455    5.0202
   28.470    5.3186
   28.485    5.0553
   28.500    5.0026
   28.515    5.0553
   28.530    4.6340
   28.545    5.0904
   28.560    4.4760
   28.575    4.4058
   28.590    4.4409
   28.605    4.3883
   28.620    4.4234
   28.635    4.4058
   28.650    4.4409
   28.665    4.7218
   28.680    4.5287
   28.695    4.3356
   28.710    4.4234
   28.725    4.3356
   28.740    4.5111
   28.755    4.2478
   28.770    4.4409
   28.785    4.1425
   28.800    4.1074
   28.815    4.2303
   28.830    3.8266
   28.845    4.3356
   28.860    4.3181
   28.875    4.2303
   28.890    4.6165
   28.905    4.5111
   28.920    4.2830
   28.935    4.3883
   28.950    4.7744
   28.965    4.3883
   28.980    4.4760
   28.995    4.9500
   29.010    4.4585
   29.025    4.2478
   29.040    4.4760
   29.055    4.3356
   29.070    4.1952
   29.085    4.5989
   29.100    4.1425
   29.115    4.3707
   29.130    4.0723
   29.145    4.4234
   29.160    4.6340
   29.175    4.6867
   29.190    4.6165
   29.205    4.2654
   29.220    4.5111
   29.235    4.5463
   29.250    4.9149
   29.265    5.0026
   29.280    4.8271
   29.295    4.9500
   29.310    4.7569
   29.325    4.6867
   29.340    4.5638
   29.355    4.7744
   29.370    4.6691
   29.385    4.7042
   29.400    4.6516
   29.415    4.1425
   29.430    4.3883
   29.445    4.6867
   29.460    4.5638
   29.475    4.4936
   29.490    3.7739
   29.505    4.1074
   29.520    4.3181
   29.535    3.8266
   29.550    4.2478
   29.565    4.3005
   29.580    4.3883
   29.595    4.0021
   29.610    3.8617
   29.625    3.7739
   29.640    3.7915
   29.655    4.4409
   29.670    4.6691
   29.685    4.4058
   29.700    4.1425
   29.715    4.3707
   29.730    4.2654
   29.745    4.5463
   29.760    4.5638
   29.775    4.4936
   29.790    4.6165
   29.805    4.7920
   29.820    4.6867
   29.835    4.2127
   29.850    4.7393
   29.865    4.5814
   29.880    4.3005
   29.895    4.5463
   29.910    4.7042
   29.925    4.3005
   29.940    4.2127
   29.955    4.6867
   29.970    4.4409
   29.985    4.6165
   30.000    4.3005
   30.015    3.9846
   30.030    4.2127
   30.045    4.1074
   30.060    3.9846
   30.075    4.2127
   30.090    4.3356
   30.105    4.3883
   30.120    4.5638
   30.135    4.6867
   30.150    4.5463
   30.165    4.2303
   30.180    4.0899
   30.195    3.9846
   30.210    3.9670
   30.225    3.8968
   30.240    4.3356
   30.255    4.7042
   30.270    3.8266
   30.285    3.9494
   30.300    4.1074
   30.315    4.2830
   30.330    5.0026
   30.345    4.4234
   30.360    4.0899
   30.375    4.2127
   30.390    4.0372
   30.405    4.2478
   30.420    4.2478
   30.435    3.9670
   30.450    4.0899
   30.465    4.5463
   30.480    4.4234
   30.495    4.7393
   30.510    4.4058
   30.525    4.1250
   30.540    3.9143
   30.555    4.1952
   30.570    4.0899
   30.585    4.4058
   30.600    4.3005
   30.615    4.5287
   30.630    4.7920
   30.645    4.7744
   30.660    4.4585
   30.675    4.4409
   30.690    4.2478
   30.705    4.4936
   30.720    4.5814
   30.735    4.1952
   30.750    4.3356
   30.765    4.5463
   30.780    4.0548
   30.795    3.9494
   30.810    3.6686
   30.825    4.3005
   30.840    4.2478
   30.855    3.9143
   30.870    4.7393
   30.885    4.3181
   30.900    3.7915
   30.915    4.4234
   30.930    3.9319
   30.945    4.1601
   30.960    3.9846
   30.975    4.1776
   30.990    4.5111
   31.005    4.3532
   31.020    4.3005
   31.035    4.1074
   31.050    4.3883
   31.065    4.0899
   31.080    4.1776
   31.095    3.8441
   31.110    3.9319
   31.125    4.1952
   31.140    4.0723
   31.155    4.3005
   31.170    4.5463
   31.185    4.2830
   31.200    4.0372
   31.215    3.9319
   31.230    4.1250
   31.245    4.0372
   31.260    4.0899
   31.275    4.1601
   31.290    3.8441
   31.305    4.0723
   31.320    4.2830
   31.335    4.2303
   31.350    4.4234
   31.365    4.1952
   31.380    4.3532
   31.395    4.4409
   31.410    4.5814
   31.425    4.7744
   31.440    4.7920
   31.455    4.3883
   31.470    4.1776
   31.485    4.3181
   31.500    4.4760
   31.515    4.0723
   31.530    3.7915
   31.545    3.8617
   31.560    4.3532
   31.575    4.1601
   31.590    3.9846
   31.605    4.1425
   31.620    4.0372
   31.635    4.0723
   31.650    4.1425
   31.665    3.8090
   31.680    4.3005
   31.695    4.6165
   31.710    4.1601
   31.725    4.1952
   31.740    4.1952
   31.755    3.9846
   31.770    4.3181
   31.785    4.2127
   31.800    4.1250
   31.815    4.4234
   31.830    4.5989
   31.845    4.4234
   31.860    4.1952
   31.875    3.9494
   31.890    3.7739
   31.905    4.3883
   31.920    4.1601
   31.935    4.0372
   31.950    4.1601
   31.965    4.0021
   31.980    4.1250
   31.995    4.1601
   32.010    4.2303
   32.025    3.9494
   32.040    3.8090
   32.055    4.1601
   32.070    4.0372
   32.085    4.1601
   32.100    3.9143
   32.115    3.7564
   32.130    4.1952
   32.145    3.8617
   32.160    4.0723
   32.175    4.4058
   32.190    4.6867
   32.205    4.4409
   32.220    4.3883
   32.235    4.1074
   32.250    3.8617
   32.265    3.6159
   32.280    4.0723
   32.295    4.3532
   32.310    4.1074
   32.325    4.0021
   32.340    4.2830
   32.355    4.2654
   32.370    3.9319
   32.385    3.9670
   32.400    3.8266
   32.415    4.2127
   32.430    4.0021
   32.445    4.4760
   32.460    3.9143
   32.475    3.8090
   32.490    4.2127
   32.505    4.0372
   32.520    4.1250
   32.535    4.1601
   32.550    4.0723
   32.565    4.3532
   32.580    4.2127
   32.595    4.1952
   32.610    3.6686
   32.625    3.8266
   32.640    4.1074
   32.655    4.3532
   32.670    4.2303
   32.685    4.1952
   32.700    4.5111
   32.715    4.0197
   32.730    3.9670
   32.745    3.7564
   32.760    3.7739
   32.775    4.1952
   32.790    4.1425
   32.805    4.1074
   32.820    3.6862
   32.835    4.0021
   32.850    4.3005
   32.865    4.0372
   32.880    4.4058
   32.895    4.2303
   32.910    4.3181
   32.925    4.2654
   32.940    4.3181
   32.955    4.4234
   32.970    3.7915
   32.985    4.1074
   33.000    4.0197
   33.015    3.9846
   33.030    3.4931
   33.045    3.7739
   33.060    4.1250
   33.075    4.0723
   33.090    4.1425
   33.105    3.8617
   33.120    4.1952
   33.135    3.9494
   33.150    3.9319
   33.165    4.0899
   33.180    4.0372
   33.195    4.0372
   33.210    4.2127
   33.225    4.0723
   33.240    4.2127
   33.255    4.1074
   33.270    4.0021
   33.285    3.4229
   33.300    3.2649
   33.315    3.5457
   33.330    3.9143
   33.345    4.4058
   33.360    3.9670
   33.375    4.1250
   33.390    3.9494
   33.405    3.8441
   33.420    3.5633
   33.435    3.9319
   33.450    3.9143
   33.465    3.9670
   33.480    3.6686
   33.495    4.3181
   33.510    3.9670
   33.525    4.1074
   33.540    4.0372
   33.555    3.9670
   33.570    4.2127
   33.585    3.9319
   33.600    3.8792
   33.615    3.7388
   33.630    3.7213
   33.645    4.0899
   33.660    4.2127
   33.675    3.7915
   33.690    4.1425
   33.705    4.1074
   33.720    4.3005
   33.735    4.1952
   33.750    3.5984
   33.765    3.8090
   33.780    3.9494
   33.795    4.1250
   33.810    4.0372
   33.825    4.1952
   33.840    4.0197
   33.855    4.1425
   33.870    4.2654
   33.885    3.8266
   33.900    4.4058
   33.915    4.4234
   33.930    4.0723
   33.945    4.5638
   33.960    4.5287
   33.975    4.3181
   33.990    4.3532
   34.005    4.1074
   34.020    3.8441
   34.035    3.9319
   34.050    3.9143
   34.065    3.8792
   34.080    3.8617
   34.095    3.8090
   34.110    4.2478
   34.125    4.1074
   34.140    3.8968
   34.155    3.8266
   34.170    4.3707
   34.185    3.8968
   34.200    4.1425
   34.215    4.2303
   34.230    3.8090
   34.245    3.7388
   34.260    3.6510
   34.275    3.8792
   34.290    4.1074
   34.305    3.7213
   34.320    3.5808
   34.335    4.1776
   34.350    4.1425
   34.365    4.3883
   34.380    3.7037
   34.395    3.9494
   34.410    3.8441
   34.425    3.9670
   34.440    3.9494
   34.455    4.2127
   34.470    4.0899
   34.485    3.9143
   34.500    3.5984
   34.515    3.8266
   34.530    4.0197
   34.545    3.5808
   34.560    3.8792
   34.575    3.8441
   34.590    3.8090
   34.605    3.8441
   34.620    3.8266
   34.635    3.7915
   34.650    3.9846
   34.665    4.1250
   34.680    3.8266
   34.695    3.6510
   34.710    3.4755
   34.725    3.7564
   34.740    3.9846
   34.755    3.9319
   34.770    4.0372
   34.785    3.9319
   34.800    4.1425
   34.815    3.9494
   34.830    4.0021
   34.845    4.0723
   34.860    4.4936
   34.875    3.8617
   34.890    3.5457
   34.905    3.8441
   34.920    3.5106
   34.935    3.6862
   34.950    3.9494
   34.965    3.9846
   34.980    4.0197
   34.995    3.7739
   35.010    3.6510
   35.025    3.9319
   35.040    3.9846
   35.055    3.4931
   35.070    3.6159
   35.085    3.6686
   35.100    3.8441
   35.115    3.7915
   35.130    3.9670
   35.145    3.5457
   35.160    3.7564
   35.175    3.7739
   35.190    3.6335
   35.205    3.8968
   35.220    3.7388
   35.235    3.9846
   35.250    3.8090
   35.265    3.8441
   35.280    3.6862
   35.295    3.5282
   35.310    3.9143
   35.325    4.1601
   35.340    3.8090
   35.355    3.7564
   35.370    3.8968
   35.385    3.4931
   35.400    3.7213
   35.415    3.8090
   35.430    4.1250
   35.445    3.8090
   35.460    3.7915
   35.475    3.7739
   35.490    3.3877
   35.505    3.7915
   35.520    3.6159
   35.535    3.2649
   35.550    3.7388
   35.565    4.0372
   35.580    3.8266
   35.595    3.6335
   35.610    3.6862
   35.625    3.6335
   35.640    3.6510
   35.655    3.3702
   35.670    3.5457
   35.685    3.4931
   35.700    3.6510
   35.715    3.9846
   35.730    3.9846
   35.745    4.0548
   35.760    4.0197
   35.775    3.7037
   35.790    3.9143
   35.805    3.7564
   35.820    4.1074
   35.835    4.0723
   35.850    3.6510
   35.865    3.4755
   35.880    3.7388
   35.895    3.7388
   35.910    4.0899
   35.925    4.0899
   35.940    3.6159
   35.955    3.8266
   35.970    3.4755
   35.985    3.7213
   36.000    4.0372
   36.015    3.4755
   36.030    3.7564
   36.045    3.9494
   36.060    3.9319
   36.075    4.1601
   36.090    3.9319
   36.105    3.6335
   36.120    3.6510
   36.135    3.7564
   36.150    3.7213
   36.165    3.7564
   36.180    3.9670
   36.195    4.0548
   36.210    3.6862
   36.225    3.4404
   36.240    3.6335
   36.255    3.7915
   36.270    3.7037
   36.285    3.8090
   36.300    3.8266
   36.315    3.8441
   36.330    3.6159
   36.345    3.9494
   36.360    3.9143
   36.375    3.7739
   36.390    3.6686
   36.405    3.5282
   36.420    3.8617
   36.435    3.8090
   36.450    3.9670
   36.465    3.6159
   36.480    3.6159
   36.495    4.0197
   36.510    3.5633
   36.525    3.7739
   36.540    3.6686
   36.555    3.9143
   36.570    4.2303
   36.585    3.6510
   36.600    4.2303
   36.615    3.8441
   36.630    3.7388
   36.645    4.0021
   36.660    3.8792
   36.675    3.8441
   36.690    3.7739
   36.705    3.3000
   36.720    3.6862
   36.735    3.7213
   36.750    3.4053
   36.765    3.4404
   36.780    3.6335
   36.795    3.7213
   36.810    3.7388
   36.825    3.8792
   36.840    3.8792
   36.855    3.8968
   36.870    3.4755
   36.885    3.5106
   36.900    3.7564
   36.915    3.5633
   36.930    3.2824
   36.945    3.4229
   36.960    3.5106
   36.975    3.8266
   36.990    3.8441
   37.005    3.8441
   37.020    3.6510
   37.035    3.6686
   37.050    4.0372
   37.065    4.1601
   37.080    4.0899
   37.095    4.2654
   37.110    3.9319
   37.125    4.2478
   37.140    4.2127
   37.155    4.0723
   37.170    4.1074
   37.185    3.6335
   37.200    3.6862
   37.215    3.6159
   37.230    3.7388
   37.245    3.7564
   37.260    3.9670
   37.275    3.8792
   37.290    3.7915
   37.305    3.5106
   37.320    3.3877
   37.335    3.4755
   37.350    3.7388
   37.365    3.8968
   37.380    3.5457
   37.395    3.6862
   37.410    3.7213
   37.425    3.4580
   37.440    3.8266
   37.455    3.9143
   37.470    3.6335
   37.485    3.6686
   37.500    3.4053
   37.515    3.5633
   37.530    3.7388
   37.545    3.6510
   37.560    3.6862
   37.575    3.7564
   37.590    4.1776
   37.605    3.5808
   37.620    3.7915
   37.635    3.6510
   37.650    4.1952
   37.665    3.7037
   37.680    3.4053
   37.695    3.6510
   37.710    3.6159
   37.725    3.5282
   37.740    3.2649
   37.755    3.3351
   37.770    3.5106
   37.785    3.5808
   37.800    3.7213
   37.815    3.6686
   37.830    4.0548
   37.845    3.9670
   37.860    3.5984
   37.875    3.4931
   37.890    3.4755
   37.905    4.0899
   37.920    3.9319
   37.935    3.7739
   37.950    3.6510
   37.965    3.8617
   37.980    3.8792
   37.995    3.7564
   38.010    3.9670
   38.025    3.5633
   38.040    3.4931
   38.055    3.9143
   38.070    3.8266
   38.085    3.4404
   38.100    3.4931
   38.115    3.6686
   38.130    3.7213
   38.145    3.7564
   38.160    3.4053
   38.175    3.4580
   38.190    3.6686
   38.205    3.9319
   38.220    3.7564
   38.235    3.5282
   38.250    3.4404
   38.265    3.5808
   38.280    3.3000
   38.295    3.4229
   38.310    3.3000
   38.325    3.6335
   38.340    3.9494
   38.355    3.5282
   38.370    3.9143
   38.385    3.9494
   38.400    3.5106
   38.415    3.4755
   38.430    3.6862
   38.445    3.6159
   38.460    3.7213
   38.475    3.7213
   38.490    3.3175
   38.505    3.6686
   38.520    3.3702
   38.535    3.7388
   38.550    3.8617
   38.565    3.9670
   38.580    3.4053
   38.595    3.6510
   38.610    3.5984
   38.625    3.7564
   38.640    3.6510
   38.655    4.0197
   38.670    3.8266
   38.685    3.4580
   38.700    3.8266
   38.715    3.4580
   38.730    3.4053
   38.745    3.3175
   38.760    3.5984
   38.775    3.8090
   38.790    3.8441
   38.805    3.6159
   38.820    3.8617
   38.835    3.9670
   38.850    4.1250
   38.865    4.0548
   38.880    3.5457
   38.895    3.2298
   38.910    3.6510
   38.925    3.7213
   38.940    3.5457
   38.955    3.4053
   38.970    3.4931
   38.985    3.5808
   39.000    3.2298
   39.015    3.0718
   39.030    3.7037
   39.045    3.5984
   39.060    3.4931
   39.075    4.0021
   39.090    3.3702
   39.105    3.6159
   39.120    3.6686
   39.135    3.7388
   39.150    3.4755
   39.165    3.6159
   39.180    3.4580
   39.195    3.3000
   39.210    3.7388
   39.225    3.9143
   39.240    3.7037
   39.255    4.1074
   39.270    3.7213
   39.285    3.7037
   39.300    4.0372
   39.315    4.1601
   39.330    4.1250
   39.345    4.0548
   39.360    3.7564
   39.375    3.5984
   39.390    3.6510
   39.405    3.5808
   39.420    3.4404
   39.435    3.4404
   39.450    3.5808
   39.465    3.9494
   39.480    3.7915
   39.495    3.7564
   39.510    3.3877
   39.525    3.3877
   39.540    3.6159
   39.555    3.8617
   39.570    3.7739
   39.585    3.3175
   39.600    3.3877
   39.615    3.5808
   39.630    3.1420
   39.645    3.5808
   39.660    3.8266
   39.675    3.9143
   39.690    3.6862
   39.705    3.7037
   39.720    3.6335
   39.735    3.5282
   39.750    3.6510
   39.765    3.8617
   39.780    3.4229
   39.795    3.3000
   39.810    3.5282
   39.825    3.2824
   39.840    3.5808
   39.855    3.5282
   39.870    3.5808
   39.885    3.7213
   39.900    3.3702
   39.915    3.2298
   39.930    3.4755
   39.945    3.6159
   39.960    3.7037
   39.975    3.7213
   39.990    3.7915
   40.005    3.3702
   40.020    3.6335
   40.035    3.6862
   40.050    4.0021
   40.065    3.4931
   40.080    3.2649
   40.095    3.5633
   40.110    3.8090
   40.125    3.8441
   40.140    3.5457
   40.155    3.4755
   40.170    3.3351
   40.185    3.7037
   40.200    3.5808
   40.215    3.7213
   40.230    3.4404
   40.245    3.6159
   40.260    3.8090
   40.275    3.6335
   40.290    3.7739
   40.305    3.5633
   40.320    3.5457
   40.335    4.0197
   40.350    3.9670
   40.365    3.7915
   40.380    3.8792
   40.395    3.5984
   40.410    3.8266
   40.425    3.9143
   40.440    4.1601
   40.455    4.1074
   40.470    3.8792
   40.485    3.7388
   40.500    3.6686
   40.515    4.3005
   40.530    3.8968
   40.545    3.5457
   40.560    3.7037
   40.575    3.8090
   40.590    4.1952
   40.605    4.0021
   40.620    4.2830
   40.635    3.9670
   40.650    3.8441
   40.665    3.7739
   40.680    3.7388
   40.695    3.2824
   40.710    3.3175
   40.725    3.5457
   40.740    3.4053
   40.755    3.7739
   40.770    3.4755
   40.785    3.5984
   40.800    3.8968
   40.815    3.7388
   40.830    3.5984
   40.845    3.4580
   40.860    3.8968
   40.875    3.6159
   40.890    3.5106
   40.905    3.7213
   40.920    3.5808
   40.935    3.9143
   40.950    3.8968
   40.965    3.4755
   40.980    3.7037
   40.995    3.7739
   41.010    3.5106
   41.025    3.4404
   41.040    3.6862
   41.055    3.5282
   41.070    3.6159
   41.085    3.6510
   41.100    3.4755
   41.115    3.7564
   41.130    3.9846
   41.145    3.2824
   41.160    3.6686
   41.175    3.6159
   41.190    3.5984
   41.205    3.8617
   41.220    3.5457
   41.235    3.2649
   41.250    3.6862
   41.265    3.4580
   41.280    3.8266
   41.295    3.8090
   41.310    3.9143
   41.325    3.9846
   41.340    3.9319
   41.355    3.6510
   41.370    3.6159
   41.385    3.7388
   41.400    3.5106
   41.415    3.4580
   41.430    3.6510
   41.445    3.8617
   41.460    3.5984
   41.475    3.4404
   41.490    3.4755
   41.505    3.4580
   41.520    3.7739
   41.535    3.7037
   41.550    3.6159
   41.565    3.5808
   41.580    3.5457
   41.595    3.5106
   41.610    3.1771
   41.625    3.3175
   41.640    3.6510
   41.655    3.4931
   41.670    3.3000
   41.685    3.7213
   41.700    3.8792
   41.715    3.6159
   41.730    3.4229
   41.745    3.4053
   41.760    3.3877
   41.775    3.6335
   41.790    3.4755
   41.805    3.3877
   41.820    3.3526
   41.835    3.6335
   41.850    3.4931
   41.865    3.5457
   41.880    3.5282
   41.895    4.0021
   41.910    3.4755
   41.925    3.3702
   41.940    3.4053
   41.955    3.6335
   41.970    3.4229
   41.985    3.4755
   42.000    3.0893
   42.015    3.3702
   42.030    3.4229
   42.045    3.7388
   42.060    3.5282
   42.075    3.7388
   42.090    3.7915
   42.105    3.6862
   42.120    3.4404
   42.135    3.9143
   42.150    3.7213
   42.165    3.6510
   42.180    3.7564
   42.195    3.5984
   42.210    3.7213
   42.225    3.7564
   42.240    3.6862
   42.255    3.4053
   42.270    3.1771
   42.285    3.5984
   42.300    3.8968
   42.315    3.4580
   42.330    3.4229
   42.345    3.7388
   42.360    3.4053
   42.375    3.3702
   42.390    3.7564
   42.405    3.1596
   42.420    3.7213
   42.435    3.6510
   42.450    3.6159
   42.465    3.6862
   42.480    3.4229
   42.495    3.4755
   42.510    3.6510
   42.525    3.5808
   42.540    3.6686
   42.555    3.7564
   42.570    3.8968
   42.585    3.5457
   42.600    3.1596
   42.615    3.6159
   42.630    3.9846
   42.645    3.8266
   42.660    3.7739
   42.675    3.8266
   42.690    3.6862
   42.705    3.6510
   42.720    3.4755
   42.735    2.9840
   42.750    3.6335
   42.765    3.8090
   42.780    3.6159
   42.795    3.9670
   42.810    4.0197
   42.825    3.9670
   42.840    3.4404
   42.855    3.5808
   42.870    3.3877
   42.885    3.4053
   42.900    3.7564
   42.915    3.6510
   42.930    3.8968
   42.945    4.2830
   42.960    3.8441
   42.975    3.8968
   42.990    3.5282
   43.005    3.6159
   43.020    3.6686
   43.035    3.5808
   43.050    3.9670
   43.065    4.0372
   43.080    3.4931
   43.095    3.8441
   43.110    3.2122
   43.125    3.4229
   43.140    3.3526
   43.155    3.6335
   43.170    3.7915
   43.185    3.6686
   43.200    3.5106
   43.215    3.7037
   43.230    3.6335
   43.245    3.6510
   43.260    3.7564
   43.275    3.6335
   43.290    3.7564
   43.305    3.4053
   43.320    3.3351
   43.335    3.7213
   43.350    3.7037
   43.365    3.7739
   43.380    3.9143
   43.395    3.9143
   43.410    3.6335
   43.425    3.6159
   43.440    3.3526
   43.455    3.8266
   43.470    3.7564
   43.485    3.5457
   43.500    4.0548
   43.515    3.6686
   43.530    3.4580
   43.545    3.4931
   43.560    3.4580
   43.575    3.3877
   43.590    3.6510
   43.605    3.7739
   43.620    3.6335
   43.635    3.5457
   43.650    3.6862
   43.665    3.8792
   43.680    3.6335
   43.695    3.4580
   43.710    3.3526
   43.725    3.3000
   43.740    3.5633
   43.755    3.8090
   43.770    3.5457
   43.785    3.7213
   43.800    3.7037
   43.815    3.7037
   43.830    3.6510
   43.845    3.1420
   43.860    3.4931
   43.875    3.7564
   43.890    3.5282
   43.905    3.7564
   43.920    3.9319
   43.935    3.4229
   43.950    3.4404
   43.965    3.4053
   43.980    3.5457
   43.995    3.4229
   44.010    3.2824
   44.025    3.5808
   44.040    3.4229
   44.055    3.4931
   44.070    3.8441
   44.085    3.9494
   44.100    3.9670
   44.115    3.7037
   44.130    3.3877
   44.145    3.6686
   44.160    4.1952
   44.175    3.9319
   44.190    3.8441
   44.205    3.7213
   44.220    3.8090
   44.235    3.3702
   44.250    3.5808
   44.265    3.7213
   44.280    3.5984
   44.295    3.5808
   44.310    3.4404
   44.325    3.7037
   44.340    3.6862
   44.355    3.5633
   44.370    3.7213
   44.385    3.4931
   44.400    3.5106
   44.415    3.4404
   44.430    3.4755
   44.445    3.5282
   44.460    3.6862
   44.475    3.8090
   44.490    3.5984
   44.505    3.3702
   44.520    4.0372
   44.535    3.6335
   44.550    3.7739
   44.565    3.5282
   44.580    3.7564
   44.595    3.8792
   44.610    3.4580
   44.625    3.3526
   44.640    3.4404
   44.655    3.5633
   44.670    3.6686
   44.685    3.7037
   44.700    3.8266
   44.715    3.4580
   44.730    3.5808
   44.745    3.4580
   44.760    3.5457
   44.775    3.8792
   44.790    4.0372
   44.805    3.7564
   44.820    3.5808
   44.835    3.6686
   44.850    3.5984
   44.865    3.8792
   44.880    3.7564
   44.895    3.6686
   44.910    3.8968
   44.925    3.8090
   44.940    3.6686
   44.955    3.5457
   44.970    3.4580
   44.985    3.3702
   45.000    3.1596
   45.015    3.5457
   45.030    3.1771
   45.045    3.3175
   45.060    3.3351
   45.075    3.3000
   45.090    3.4755
   45.105    3.3351
   45.120    3.6510
   45.135    3.7037
   45.150    3.2122
   45.165    3.4931
   45.180    3.1596
   45.195    3.4931
   45.210    3.3877
   45.225    4.1074
   45.240    4.0197
   45.255    3.6510
   45.270    3.6159
   45.285    3.4931
   45.300    3.6686
   45.315    3.8090
   45.330    3.3175
   45.345    3.1947
   45.360    4.2478
   45.375    4.1250
   45.390    4.0372
   45.405    4.0723
   45.420    3.7564
   45.435    3.4229
   45.450    3.7037
   45.465    3.5808
   45.480    3.2122
   45.495    3.0718
   45.510    3.4404
   45.525    3.5633
   45.540    3.6686
   45.555    3.7739
   45.570    3.6686
   45.585    3.3000
   45.600    3.5106
   45.615    3.8090
   45.630    3.7564
   45.645    4.0197
   45.660    4.0899
   45.675    3.7213
   45.690    3.3877
   45.705    3.5984
   45.720    3.4053
   45.735    3.3351
   45.750    3.3702
   45.765    3.3000
   45.780    3.3175
   45.795    3.2298
   45.810    3.2824
   45.825    3.3702
   45.840    3.5106
   45.855    3.7564
   45.870    3.8441
   45.885    3.5808
   45.900    3.7388
   45.915    3.3175
   45.930    3.5984
   45.945    3.4580
   45.960    3.6862
   45.975    3.8968
   45.990    3.4229
   46.005    3.4053
   46.020    3.4931
   46.035    3.2649
   46.050    3.5457
   46.065    3.2824
   46.080    3.4229
   46.095    3.2649
   46.110    3.5282
   46.125    3.7037
   46.140    3.7213
   46.155    3.5633
   46.170    3.7213
   46.185    3.3877
   46.200    3.5808
   46.215    3.7739
   46.230    3.5282
   46.245    3.7037
   46.260    3.7388
   46.275    3.4404
   46.290    3.6686
   46.305    3.4053
   46.320    3.5282
   46.335    3.3351
   46.350    3.3877
   46.365    3.3526
   46.380    3.4229
   46.395    3.7739
   46.410    3.8792
   46.425    3.6159
   46.440    3.7739
   46.455    3.5282
   46.470    3.3175
   46.485    3.6510
   46.500    3.6862
   46.515    3.1771
   46.530    3.7564
   46.545    3.5457
   46.560    3.6159
   46.575    3.5106
   46.590    3.5633
   46.605    3.7213
   46.620    3.5457
   46.635    3.4229
   46.650    3.5457
   46.665    3.7915
   46.680    3.5808
   46.695    3.7564
   46.710    3.7213
   46.725    3.1771
   46.740    3.4580
   46.755    3.7915
   46.770    3.7213
   46.785    3.5282
   46.800    3.7037
   46.815    3.8617
   46.830    3.5457
   46.845    3.5106
   46.860    3.6686
   46.875    3.3702
   46.890    3.0542
   46.905    3.3702
   46.920    3.5457
   46.935    3.3526
   46.950    3.5808
   46.965    3.5282
   46.980    3.0191
   46.995    3.6335
   47.010    4.0899
   47.025    3.6686
   47.040    3.5457
   47.055    3.1596
   47.070    3.2122
   47.085    3.1596
   47.100    3.5633
   47.115    3.6159
   47.130    3.7388
   47.145    3.3526
   47.160    3.2824
   47.175    3.3702
   47.190    3.4580
   47.205    3.1596
   47.220    3.5633
   47.235    3.4755
   47.250    3.4404
   47.265    3.2122
   47.280    3.3000
   47.295    3.5984
   47.310    3.6159
   47.325    3.6335
   47.340    3.6159
   47.355    3.5457
   47.370    3.5457
   47.385    3.8792
   47.400    3.4931
   47.415    3.3877
   47.430    3.4580
   47.445    3.4053
   47.460    3.5106
   47.475    3.3000
   47.490    3.5633
   47.505    3.4580
   47.520    3.1245
   47.535    3.3351
   47.550    3.4755
   47.565    3.3526
   47.580    3.2122
   47.595    3.5282
   47.610    3.5984
   47.625    3.4404
   47.640    3.4053
   47.655    3.4404
   47.670    3.5984
   47.685    3.7915
   47.700    3.5808
   47.715    3.3877
   47.730    3.5633
   47.745    3.1771
   47.760    3.4755
   47.775    3.3000
   47.790    3.6510
   47.805    3.5984
   47.820    3.3877
   47.835    3.5457
   47.850    3.4404
   47.865    3.5808
   47.880    3.5633
   47.895    3.1596
   47.910    3.3702
   47.925    3.2122
   47.940    3.5633
   47.955    3.4404
   47.970    3.6159
   47.985    3.0542
   48.000    3.1771
   48.015    3.1771
   48.030    3.4229
   48.045    3.4755
   48.060    3.4931
   48.075    3.2649
   48.090    3.2122
   48.105    3.2649
   48.120    3.2649
   48.135    3.4229
   48.150    3.3877
   48.165    3.2649
   48.180    3.4404
   48.195    3.5633
   48.210    3.4229
   48.225    3.4404
   48.240    3.3175
   48.255    3.3000
   48.270    3.5457
   48.285    3.3877
   48.300    3.6510
   48.315    3.6686
   48.330    3.9143
   48.345    4.0021
   48.360    3.6862
   48.375    3.6510
   48.390    3.6862
   48.405    3.5457
   48.420    3.1947
   48.435    3.2824
   48.450    3.6510
   48.465    3.6159
   48.480    3.5457
   48.495    3.7037
   48.510    3.3877
   48.525    3.3702
   48.540    3.8617
   48.555    3.5457
   48.570    3.1947
   48.585    3.6335
   48.600    3.5106
   48.615    3.7564
   48.630    3.6335
   48.645    3.2473
   48.660    3.5106
   48.675    3.3702
   48.690    3.2824
   48.705    3.3000
   48.720    3.3526
   48.735    3.4404
   48.750    3.1420
   48.765    3.0893
   48.780    3.3351
   48.795    3.2298
   48.810    3.4053
   48.825    3.5106
   48.840    3.4931
   48.855    3.5282
   48.870    3.5106
   48.885    3.7213
   48.900    3.3526
   48.915    3.5984
   48.930    3.2122
   48.945    3.6510
   48.960    3.6862
   48.975    3.6159
   48.990    3.7564
   49.005    3.0893
   49.020    3.1947
   49.035    3.1420
   49.050    3.3702
   49.065    3.3702
   49.080    3.1420
   49.095    3.4229
   49.110    3.4404
   49.125    3.4755
   49.140    3.5282
   49.155    3.4404
   49.170    3.6159
   49.185    3.3175
   49.200    3.2649
   49.215    3.5457
   49.230    3.3175
   49.245    3.5282
   49.260    3.0542
   49.275    3.0191
   49.290    3.5457
   49.305    3.9319
   49.320    3.3702
   49.335    3.3702
   49.350    3.3526
   49.365    3.4755
   49.380    3.4580
   49.395    3.3000
   49.410    3.3702
   49.425    3.4931
   49.440    3.5633
   49.455    3.3877
   49.470    3.4580
   49.485    3.4931
   49.500    3.6862
   49.515    3.3351
   49.530    3.2473
   49.545    3.3877
   49.560    3.3351
   49.575    3.2824
   49.590    3.3175
   49.605    3.2122
   49.620    3.3000
   49.635    3.3702
   49.650    3.1947
   49.665    3.2649
   49.680    3.2298
   49.695    3.3175
   49.710    3.5984
   49.725    3.2473
   49.740    3.6510
   49.755    3.1771
   49.770    3.6510
   49.785    3.5984
   49.800    3.2122
   49.815    3.4755
   49.830    3.1069
   49.845    3.0016
   49.860    3.3175
   49.875    3.0367
   49.890    3.6159
   49.905    3.5282
   49.920    3.5808
   49.935    3.5984
   49.950    3.3526
   49.965    3.1596
   49.980    3.8090
