    1.500   33.5229
    1.515   34.4181
    1.530   32.6277
    1.545   32.1959
    1.560   32.1222
    1.575   30.8899
    1.590   30.5740
    1.605   28.9310
    1.620   30.0369
    1.635   29.4365
    1.650   28.2464
    1.665   27.4355
    1.680   26.9194
    1.695   27.1195
    1.710   27.2565
    1.725   24.7709
    1.740   24.6130
    1.755   25.0448
    1.770   24.2443
    1.785   23.3175
    1.800   23.2333
    1.815   22.8963
    1.830   22.6540
    1.845   21.7799
    1.860   21.5798
    1.875   21.7588
    1.890   20.4950
    1.905   20.4634
    1.920   20.9268
    1.935   20.5055
    1.950   20.0737
    1.965   19.8420
    1.980   19.4418
    1.995   19.2206
    2.010   19.1153
    2.025   19.1259
    2.040   17.9568
    2.055   17.6619
    2.070   17.3881
    2.085   18.1148
    2.100   17.1880
    2.115   16.9984
    2.130   16.2296
    2.145   16.1875
    2.160   15.9558
    2.175   16.3349
    2.190   15.3765
    2.205   15.7767
    2.220   15.9874
    2.235   15.0922
    2.250   15.3239
    2.265   14.8710
    2.280   14.3233
    2.295   14.6709
    2.310   14.6077
    2.325   14.2812
    2.340   14.2496
    2.355   13.6072
    2.370   13.4913
    2.385   13.7230
    2.400   13.4387
    2.415   13.5124
    2.430   13.7757
    2.445   13.4281
    2.460   12.7120
    2.475   12.6382
    2.490   12.7120
    2.505   12.2275
    2.520   12.2275
    2.535   11.9747
    2.550   12.2064
    2.565   11.8167
    2.580   11.0900
    2.595   11.3955
    2.610   11.8378
    2.625   11.5850
    2.640   11.3217
    2.655   11.3217
    2.670   11.2375
    2.685   10.9742
    2.700   11.2270
    2.715   11.7641
    2.730   11.3955
    2.745   11.4903
    2.760   10.8899
    2.775   10.3528
    2.790   11.3428
    2.805   10.6582
    2.820   10.3739
    2.835   10.5845
    2.850   10.7320
    2.865   10.6161
    2.880   10.2264
    2.895    9.9315
    2.910    9.9737
    2.925   10.1632
    2.940   10.2791
    2.955    9.9526
    2.970   10.0895
    2.985   10.5424
    3.000   10.3949
    3.015    9.9210
    3.030    9.8157
    3.045    9.4787
    3.060    9.6893
    3.075    9.4155
    3.090    9.0469
    3.105    9.9105
    3.120    9.5419
    3.135    9.3734
    3.150    8.8889
    3.165    9.8473
    3.180    9.5103
    3.195    9.4787
    3.210    9.4576
    3.225    9.3102
    3.240    8.8468
    3.255    9.1627
    3.270    9.0363
    3.285    8.9415
    3.300    8.7204
    3.315    9.2364
    3.330    9.2786
    3.345    8.5835
    3.360    8.8994
    3.375    8.6045
    3.390    8.6783
    3.405    8.6993
    3.420    8.8362
    3.435    8.8362
    3.450    8.4992
    3.465    8.8678
    3.480    8.7836
    3.495    8.5203
    3.510    8.7836
    3.525    8.3939
    3.540    8.4044
    3.555    8.4887
    3.570    8.5519
    3.585    8.6256
    3.600    8.5413
    3.615    8.5203
    3.630    8.2675
    3.645    8.2886
    3.660    8.2780
    3.675    8.2570
    3.690    8.0358
    3.705    8.0990
    3.720    8.2780
    3.735    8.3096
    3.750    8.3623
    3.765    8.2464
    3.780    7.6988
    3.795    7.8989
    3.810    8.3834
    3.825    7.8252
    3.840    7.8673
    3.855    7.6988
    3.870    7.6883
    3.885    8.2149
    3.900    8.1938
    3.915    8.0674
    3.930    7.6461
    3.945    7.8041
    3.960    8.2359
    3.975    7.4355
    3.990    8.2043
    4.005    7.7409
    4.020    7.7514
    4.035    7.8568
    4.050    7.3934
    4.065    7.6777
    4.080    7.8568
    4.095    7.8462
    4.110    7.5408
    4.125    7.9516
    4.140    7.6883
    4.155    7.4776
    4.170    7.5197
    4.185    7.9094
    4.200    7.6461
    4.215    7.2038
    4.230    7.4355
    4.245    7.3618
    4.260    7.4671
    4.275    7.5092
    4.290    7.3723
    4.305    7.3302
    4.320    7.1406
    4.335    7.4566
    4.350    6.9826
    4.365    7.1827
    4.380    7.0879
    4.395    6.9616
    4.410    7.1827
    4.425    6.9932
    4.440    7.2565
    4.455    7.0669
    4.470    6.9616
    4.485    6.9510
    4.500    6.8878
    4.515    7.2670
    4.530    7.0985
    4.545    7.0669
    4.560    7.0563
    4.575    7.0353
    4.590    6.9616
    4.605    7.2670
    4.620    6.8878
    4.635    6.8141
    4.650    6.9089
    4.665    6.9510
    4.680    7.0037
    4.695    6.8668
    4.710    6.7930
    4.725    6.9721
    4.740    6.8878
    4.755    6.8562
    4.770    7.3407
    4.785    6.8984
    4.800    6.9932
    4.815    7.1406
    4.830    7.2038
    4.845    6.9405
    4.860    6.8457
    4.875    7.0248
    4.890    6.9721
    4.905    6.9721
    4.920    6.9826
    4.935    6.9826
    4.950    6.3718
    4.965    6.6140
    4.980    6.9721
    4.995    6.8352
    5.010    6.9194
    5.025    6.5192
    5.040    6.4982
    5.055    7.0142
    5.070    6.9510
    5.085    7.0037
    5.100    6.9510
    5.115    6.5613
    5.130    6.3823
    5.145    6.4560
    5.160    6.7930
    5.175    6.6983
    5.190    6.6035
    5.205    6.6140
    5.220    6.5824
    5.235    6.9194
    5.250    6.8246
    5.265    6.9510
    5.280    6.8141
    5.295    6.5824
    5.310    6.8246
    5.325    6.8246
    5.340    6.7299
    5.355    6.5192
    5.370    6.6351
    5.385    6.8352
    5.400    6.7299
    5.415    6.7299
    5.430    6.5929
    5.445    6.1085
    5.460    5.9716
    5.475    5.7609
    5.490    6.1717
    5.505    6.4244
    5.520    6.3296
    5.535    6.7088
    5.550    6.4560
    5.565    6.0664
    5.580    6.6456
    5.595    6.8562
    5.610    7.1722
    5.625    6.9300
    5.640    6.6245
    5.655    6.9826
    5.670    6.3612
    5.685    6.5824
    5.700    6.6983
    5.715    6.7615
    5.730    6.8878
    5.745    6.3402
    5.760    6.5403
    5.775    6.3402
    5.790    6.6245
    5.805    6.5403
    5.820    6.6983
    5.835    6.7825
    5.850    6.7088
    5.865    6.3191
    5.880    6.3296
    5.895    6.8246
    5.910    6.6035
    5.925    6.5298
    5.940    6.4982
    5.955    6.6456
    5.970    6.8668
    5.985    6.7825
    6.000    6.7720
    6.015    6.5929
    6.030    6.4666
    6.045    6.5929
    6.060    6.4876
    6.075    6.5508
    6.090    6.7193
    6.105    6.8352
    6.120    6.7404
    6.135    6.7404
    6.150    6.7615
    6.165    6.9826
    6.180    6.6877
    6.195    6.2981
    6.210    6.6351
    6.225    6.6351
    6.240    6.6351
    6.255    6.4876
    6.270    6.6877
    6.285    6.2349
    6.300    6.2981
    6.315    6.4560
    6.330    6.1295
    6.345    6.3823
    6.360    6.4560
    6.375    6.4244
    6.390    6.4982
    6.405    6.2875
    6.420    6.5087
    6.435    6.5824
    6.450    6.6456
    6.465    6.6983
    6.480    6.2243
    6.495    6.5087
    6.510    6.6140
    6.525    6.4876
    6.540    5.9926
    6.555    6.1506
    6.570    6.2665
    6.585    6.3507
    6.600    6.1611
    6.615    6.1822
    6.630    6.6877
    6.645    6.4034
    6.660    6.5403
    6.675    6.5824
    6.690    6.2243
    6.705    6.4034
    6.720    6.2243
    6.735    6.4139
    6.750    6.4771
    6.765    6.4982
    6.780    6.6456
    6.795    6.2454
    6.810    6.6035
    6.825    6.4876
    6.840    6.2770
    6.855    6.3191
    6.870    6.7825
    6.885    6.3823
    6.900    6.3402
    6.915    6.1717
    6.930    6.2138
    6.945    6.6140
    6.960    6.5719
    6.975    6.5192
    6.990    6.3823
    7.005    6.6351
    7.020    6.7088
    7.035    6.5508
    7.050    6.5403
    7.065    6.4034
    7.080    6.6140
    7.095    6.2981
    7.110    6.5824
    7.125    6.3296
    7.140    6.3086
    7.155    6.3086
    7.170    6.2033
    7.185    6.1401
    7.200    6.6035
    7.215    6.2349
    7.230    6.2138
    7.245    6.5929
    7.260    6.0664
    7.275    6.3086
    7.290    6.4350
    7.305    6.1085
    7.320    6.3296
    7.335    6.2981
    7.350    6.3507
    7.365    6.3823
    7.380    6.4876
    7.395    6.3402
    7.410    6.3296
    7.425    6.4244
    7.440    6.0453
    7.455    5.8557
    7.470    6.1611
    7.485    6.2875
    7.500    6.5719
    7.515    6.6140
    7.530    6.8352
    7.545    6.3402
    7.560    6.2559
    7.575    6.0558
    7.590    6.0874
    7.605    6.5298
    7.620    6.3928
    7.635    6.6877
    7.650    6.4139
    7.665    6.3296
    7.680    6.4982
    7.695    6.2243
    7.710    6.1295
    7.725    6.2349
    7.740    6.1190
    7.755    6.6561
    7.770    6.7193
    7.785    6.5298
    7.800    6.5508
    7.815    6.8878
    7.830    6.6245
    7.845    6.3718
    7.860    6.5824
    7.875    6.5929
    7.890    6.7088
    7.905    6.2454
    7.920    6.5719
    7.935    6.3928
    7.950    6.3823
    7.965    6.6877
    7.980    6.4666
    7.995    6.1927
    8.010    6.2981
    8.025    6.2454
    8.040    6.7615
    8.055    6.2770
    8.070    6.3402
    8.085    6.2033
    8.100    6.6035
    8.115    6.5192
    8.130    6.3612
    8.145    6.3402
    8.160    6.5403
    8.175    6.1295
    8.190    6.2243
    8.205    6.3612
    8.220    6.3402
    8.235    6.4350
    8.250    6.5508
    8.265    6.2033
    8.280    6.3718
    8.295    6.3296
    8.310    6.1295
    8.325    6.7299
    8.340    6.3612
    8.355    6.6667
    8.370    6.3296
    8.385    6.2875
    8.400    6.8141
    8.415    6.4244
    8.430    6.2559
    8.445    6.4982
    8.460    6.2243
    8.475    6.4560
    8.490    6.6877
    8.505    6.4455
    8.520    6.4034
    8.535    6.5929
    8.550    6.5403
    8.565    6.3402
    8.580    6.0242
    8.595    6.6351
    8.610    6.7825
    8.625    6.6351
    8.640    6.4034
    8.655    6.2665
    8.670    6.2349
    8.685    6.5508
    8.700    6.6561
    8.715    6.7299
    8.730    6.4034
    8.745    6.4560
    8.760    6.6351
    8.775    6.9510
    8.790    6.5087
    8.805    6.4876
    8.820    6.7299
    8.835    6.7720
    8.850    6.5929
    8.865    6.5824
    8.880    6.5087
    8.895    6.5298
    8.910    6.4560
    8.925    6.3928
    8.940    6.6140
    8.955    6.7720
    8.970    6.1611
    8.985    6.5508
    9.000    6.7825
    9.015    6.5403
    9.030    6.2665
    9.045    6.4560
    9.060    6.3296
    9.075    6.5719
    9.090    6.8036
    9.105    6.5824
    9.120    6.3507
    9.135    6.7404
    9.150    6.6667
    9.165    6.3296
    9.180    6.4034
    9.195    6.7088
    9.210    6.5613
    9.225    6.4350
    9.240    6.1927
    9.255    6.8036
    9.270    6.7088
    9.285    6.1822
    9.300    6.3718
    9.315    6.8457
    9.330    6.3191
    9.345    6.0664
    9.360    6.3086
    9.375    6.5508
    9.390    6.4876
    9.405    6.4876
    9.420    6.0874
    9.435    6.3928
    9.450    6.3718
    9.465    6.5403
    9.480    6.0348
    9.495    6.2349
    9.510    6.5087
    9.525    6.5613
    9.540    6.6772
    9.555    6.4560
    9.570    6.1611
    9.585    5.8768
    9.600    6.2033
    9.615    6.0874
    9.630    6.3928
    9.645    6.2033
    9.660    6.1927
    9.675    6.4350
    9.690    6.5929
    9.705    6.3718
    9.720    6.6667
    9.735    6.6351
    9.750    6.0664
    9.765    6.3402
    9.780    6.2243
    9.795    6.3823
    9.810    6.9932
    9.825    6.7404
    9.840    6.3191
    9.855    6.2349
    9.870    6.6351
    9.885    6.3928
    9.900    6.6772
    9.915    6.3296
    9.930    6.2559
    9.945    6.1822
    9.960    6.2981
    9.975    6.5719
    9.990    6.6035
   10.005    6.2349
   10.020    6.2454
   10.035    6.6772
   10.050    6.7720
   10.065    6.4455
   10.080    6.2875
   10.095    6.0137
   10.110    6.0348
   10.125    6.4771
   10.140    6.4876
   10.155    5.9926
   10.170    6.0453
   10.185    6.1401
   10.200    6.2770
   10.215    6.4139
   10.230    6.4666
   10.245    6.6351
   10.260    6.2665
   10.275    6.1295
   10.290    6.2454
   10.305    6.4244
   10.320    6.6456
   10.335    6.2875
   10.350    6.2033
   10.365    6.7193
   10.380    6.3823
   10.395    6.6245
   10.410    6.3296
   10.425    6.1927
   10.440    6.2454
   10.455    6.0348
   10.470    6.0348
   10.485    6.0032
   10.500    6.6561
   10.515    6.0874
   10.530    6.1927
   10.545    6.4244
   10.560    6.4244
   10.575    6.2033
   10.590    6.1401
   10.605    6.0453
   10.620    6.6351
   10.635    6.8878
   10.650    6.1401
   10.665    5.8768
   10.680    6.2875
   10.695    6.1295
   10.710    5.7188
   10.725    6.4666
   10.740    6.2033
   10.755    6.3296
   10.770    6.1506
   10.785    5.9505
   10.800    6.1190
   10.815    5.8136
   10.830    6.0348
   10.845    6.3823
   10.860    6.1190
   10.875    6.1717
   10.890    5.8452
   10.905    6.2981
   10.920    6.4560
   10.935    6.6983
   10.950    6.1190
   10.965    6.6245
   10.980    6.4139
   10.995    6.2875
   11.010    6.1190
   11.025    6.4034
   11.040    5.9400
   11.055    5.7820
   11.070    5.9084
   11.085    6.2559
   11.100    6.2981
   11.115    5.9400
   11.130    6.1506
   11.145    6.1295
   11.160    6.1295
   11.175    6.0664
   11.190    6.3718
   11.205    5.9610
   11.220    6.2875
   11.235    6.4034
   11.250    6.2349
   11.265    6.2770
   11.280    6.0558
   11.295    5.6977
   11.310    6.0664
   11.325    6.4034
   11.340    6.2243
   11.355    6.0874
   11.370    5.7715
   11.385    6.4560
   11.400    5.7293
   11.415    5.8136
   11.430    6.2770
   11.445    6.5508
   11.460    6.2981
   11.475    6.2349
   11.490    5.8768
   11.505    5.7504
   11.520    5.9926
   11.535    5.9400
   11.550    6.1506
   11.565    6.5508
   11.580    6.0979
   11.595    6.0242
   11.610    5.9821
   11.625    5.8873
   11.640    5.8136
   11.655    5.9926
   11.670    6.4982
   11.685    5.8031
   11.700    6.0558
   11.715    5.7399
   11.730    5.8662
   11.745    6.0348
   11.760    6.0769
   11.775    6.0242
   11.790    5.7399
   11.805    5.6767
   11.820    6.1295
   11.835    6.0032
   11.850    5.6872
   11.865    5.8031
   11.880    5.9610
   11.895    6.0769
   11.910    5.9084
   11.925    6.0979
   11.940    6.2033
   11.955    5.6767
   11.970    5.8347
   11.985    5.8768
   12.000    5.8873
   12.015    5.6977
   12.030    6.0137
   12.045    5.9294
   12.060    5.7399
   12.075    6.0032
   12.090    6.2033
   12.105    6.0558
   12.120    5.8241
   12.135    5.7083
   12.150    5.8452
   12.165    6.0032
   12.180    6.0242
   12.195    5.8978
   12.210    5.9926
   12.225    6.1611
   12.240    5.6451
   12.255    5.9610
   12.270    6.0874
   12.285    5.8662
   12.300    5.5924
   12.315    6.2559
   12.330    6.0979
   12.345    5.6767
   12.360    5.4450
   12.375    5.6451
   12.390    6.1085
   12.405    6.0137
   12.420    6.0453
   12.435    5.8031
   12.450    5.8031
   12.465    5.7925
   12.480    5.9821
   12.495    5.6240
   12.510    5.6345
   12.525    5.7925
   12.540    5.7188
   12.555    6.2138
   12.570    6.1085
   12.585    6.2665
   12.600    6.1295
   12.615    5.8768
   12.630    5.8873
   12.645    6.0032
   12.660    5.8768
   12.675    6.0979
   12.690    5.7925
   12.705    5.8662
   12.720    5.6556
   12.735    5.8136
   12.750    5.9084
   12.765    6.2243
   12.780    5.8662
   12.795    5.7188
   12.810    5.5292
   12.825    5.4766
   12.840    5.5819
   12.855    5.6872
   12.870    6.0664
   12.885    6.2559
   12.900    5.9294
   12.915    5.6240
   12.930    5.7399
   12.945    5.8031
   12.960    5.9821
   12.975    5.8768
   12.990    5.8873
   13.005    5.9716
   13.020    6.2981
   13.035    5.6135
   13.050    5.7293
   13.065    5.7293
   13.080    5.7188
   13.095    5.7609
   13.110    5.8873
   13.125    5.8031
   13.140    5.9084
   13.155    5.9294
   13.170    5.6135
   13.185    5.7820
   13.200    5.9505
   13.215    6.0558
   13.230    5.5924
   13.245    5.9294
   13.260    5.7609
   13.275    5.6661
   13.290    5.3607
   13.305    5.4976
   13.320    5.4134
   13.335    5.7609
   13.350    5.6345
   13.365    5.8347
   13.380    6.2770
   13.395    6.4771
   13.410    5.9400
   13.425    5.7188
   13.440    5.8241
   13.455    6.2138
   13.470    5.7925
   13.485    5.5187
   13.500    5.6556
   13.515    5.7083
   13.530    5.7293
   13.545    5.8557
   13.560    5.6556
   13.575    6.1822
   13.590    5.9084
   13.605    6.0137
   13.620    5.8347
   13.635    5.6872
   13.650    5.8241
   13.665    5.8873
   13.680    6.0664
   13.695    6.1506
   13.710    5.6872
   13.725    6.1295
   13.740    5.9400
   13.755    5.7715
   13.770    5.7820
   13.785    5.7083
   13.800    5.5503
   13.815    5.6872
   13.830    5.6661
   13.845    5.8662
   13.860    5.6977
   13.875    6.1295
   13.890    6.2033
   13.905    5.4976
   13.920    5.8978
   13.935    5.8768
   13.950    5.8978
   13.965    6.1611
   13.980    5.8978
   13.995    5.6345
   14.010    5.5714
   14.025    5.6029
   14.040    5.8662
   14.055    5.8136
   14.070    5.5714
   14.085    5.9505
   14.100    5.7609
   14.115    5.8978
   14.130    5.7188
   14.145    5.4028
   14.160    5.9189
   14.175    5.6240
   14.190    5.7399
   14.205    5.7609
   14.220    5.6345
   14.235    5.5819
   14.250    5.7820
   14.265    5.8557
   14.280    5.4976
   14.295    5.6767
   14.310    5.6135
   14.325    5.6767
   14.340    5.8031
   14.355    5.4766
   14.370    5.7188
   14.385    5.4871
   14.400    5.8452
   14.415    5.6556
   14.430    5.6029
   14.445    5.7609
   14.460    5.8136
   14.475    5.5398
   14.490    6.0453
   14.505    5.8031
   14.520    5.5187
   14.535    5.6767
   14.550    5.9610
   14.565    5.8873
   14.580    5.8452
   14.595    5.6872
   14.610    5.9084
   14.625    5.7925
   14.640    5.6345
   14.655    6.1085
   14.670    5.9084
   14.685    5.9505
   14.700    5.6345
   14.715    5.8557
   14.730    5.6767
   14.745    5.9505
   14.760    5.8347
   14.775    5.8031
   14.790    5.9294
   14.805    6.1611
   14.820    5.6661
   14.835    5.6345
   14.850    5.9084
   14.865    5.7188
   14.880    5.3818
   14.895    5.8347
   14.910    5.8136
   14.925    6.1401
   14.940    5.8031
   14.955    5.8873
   14.970    5.7820
   14.985    5.4239
   15.000    5.5292
   15.015    6.0979
   15.030    6.0979
   15.045    5.6135
   15.060    5.6451
   15.075    5.6345
   15.090    5.4239
   15.105    5.8241
   15.120    5.6872
   15.135    5.8978
   15.150    6.1927
   15.165    5.8241
   15.180    5.8241
   15.195    6.2138
   15.210    5.6767
   15.225    5.4344
   15.240    5.5082
   15.255    5.6556
   15.270    5.9294
   15.285    5.9505
   15.300    5.7820
   15.315    6.2033
   15.330    6.1190
   15.345    6.0874
   15.360    5.6977
   15.375    6.0032
   15.390    5.6029
   15.405    5.4450
   15.420    5.9084
   15.435    5.5082
   15.450    5.6240
   15.465    5.5187
   15.480    5.9294
   15.495    5.6451
   15.510    5.6451
   15.525    5.7293
   15.540    5.7399
   15.555    5.7820
   15.570    5.9505
   15.585    5.8557
   15.600    6.0242
   15.615    6.1401
   15.630    5.7083
   15.645    5.9084
   15.660    5.7399
   15.675    5.9400
   15.690    5.8662
   15.705    5.7715
   15.720    5.8557
   15.735    5.6556
   15.750    5.5714
   15.765    5.6872
   15.780    5.4134
   15.795    5.7399
   15.810    5.4871
   15.825    5.6451
   15.840    5.9821
   15.855    6.1822
   15.870    6.0242
   15.885    5.8557
   15.900    5.3818
   15.915    5.5924
   15.930    5.8031
   15.945    5.9716
   15.960    5.7925
   15.975    5.6872
   15.990    5.7083
   16.005    5.9505
   16.020    5.5608
   16.035    5.7293
   16.050    5.6451
   16.065    5.5398
   16.080    5.7504
   16.095    5.8768
   16.110    6.0874
   16.125    5.6977
   16.140    5.8347
   16.155    5.8873
   16.170    5.9505
   16.185    5.7293
   16.200    5.8241
   16.215    5.8768
   16.230    5.7399
   16.245    6.0664
   16.260    5.7925
   16.275    5.8136
   16.290    5.9084
   16.305    5.5398
   16.320    5.4976
   16.335    5.5819
   16.350    5.7188
   16.365    5.8662
   16.380    5.4134
   16.395    6.2454
   16.410    5.9505
   16.425    5.4976
   16.440    5.7925
   16.455    5.7504
   16.470    5.3923
   16.485    5.9189
   16.500    5.8873
   16.515    5.6451
   16.530    5.8978
   16.545    5.4028
   16.560    5.8136
   16.575    5.9716
   16.590    5.6977
   16.605    5.6240
   16.620    5.6556
   16.635    5.7609
   16.650    5.9084
   16.665    5.8662
   16.680    5.9400
   16.695    6.0453
   16.710    5.7293
   16.725    5.9716
   16.740    5.8873
   16.755    5.7925
   16.770    5.8031
   16.785    5.3607
   16.800    5.6977
   16.815    5.6345
   16.830    5.7609
   16.845    6.0664
   16.860    5.5503
   16.875    5.6451
   16.890    5.8347
   16.905    5.9294
   16.920    5.5608
   16.935    5.4555
   16.950    5.7715
   16.965    5.6977
   16.980    5.8452
   16.995    5.8662
   17.010    5.4134
   17.025    5.3607
   17.040    5.6345
   17.055    5.6345
   17.070    5.7609
   17.085    5.7504
   17.100    5.5187
   17.115    5.5924
   17.130    5.9610
   17.145    5.9716
   17.160    6.0558
   17.175    5.8452
   17.190    5.5503
   17.205    5.6556
   17.220    5.8978
   17.235    5.7399
   17.250    5.5503
   17.265    5.6767
   17.280    5.8031
   17.295    5.4450
   17.310    5.6977
   17.325    5.9084
   17.340    5.7188
   17.355    5.7609
   17.370    6.0137
   17.385    5.7504
   17.400    5.9189
   17.415    5.9189
   17.430    5.9294
   17.445    6.2138
   17.460    5.8347
   17.475    5.3502
   17.490    5.6029
   17.505    5.6345
   17.520    5.8978
   17.535    5.8136
   17.550    6.0032
   17.565    5.9926
   17.580    6.1190
   17.595    5.9294
   17.610    6.1506
   17.625    6.0874
   17.640    6.1295
   17.655    5.3186
   17.670    5.8347
   17.685    6.2349
   17.700    5.9505
   17.715    5.5924
   17.730    5.4871
   17.745    5.6661
   17.760    5.7399
   17.775    5.9400
   17.790    5.9189
   17.805    5.9294
   17.820    5.8347
   17.835    5.6767
   17.850    5.5082
   17.865    5.8452
   17.880    5.8347
   17.895    5.7715
   17.910    5.9821
   17.925    5.9084
   17.940    5.5608
   17.955    5.4239
   17.970    5.8978
   17.985    5.8031
   18.000    5.8347
   18.015    5.5398
   18.030    5.7399
   18.045    6.0032
   18.060    6.0348
   18.075    5.4028
   18.090    5.5187
   18.105    5.5714
   18.120    5.8136
   18.135    5.7820
   18.150    5.6767
   18.165    5.6977
   18.180    5.7504
   18.195    5.4555
   18.210    5.8241
   18.225    5.7188
   18.240    5.7188
   18.255    5.6345
   18.270    6.0453
   18.285    5.8241
   18.300    5.7925
   18.315    5.7399
   18.330    5.7293
   18.345    5.8031
   18.360    5.7399
   18.375    5.9294
   18.390    5.8347
   18.405    5.8241
   18.420    5.8557
   18.435    5.7399
   18.450    5.6451
   18.465    5.8136
   18.480    5.7293
   18.495    5.7715
   18.510    6.3718
   18.525    6.2033
   18.540    5.8873
   18.555    5.4134
   18.570    5.2554
   18.585    5.7715
   18.600    6.0032
   18.615    5.7925
   18.630    5.8347
   18.645    5.8557
   18.660    5.9821
   18.675    5.6029
   18.690    5.8136
   18.705    5.6872
   18.720    5.9084
   18.735    5.4976
   18.750    5.4344
   18.765    5.6451
   18.780    5.4239
   18.795    5.7820
   18.810    5.8662
   18.825    5.4766
   18.840    5.4660
   18.855    6.1190
   18.870    5.8557
   18.885    5.9400
   18.900    5.6767
   18.915    5.9926
   18.930    5.9505
   18.945    6.1190
   18.960    6.3191
   18.975    6.1085
   18.990    6.4560
   19.005    6.9194
   19.020    6.5087
   19.035    6.4455
   19.050    6.0769
   19.065    6.2559
   19.080    6.0769
   19.095    5.9189
   19.110    5.9821
   19.125    5.8873
   19.140    5.9505
   19.155    5.8768
   19.170    5.9821
   19.185    5.8978
   19.200    5.4871
   19.215    5.9189
   19.230    5.8136
   19.245    6.0032
   19.260    5.9505
   19.275    6.0558
   19.290    5.9189
   19.305    5.8662
   19.320    5.6135
   19.335    5.5503
   19.350    5.1290
   19.365    5.2238
   19.380    6.0558
   19.395    5.8557
   19.410    5.6556
   19.425    5.8347
   19.440    5.9610
   19.455    5.3712
   19.470    5.6872
   19.485    5.8241
   19.500    5.5503
   19.515    5.8978
   19.530    5.8873
   19.545    5.7399
   19.560    5.9294
   19.575    5.6345
   19.590    5.7188
   19.605    5.5082
   19.620    6.1085
   19.635    5.9294
   19.650    5.8241
   19.665    5.7715
   19.680    5.7083
   19.695    5.8873
   19.710    6.0348
   19.725    6.0769
   19.740    5.8241
   19.755    5.8662
   19.770    5.8978
   19.785    5.8978
   19.800    5.5608
   19.815    5.7293
   19.830    5.7925
   19.845    6.0874
   19.860    5.8136
   19.875    5.7293
   19.890    5.8031
   19.905    5.8136
   19.920    5.9294
   19.935    5.5292
   19.950    5.6451
   19.965    5.8873
   19.980    5.8031
   19.995    5.6451
   20.010    5.8031
   20.025    6.0348
   20.040    5.7399
   20.055    5.7083
   20.070    5.7715
   20.085    5.9084
   20.100    6.0558
   20.115    5.7715
   20.130    6.1190
   20.145    5.5608
   20.160    5.6451
   20.175    6.0137
   20.190    5.9084
   20.205    5.8241
   20.220    6.0453
   20.235    6.2665
   20.250    5.7820
   20.265    5.6767
   20.280    5.6767
   20.295    5.8662
   20.310    5.8768
   20.325    5.8873
   20.340    5.9926
   20.355    5.9189
   20.370    5.6556
   20.385    5.6977
   20.400    5.5819
   20.415    5.9189
   20.430    5.7820
   20.445    6.0769
   20.460    5.9716
   20.475    5.9610
   20.490    6.1401
   20.505    5.8978
   20.520    5.8978
   20.535    5.7609
   20.550    5.8241
   20.565    5.6661
   20.580    5.6556
   20.595    5.5503
   20.610    5.6977
   20.625    6.1506
   20.640    5.7925
   20.655    5.7188
   20.670    5.9505
   20.685    5.9821
   20.700    5.8768
   20.715    6.0769
   20.730    6.2243
   20.745    6.3086
   20.760    6.1822
   20.775    5.6872
   20.790    5.7609
   20.805    5.7715
   20.820    5.9400
   20.835    6.2243
   20.850    6.2033
   20.865    5.9189
   20.880    5.8347
   20.895    5.6767
   20.910    5.9294
   20.925    5.9294
   20.940    5.6029
   20.955    5.9189
   20.970    6.1611
   20.985    6.0242
   21.000    6.2243
   21.015    5.9821
   21.030    5.6977
   21.045    6.0453
   21.060    5.9821
   21.075    5.8768
   21.090    5.8452
   21.105    5.9084
   21.120    6.0558
   21.135    5.8978
   21.150    6.1822
   21.165    6.4034
   21.180    6.1401
   21.195    5.8978
   21.210    5.8347
   21.225    5.9084
   21.240    5.8347
   21.255    5.9189
   21.270    5.5819
   21.285    5.7925
   21.300    5.9294
   21.315    6.1295
   21.330    5.9821
   21.345    6.2033
   21.360    6.0769
   21.375    6.0769
   21.390    5.7925
   21.405    6.0032
   21.420    6.0979
   21.435    5.9610
   21.450    5.6345
   21.465    6.0453
   21.480    5.8873
   21.495    5.5082
   21.510    5.7399
   21.525    5.9505
   21.540    5.5292
   21.555    5.7399
   21.570    5.8662
   21.585    6.0769
   21.600    6.1295
   21.615    5.9610
   21.630    5.7820
   21.645    6.2454
   21.660    5.8768
   21.675    6.0664
   21.690    6.2770
   21.705    5.7820
   21.720    5.5714
   21.735    6.0137
   21.750    5.6767
   21.765    5.9400
   21.780    5.6661
   21.795    5.4766
   21.810    5.9189
   21.825    5.8031
   21.840    5.6345
   21.855    5.6872
   21.870    5.7293
   21.885    5.7293
   21.900    5.6451
   21.915    6.1611
   21.930    6.0453
   21.945    5.8031
   21.960    5.9400
   21.975    5.8873
   21.990    5.9189
   22.005    6.1190
   22.020    5.7399
   22.035    5.8662
   22.050    5.8557
   22.065    5.9821
   22.080    6.2243
   22.095    6.1295
   22.110    6.2665
   22.125    6.1295
   22.140    5.8873
   22.155    5.8662
   22.170    5.9505
   22.185    5.7925
   22.200    6.0874
   22.215    5.8452
   22.230    5.9294
   22.245    5.7925
   22.260    5.6240
   22.275    5.7083
   22.290    5.8768
   22.305    6.0979
   22.320    5.8978
   22.335    6.0558
   22.350    5.6135
   22.365    5.8873
   22.380    5.7609
   22.395    5.8873
   22.410    5.7399
   22.425    5.5082
   22.440    6.3612
   22.455    6.2033
   22.470    5.9716
   22.485    6.1085
   22.500    5.9821
   22.515    6.2349
   22.530    6.5298
   22.545    6.5824
   22.560    6.3928
   22.575    6.0769
   22.590    6.1611
   22.605    6.1506
   22.620    6.1506
   22.635    5.9084
   22.650    5.8662
   22.665    5.8662
   22.680    6.1085
   22.695    6.2770
   22.710    6.1717
   22.725    5.8662
   22.740    6.0032
   22.755    5.7188
   22.770    5.6767
   22.785    5.6661
   22.800    5.7293
   22.815    5.7293
   22.830    5.6451
   22.845    5.6977
   22.860    5.9400
   22.875    6.1506
   22.890    6.0664
   22.905    5.7715
   22.920    5.8557
   22.935    5.6872
   22.950    5.8031
   22.965    5.8031
   22.980    5.8136
   22.995    5.7609
   23.010    6.1085
   23.025    5.9294
   23.040    5.4134
   23.055    5.9189
   23.070    5.8873
   23.085    6.2033
   23.100    6.0137
   23.115    6.2033
   23.130    6.1401
   23.145    5.8662
   23.160    5.8662
   23.175    5.9821
   23.190    5.9821
   23.205    5.8557
   23.220    5.9610
   23.235    5.7293
   23.250    5.9400
   23.265    5.8136
   23.280    6.2665
   23.295    5.8978
   23.310    5.4976
   23.325    5.6451
   23.340    6.1401
   23.355    5.7820
   23.370    5.7820
   23.385    6.0664
   23.400    6.0979
   23.415    6.0453
   23.430    5.8241
   23.445    5.8557
   23.460    5.9821
   23.475    6.1295
   23.490    5.8136
   23.505    5.8557
   23.520    6.0348
   23.535    6.0769
   23.550    5.7083
   23.565    6.0137
   23.580    6.2454
   23.595    6.2770
   23.610    6.0769
   23.625    5.9610
   23.640    6.2349
   23.655    5.9400
   23.670    6.0348
   23.685    5.9926
   23.700    6.0664
   23.715    5.8241
   23.730    5.7925
   23.745    5.9926
   23.760    5.6977
   23.775    5.9189
   23.790    5.6029
   23.805    5.8452
   23.820    5.9505
   23.835    5.9400
   23.850    5.7609
   23.865    6.0769
   23.880    5.9294
   23.895    5.9610
   23.910    5.9400
   23.925    5.8978
   23.940    5.8768
   23.955    6.2033
   23.970    5.8031
   23.985    5.5714
   24.000    5.4660
   24.015    5.8136
   24.030    6.0453
   24.045    5.8347
   24.060    5.7293
   24.075    5.9084
   24.090    6.0769
   24.105    5.9189
   24.120    5.7293
   24.135    5.8978
   24.150    6.1190
   24.165    5.9294
   24.180    5.8873
   24.195    5.8978
   24.210    5.6767
   24.225    5.8452
   24.240    6.0453
   24.255    5.5819
   24.270    5.4871
   24.285    6.0032
   24.300    5.7083
   24.315    5.7715
   24.330    5.7820
   24.345    5.6240
   24.360    5.5714
   24.375    6.0453
   24.390    5.7504
   24.405    5.7399
   24.420    5.8768
   24.435    6.0137
   24.450    5.5187
   24.465    6.1822
   24.480    5.7188
   24.495    5.8031
   24.510    6.0242
   24.525    6.0874
   24.540    5.6872
   24.555    5.5398
   24.570    5.6240
   24.585    5.9189
   24.600    5.4555
   24.615    5.8452
   24.630    5.8662
   24.645    6.1401
   24.660    5.9400
   24.675    5.6029
   24.690    5.9294
   24.705    5.7188
   24.720    5.8873
   24.735    6.1717
   24.750    5.8557
   24.765    5.4555
   24.780    5.5187
   24.795    5.9189
   24.810    5.9505
   24.825    5.6556
   24.840    5.5082
   24.855    5.5924
   24.870    5.7399
   24.885    6.0769
   24.900    5.6556
   24.915    5.4766
   24.930    5.8347
   24.945    5.7609
   24.960    5.6767
   24.975    5.6556
   24.990    5.8662
   25.005    5.8452
   25.020    5.5608
   25.035    5.8241
   25.050    5.4976
   25.065    5.6029
   25.080    5.8557
   25.095    5.5608
   25.110    5.4239
   25.125    5.2238
   25.140    5.9400
   25.155    5.7609
   25.170    5.7083
   25.185    5.7399
   25.200    5.8768
   25.215    5.8347
   25.230    5.8557
   25.245    5.4344
   25.260    5.5608
   25.275    5.6135
   25.290    6.0137
   25.305    6.2454
   25.320    5.7715
   25.335    5.6872
   25.350    5.6240
   25.365    5.8241
   25.380    5.5398
   25.395    6.0137
   25.410    5.9400
   25.425    6.0242
   25.440    5.9084
   25.455    5.8557
   25.470    5.9610
   25.485    5.7188
   25.500    5.6345
   25.515    5.8662
   25.530    5.6451
   25.545    5.8873
   25.560    6.0769
   25.575    5.6872
   25.590    5.3502
   25.605    5.5924
   25.620    5.5187
   25.635    5.8031
   25.650    5.6872
   25.665    5.4976
   25.680    5.6240
   25.695    5.5503
   25.710    5.7399
   25.725    5.8241
   25.740    5.7504
   25.755    5.7715
   25.770    5.5924
   25.785    5.4871
   25.800    5.2133
   25.815    5.3186
   25.830    5.7609
   25.845    5.9821
   25.860    5.8768
   25.875    5.8662
   25.890    5.8768
   25.905    5.2449
   25.920    5.5187
   25.935    5.6345
   25.950    5.5503
   25.965    5.7715
   25.980    5.5608
   25.995    5.4871
   26.010    5.6661
   26.025    5.8557
   26.040    5.9505
   26.055    5.7188
   26.070    5.2238
   26.085    5.1501
   26.100    5.4555
   26.115    5.2659
   26.130    5.6556
   26.145    5.7715
   26.160    5.6977
   26.175    5.6451
   26.190    5.7083
   26.205    5.7504
   26.220    5.4871
   26.235    5.4766
   26.250    5.7609
   26.265    5.7399
   26.280    5.4660
   26.295    5.5082
   26.310    5.3923
   26.325    5.6451
   26.340    5.6872
   26.355    5.5187
   26.370    5.2870
   26.385    5.7925
   26.400    5.2659
   26.415    5.6556
   26.430    5.6872
   26.445    5.5292
   26.460    5.4660
   26.475    5.6556
   26.490    5.7293
   26.505    5.7609
   26.520    5.7399
   26.535    5.6767
   26.550    5.6977
   26.565    5.6240
   26.580    5.7609
   26.595    5.4871
   26.610    5.5608
   26.625    5.6556
   26.640    5.7083
   26.655    5.5608
   26.670    5.4028
   26.685    5.3818
   26.700    5.3923
   26.715    5.5082
   26.730    5.2870
   26.745    5.9189
   26.760    5.4450
   26.775    5.5292
   26.790    5.3502
   26.805    5.0869
   26.820    5.4871
   26.835    5.2027
   26.850    5.5082
   26.865    5.6767
   26.880    5.6872
   26.895    5.2870
   26.910    5.4450
   26.925    5.0764
   26.940    5.4134
   26.955    5.3081
   26.970    5.7925
   26.985    5.2343
   27.000    5.4660
   27.015    5.4134
   27.030    5.5082
   27.045    5.7715
   27.060    5.2765
   27.075    5.7293
   27.090    5.4555
   27.105    5.4871
   27.120    5.3291
   27.135    5.2765
   27.150    5.1080
   27.165    5.5292
   27.180    5.3397
   27.195    5.3712
   27.210    5.2449
   27.225    5.2659
   27.240    5.4766
   27.255    5.4134
   27.270    5.6135
   27.285    5.5608
   27.300    5.6872
   27.315    5.5608
   27.330    5.2027
   27.345    5.2133
   27.360    5.3502
   27.375    5.2870
   27.390    5.3923
   27.405    5.3397
   27.420    5.3502
   27.435    5.5292
   27.450    5.8031
   27.465    5.5819
   27.480    5.5819
   27.495    5.4871
   27.510    5.4134
   27.525    5.3712
   27.540    5.5082
   27.555    5.5819
   27.570    5.3923
   27.585    5.6872
   27.600    5.1501
   27.615    5.2870
   27.630    5.4134
   27.645    4.9605
   27.660    5.3607
   27.675    5.1711
   27.690    5.1290
   27.705    5.4660
   27.720    5.5608
   27.735    5.7083
   27.750    5.3081
   27.765    5.3818
   27.780    5.5187
   27.795    5.6029
   27.810    5.5924
   27.825    5.7715
   27.840    5.5714
   27.855    5.6556
   27.870    5.3186
   27.885    5.2449
   27.900    5.3502
   27.915    5.7715
   27.930    5.6345
   27.945    5.4028
   27.960    5.5503
   27.975    5.8557
   27.990    6.0137
   28.005    5.6451
   28.020    5.6240
   28.035    6.5508
   28.050    6.0558
   28.065    5.5082
   28.080    5.8241
   28.095    5.9821
   28.110    5.6451
   28.125    5.3186
   28.140    5.5187
   28.155    5.4344
   28.170    5.1395
   28.185    5.6240
   28.200    5.6029
   28.215    5.2449
   28.230    5.3712
   28.245    5.3818
   28.260    5.6767
   28.275    5.6556
   28.290    5.4976
   28.305    5.4555
   28.320    5.5503
   28.335    5.4028
   28.350    5.1080
   28.365    5.2449
   28.380    5.4450
   28.395    5.8452
   28.410    5.3186
   28.425    5.4976
   28.440    5.3186
   28.455    5.1817
   28.470    5.0237
   28.485    5.3397
   28.500    5.3712
   28.515    5.3502
   28.530    5.4660
   28.545    5.6556
   28.560    5.6767
   28.575    5.2027
   28.590    5.2449
   28.605    5.4555
   28.620    5.4239
   28.635    5.4450
   28.650    5.4976
   28.665    5.5398
   28.680    5.2659
   28.695    5.2238
   28.710    5.2554
   28.725    5.1922
   28.740    5.1922
   28.755    5.1922
   28.770    5.3502
   28.785    5.4976
   28.800    5.4766
   28.815    5.3818
   28.830    5.2238
   28.845    5.2870
   28.860    5.3818
   28.875    5.7609
   28.890    5.5608
   28.905    5.6977
   28.920    5.5187
   28.935    5.6767
   28.950    5.9716
   28.965    5.8136
   28.980    5.8452
   28.995    5.6345
   29.010    5.9294
   29.025    5.8031
   29.040    5.4028
   29.055    5.5819
   29.070    5.6135
   29.085    5.2659
   29.100    4.9816
   29.115    5.1290
   29.130    5.6872
   29.145    5.2027
   29.160    5.5187
   29.175    5.2975
   29.190    5.1395
   29.205    5.3081
   29.220    5.2238
   29.235    5.4450
   29.250    5.6135
   29.265    5.8873
   29.280    5.4555
   29.295    5.5819
   29.310    5.2449
   29.325    5.0974
   29.340    5.6977
   29.355    5.2870
   29.370    5.3291
   29.385    5.2659
   29.400    5.3502
   29.415    5.9189
   29.430    5.6135
   29.445    5.0026
   29.460    5.1185
   29.475    5.2765
   29.490    5.1711
   29.505    5.0974
   29.520    5.1817
   29.535    5.5398
   29.550    5.5924
   29.565    5.2133
   29.580    5.1922
   29.595    5.2554
   29.610    5.0658
   29.625    5.6345
   29.640    5.3186
   29.655    5.0448
   29.670    5.0658
   29.685    5.2027
   29.700    5.3607
   29.715    5.3818
   29.730    5.0026
   29.745    5.0132
   29.760    5.0342
   29.775    5.0974
   29.790    5.4134
   29.805    5.0448
   29.820    5.4660
   29.835    5.5819
   29.850    5.3502
   29.865    5.1080
   29.880    5.3712
   29.895    5.1290
   29.910    5.2449
   29.925    5.2449
   29.940    5.3818
   29.955    5.0237
   29.970    5.3081
   29.985    5.2449
   30.000    5.4028
   30.015    5.4239
   30.030    5.4134
   30.045    5.1080
   30.060    5.1922
   30.075    5.3502
   30.090    5.7609
   30.105    5.4450
   30.120    4.9816
   30.135    5.1290
   30.150    5.0869
   30.165    5.3923
   30.180    5.0658
   30.195    5.4871
   30.210    5.3712
   30.225    5.3186
   30.240    5.3186
   30.255    5.0448
   30.270    5.1922
   30.285    5.4028
   30.300    5.2554
   30.315    5.2343
   30.330    5.2238
   30.345    5.3818
   30.360    5.2027
   30.375    5.2027
   30.390    5.2343
   30.405    4.8447
   30.420    5.0448
   30.435    5.1922
   30.450    5.2027
   30.465    5.2765
   30.480    5.2238
   30.495    5.1501
   30.510    5.5187
   30.525    5.3923
   30.540    5.1290
   30.555    5.5082
   30.570    5.3818
   30.585    5.3502
   30.600    5.2027
   30.615    5.2027
   30.630    5.1606
   30.645    5.0869
   30.660    5.4028
   30.675    5.0132
   30.690    4.9710
   30.705    5.2449
   30.720    5.1185
   30.735    5.0974
   30.750    5.3712
   30.765    4.9394
   30.780    5.0869
   30.795    4.9289
   30.810    4.9289
   30.825    5.0764
   30.840    5.2449
   30.855    5.1185
   30.870    5.2238
   30.885    5.3923
   30.900    5.0026
   30.915    5.0026
   30.930    5.0132
   30.945    5.0553
   30.960    5.1290
   30.975    5.1185
   30.990    5.0448
   31.005    5.2659
   31.020    5.3397
   31.035    5.3712
   31.050    4.9500
   31.065    5.0658
   31.080    4.5708
   31.095    4.9184
   31.110    5.0869
   31.125    4.9394
   31.140    4.8657
   31.155    5.1711
   31.170    5.1922
   31.185    4.9500
   31.200    5.2027
   31.215    5.4028
   31.230    5.2449
   31.245    5.0553
   31.260    4.8973
   31.275    5.1501
   31.290    5.1606
   31.305    4.5498
   31.320    5.2133
   31.335    5.5187
   31.350    5.5082
   31.365    5.3712
   31.380    4.9394
   31.395    5.1711
   31.410    4.8236
   31.425    4.9078
   31.440    4.8973
   31.455    5.3923
   31.470    5.2870
   31.485    5.1922
   31.500    5.0237
   31.515    4.9816
   31.530    5.0553
   31.545    5.0658
   31.560    5.0658
   31.575    5.0448
   31.590    5.0764
   31.605    4.6972
   31.620    4.7499
   31.635    5.0658
   31.650    5.2554
   31.665    5.4555
   31.680    5.3186
   31.695    5.1080
   31.710    5.1395
   31.725    4.9710
   31.740    4.9394
   31.755    5.2554
   31.770    5.0974
   31.785    5.0342
   31.800    5.4766
   31.815    5.5082
   31.830    5.4766
   31.845    5.7083
   31.860    5.4028
   31.875    5.3186
   31.890    5.1080
   31.905    5.2449
   31.920    5.0026
   31.935    5.3818
   31.950    5.2133
   31.965    5.1817
   31.980    5.2975
   31.995    5.4239
   32.010    5.2870
   32.025    5.4871
   32.040    5.4239
   32.055    5.6872
   32.070    6.1190
   32.085    5.8978
   32.100    5.9189
   32.115    6.0032
   32.130    6.2454
   32.145    6.2981
   32.160    5.9189
   32.175    5.5292
   32.190    5.5924
   32.205    5.5398
   32.220    5.0342
   32.235    4.8025
   32.250    5.0026
   32.265    4.9816
   32.280    5.0237
   32.295    5.1395
   32.310    4.8131
   32.325    5.0869
   32.340    5.2659
   32.355    5.1922
   32.370    5.2765
   32.385    4.9078
   32.400    5.4660
   32.415    5.0764
   32.430    4.7077
   32.445    4.6551
   32.460    5.0553
   32.475    5.0237
   32.490    5.1080
   32.505    5.0764
   32.520    4.9394
   32.535    4.8973
   32.550    5.2449
   32.565    5.0869
   32.580    5.2133
   32.595    4.6235
   32.610    4.9710
   32.625    4.9394
   32.640    4.8973
   32.655    5.0342
   32.670    5.1395
   32.685    5.0026
   32.700    4.6867
   32.715    4.7288
   32.730    4.7709
   32.745    4.9605
   32.760    4.9078
   32.775    5.1185
   32.790    5.1817
   32.805    5.0237
   32.820    5.1711
   32.835    5.0553
   32.850    4.5708
   32.865    4.7709
   32.880    4.8868
   32.895    5.0237
   32.910    5.1080
   32.925    5.0342
   32.940    4.9289
   32.955    4.7604
   32.970    4.9184
   32.985    5.0342
   33.000    5.0869
   33.015    4.6761
   33.030    4.8341
   33.045    4.8447
   33.060    4.8131
   33.075    4.9710
   33.090    5.2765
   33.105    4.7920
   33.120    5.2659
   33.135    5.2554
   33.150    5.0764
   33.165    5.1290
   33.180    4.8552
   33.195    5.0658
   33.210    5.1817
   33.225    4.7709
   33.240    5.1080
   33.255    5.0026
   33.270    4.8447
   33.285    4.9605
   33.300    5.0237
   33.315    4.9078
   33.330    4.9078
   33.345    5.0764
   33.360    5.0237
   33.375    4.7077
   33.390    4.5603
   33.405    4.8447
   33.420    4.8236
   33.435    5.2659
   33.450    5.0132
   33.465    5.2133
   33.480    4.9921
   33.495    4.7499
   33.510    4.9184
   33.525    4.8341
   33.540    4.8868
   33.555    4.9710
   33.570    4.9710
   33.585    4.7499
   33.600    4.8657
   33.615    5.0869
   33.630    4.8447
   33.645    5.2870
   33.660    4.8236
   33.675    4.8763
   33.690    4.8657
   33.705    5.5924
   33.720    5.2027
   33.735    4.7815
   33.750    4.9500
   33.765    5.1711
   33.780    5.1711
   33.795    4.9605
   33.810    4.8131
   33.825    5.1606
   33.840    5.2659
   33.855    5.3923
   33.870    5.5819
   33.885    5.4134
   33.900    5.4660
   33.915    5.2765
   33.930    5.0974
   33.945    5.4028
   33.960    4.8447
   33.975    4.7077
   33.990    5.1080
   34.005    5.2238
   34.020    5.0237
   34.035    5.0448
   34.050    5.0658
   34.065    4.9605
   34.080    4.7288
   34.095    4.9816
   34.110    5.3397
   34.125    4.9500
   34.140    4.5392
   34.155    4.8025
   34.170    5.0869
   34.185    4.9394
   34.200    4.8868
   34.215    5.0132
   34.230    4.9289
   34.245    4.8341
   34.260    4.3602
   34.275    4.5182
   34.290    4.5182
   34.305    4.5919
   34.320    4.5498
   34.335    4.6551
   34.350    4.7499
   34.365    4.6235
   34.380    4.4866
   34.395    4.5392
   34.410    4.5919
   34.425    4.5392
   34.440    4.6235
   34.455    5.0237
   34.470    5.0026
   34.485    4.9816
   34.500    4.8973
   34.515    4.7499
   34.530    4.7920
   34.545    4.8868
   34.560    4.9078
   34.575    4.6761
   34.590    4.9816
   34.605    4.8236
   34.620    5.0237
   34.635    4.7077
   34.650    4.5919
   34.665    4.4760
   34.680    5.1290
   34.695    4.6445
   34.710    4.5076
   34.725    4.8447
   34.740    4.9184
   34.755    4.7288
   34.770    4.5919
   34.785    4.6445
   34.800    4.7393
   34.815    4.9289
   34.830    4.8447
   34.845    4.9816
   34.860    4.8552
   34.875    4.7183
   34.890    4.7288
   34.905    4.7393
   34.920    4.6130
   34.935    4.6972
   34.950    4.2970
   34.965    4.3391
   34.980    4.5498
   34.995    4.3602
   35.010    4.5392
   35.025    4.5919
   35.040    4.5708
   35.055    4.6656
   35.070    5.0974
   35.085    4.8447
   35.100    4.6024
   35.115    4.8973
   35.130    4.5814
   35.145    4.6445
   35.160    4.5708
   35.175    4.8236
   35.190    4.7077
   35.205    4.7709
   35.220    4.7815
   35.235    4.7288
   35.250    4.4128
   35.265    4.6445
   35.280    4.6867
   35.295    4.3497
   35.310    4.4234
   35.325    4.7604
   35.340    4.5498
   35.355    4.5603
   35.370    4.7604
   35.385    4.5498
   35.400    4.5182
   35.415    4.7183
   35.430    4.9078
   35.445    4.6656
   35.460    4.6867
   35.475    4.9921
   35.490    4.4655
   35.505    4.5392
   35.520    4.6551
   35.535    4.6656
   35.550    4.3707
   35.565    4.8131
   35.580    4.5919
   35.595    4.6130
   35.610    4.3181
   35.625    4.5182
   35.640    4.9078
   35.655    4.5603
   35.670    4.8763
   35.685    4.8973
   35.700    4.7815
   35.715    4.7077
   35.730    4.5392
   35.745    4.4971
   35.760    4.7183
   35.775    4.3181
   35.790    5.0448
   35.805    4.5708
   35.820    4.3286
   35.835    4.5392
   35.850    5.0026
   35.865    4.6761
   35.880    5.0026
   35.895    4.8763
   35.910    4.8236
   35.925    4.3918
   35.940    4.5919
   35.955    4.6867
   35.970    4.4866
   35.985    4.6972
   36.000    4.6130
   36.015    4.6551
   36.030    4.5919
   36.045    4.4128
   36.060    4.2865
   36.075    4.6130
   36.090    4.5182
   36.105    4.5182
   36.120    4.4234
   36.135    4.5708
   36.150    4.5498
   36.165    4.2233
   36.180    4.6024
   36.195    4.6024
   36.210    4.6551
   36.225    4.8447
   36.240    4.5287
   36.255    4.4655
   36.270    4.6340
   36.285    4.6235
   36.300    4.5182
   36.315    4.2970
   36.330    4.3813
   36.345    4.4550
   36.360    4.3707
   36.375    4.9184
   36.390    4.8025
   36.405    4.5603
   36.420    4.4550
   36.435    4.4234
   36.450    4.6551
   36.465    4.4971
   36.480    4.7183
   36.495    4.7183
   36.510    4.5708
   36.525    4.5392
   36.540    4.6235
   36.555    4.2865
   36.570    4.4234
   36.585    4.4655
   36.600    4.6340
   36.615    4.8236
   36.630    4.8447
   36.645    4.5287
   36.660    4.4760
   36.675    4.9184
   36.690    4.4444
   36.705    4.3602
   36.720    4.5182
   36.735    4.5603
   36.750    4.5392
   36.765    4.4866
   36.780    4.1496
   36.795    4.3391
   36.810    4.3813
   36.825    4.4760
   36.840    4.8131
   36.855    4.8236
   36.870    4.6130
   36.885    4.5287
   36.900    4.1390
   36.915    4.5708
   36.930    4.5708
   36.945    4.5076
   36.960    4.8341
   36.975    4.5603
   36.990    4.5708
   37.005    4.7077
   37.020    4.3497
   37.035    4.4023
   37.050    4.7920
   37.065    4.5708
   37.080    4.7815
   37.095    4.4655
   37.110    4.2338
   37.125    4.6024
   37.140    4.6761
   37.155    4.5603
   37.170    4.9921
   37.185    4.3707
   37.200    4.4971
   37.215    4.8236
   37.230    4.5498
   37.245    4.5076
   37.260    4.0758
   37.275    4.2759
   37.290    4.6656
   37.305    4.3075
   37.320    4.4971
   37.335    4.1074
   37.350    4.6551
   37.365    4.6761
   37.380    4.4550
   37.395    4.6972
   37.410    4.5498
   37.425    4.6972
   37.440    4.7393
   37.455    4.5814
   37.470    4.5498
   37.485    4.4971
   37.500    4.2865
   37.515    4.4866
   37.530    4.7077
   37.545    4.5919
   37.560    4.6024
   37.575    4.3391
   37.590    4.1390
   37.605    4.3286
   37.620    4.5814
   37.635    4.2549
   37.650    4.4128
   37.665    4.4866
   37.680    4.7288
   37.695    4.7288
   37.710    4.2865
   37.725    4.2970
   37.740    4.4550
   37.755    4.4971
   37.770    4.4023
   37.785    4.7604
   37.800    4.3181
   37.815    4.5498
   37.830    4.8341
   37.845    4.4339
   37.860    4.5919
   37.875    4.6340
   37.890    4.4550
   37.905    4.2549
   37.920    4.4234
   37.935    4.6235
   37.950    4.3075
   37.965    4.4234
   37.980    4.3286
   37.995    4.3075
   38.010    4.1917
   38.025    4.0442
   38.040    4.6761
   38.055    4.8657
   38.070    4.4339
   38.085    4.1706
   38.100    4.3286
   38.115    4.3181
   38.130    4.4444
   38.145    4.5708
   38.160    4.3602
   38.175    4.4655
   38.190    4.3918
   38.205    4.4339
   38.220    4.4128
   38.235    4.3286
   38.250    4.0653
   38.265    4.3813
   38.280    4.2443
   38.295    4.4128
   38.310    4.2759
   38.325    4.4971
   38.340    4.4655
   38.355    4.4023
   38.370    4.4023
   38.385    4.2865
   38.400    4.5498
   38.415    4.5287
   38.430    4.4655
   38.445    4.5919
   38.460    4.4444
   38.475    4.2338
   38.490    4.4339
   38.505    4.6445
   38.520    4.4128
   38.535    4.4339
   38.550    4.3813
   38.565    4.7183
   38.580    4.8341
   38.595    4.4234
   38.610    4.5603
   38.625    4.6130
   38.640    4.8025
   38.655    4.6235
   38.670    4.7183
   38.685    4.7815
   38.700    4.5708
   38.715    4.4866
   38.730    4.5603
   38.745    4.5603
   38.760    4.5392
   38.775    4.2654
   38.790    4.4023
   38.805    4.3497
   38.820    4.6130
   38.835    4.3075
   38.850    4.4339
   38.865    4.5498
   38.880    4.8131
   38.895    4.6130
   38.910    4.5814
   38.925    4.3707
   38.940    4.2338
   38.955    4.0864
   38.970    4.0969
   38.985    4.1706
   39.000    4.2443
   39.015    4.2022
   39.030    4.3075
   39.045    4.1496
   39.060    4.1706
   39.075    4.6024
   39.090    4.3391
   39.105    4.3075
   39.120    4.3813
   39.135    4.5287
   39.150    4.4339
   39.165    4.4971
   39.180    4.1496
   39.195    4.3602
   39.210    4.2549
   39.225    4.2970
   39.240    4.4760
   39.255    4.1601
   39.270    4.4128
   39.285    4.5814
   39.300    4.2233
   39.315    4.5287
   39.330    4.1601
   39.345    4.5498
   39.360    4.4234
   39.375    4.2865
   39.390    4.6551
   39.405    4.4339
   39.420    4.3075
   39.435    4.3602
   39.450    4.3391
   39.465    4.2654
   39.480    4.1811
   39.495    4.2759
   39.510    4.2759
   39.525    4.2970
   39.540    4.2549
   39.555    4.3391
   39.570    4.6656
   39.585    4.2443
   39.600    4.5603
   39.615    4.2654
   39.630    4.0021
   39.645    4.2759
   39.660    4.1496
   39.675    4.3181
   39.690    4.3286
   39.705    4.4444
   39.720    4.4234
   39.735    4.4444
   39.750    4.1811
   39.765    4.3181
   39.780    4.6761
   39.795    4.4128
   39.810    4.0969
   39.825    3.9705
   39.840    4.1496
   39.855    4.2654
   39.870    4.0653
   39.885    4.2443
   39.900    4.2338
   39.915    4.4971
   39.930    4.2865
   39.945    4.3918
   39.960    4.4760
   39.975    4.1390
   39.990    4.2759
