    1.500    5.2862
    1.515    5.2755
    1.530    5.2970
    1.545    5.1257
    1.560    4.9010
    1.575    5.0722
    1.590    4.9117
    1.605    4.9652
    1.620    4.8903
    1.635    4.8154
    1.650    4.8582
    1.665    4.5265
    1.680    4.0877
    1.695    4.7084
    1.710    4.1734
    1.725    4.3339
    1.740    4.4088
    1.755    4.2804
    1.770    4.1306
    1.785    3.9914
    1.800    4.0128
    1.815    4.0556
    1.830    3.9486
    1.845    3.8095
    1.860    4.1627
    1.875    3.4564
    1.890    3.6490
    1.905    3.7346
    1.920    3.9914
    1.935    3.6169
    1.950    3.2638
    1.965    3.3815
    1.980    3.5634
    1.995    3.6062
    2.010    3.6276
    2.025    3.3708
    2.040    3.1889
    2.055    3.4885
    2.070    3.2959
    2.085    3.1889
    2.100    3.2852
    2.115    3.1354
    2.130    3.0926
    2.145    3.0391
    2.160    2.9856
    2.175    3.2210
    2.190    3.2103
    2.205    3.2317
    2.220    3.3815
    2.235    3.1033
    2.250    2.7715
    2.265    2.6110
    2.280    2.7822
    2.295    3.0070
    2.310    2.7608
    2.325    2.6966
    2.340    2.7501
    2.355    2.9428
    2.370    2.8571
    2.385    2.8357
    2.400    3.0070
    2.415    2.7394
    2.430    2.6003
    2.445    2.8999
    2.460    2.7929
    2.475    2.4719
    2.490    2.6110
    2.505    2.8143
    2.520    2.6859
    2.535    2.4933
    2.550    2.5575
    2.565    2.4719
    2.580    2.3435
    2.595    2.3863
    2.610    2.4826
    2.625    2.6431
    2.640    2.3863
    2.655    2.4719
    2.670    2.5040
    2.685    2.5040
    2.700    2.4719
    2.715    2.7608
    2.730    2.5575
    2.745    2.5040
    2.760    2.3649
    2.775    2.3863
    2.790    2.3863
    2.805    2.3863
    2.820    2.3756
    2.835    2.3435
    2.850    2.1295
    2.865    2.3328
    2.880    2.3114
    2.895    2.2686
    2.910    2.4505
    2.925    2.4933
    2.940    2.3970
    2.955    2.3221
    2.970    2.5040
    2.985    2.4291
    3.000    2.3007
    3.015    2.5147
    3.030    2.5254
    3.045    2.2900
    3.060    2.1509
    3.075    2.3970
    3.090    2.3221
    3.105    2.5682
    3.120    2.6645
    3.135    2.5789
    3.150    2.5147
    3.165    2.7073
    3.180    2.6217
    3.195    2.5682
    3.210    2.5682
    3.225    2.7073
    3.240    2.7073
    3.255    2.4933
    3.270    2.6110
    3.285    2.6110
    3.300    2.9642
    3.315    2.5254
    3.330    2.8464
    3.345    2.9963
    3.360    2.7929
    3.375    2.7715
    3.390    2.8036
    3.405    2.8250
    3.420    2.9106
    3.435    2.8678
    3.450    2.8036
    3.465    3.1675
    3.480    3.1782
    3.495    3.3280
    3.510    3.2638
    3.525    3.1996
    3.540    3.5634
    3.555    3.3815
    3.570    3.3601
    3.585    3.4136
    3.600    3.5527
    3.615    3.5313
    3.630    3.3387
    3.645    3.7025
    3.660    4.0128
    3.675    4.3125
    3.690    4.1306
    3.705    4.0235
    3.720    4.5479
    3.735    4.4088
    3.750    4.7298
    3.765    4.7833
    3.780    4.4837
    3.795    4.7940
    3.810    4.9866
    3.825    5.2434
    3.840    5.2220
    3.855    5.2970
    3.870    5.7999
    3.885    5.9176
    3.900    5.9176
    3.915    6.3777
    3.930    6.9877
    3.945    7.3408
    3.960    7.3515
    3.975    7.2873
    3.990    7.4692
    4.005    8.2718
    4.020    9.1600
    4.035    8.8283
    4.050    8.5500
    4.065    9.1279
    4.080    9.5131
    4.095    9.5666
    4.110   10.1552
    4.125   10.4655
    4.140   10.6474
    4.155   10.9898
    4.170   11.6319
    4.185   11.8245
    4.200   12.7341
    4.215   13.4724
    4.230   13.9647
    4.245   14.6602
    4.260   15.1632
    4.275   16.2012
    4.290   17.5602
    4.305   18.9299
    4.320   20.4922
    4.335   21.0380
    4.350   22.7715
    4.365   24.3553
    4.380   26.5062
    4.395   28.7105
    4.410   31.2039
    4.425   33.7293
    4.440   38.7266
    4.455   43.8202
    4.470   50.1338
    4.485   58.8122
    4.500   67.7261
    4.515   73.0872
    4.530   68.5607
    4.545   52.9053
    4.560   32.2846
    4.575   17.3248
    4.590    9.0530
    4.605    6.4098
    4.620    4.9973
    4.635    4.0342
    4.650    3.4243
    4.665    3.0177
    4.680    2.6217
    4.695    2.5147
    4.710    2.4184
    4.725    2.1295
    4.740    1.8406
    4.755    2.1188
    4.770    1.8727
    4.785    1.8192
    4.800    1.9155
    4.815    1.9476
    4.830    1.7978
    4.845    1.7014
    4.860    1.6265
    4.875    1.9262
    4.890    1.6586
    4.905    1.5195
    4.920    1.5195
    4.935    1.5837
    4.950    1.6158
    4.965    1.8085
    4.980    1.7442
    4.995    1.3804
    5.010    1.4767
    5.025    1.5516
    5.040    1.4553
    5.055    1.5302
    5.070    1.4446
    5.085    1.4018
    5.100    1.3590
    5.115    1.3269
    5.130    1.2627
    5.145    1.2627
    5.160    1.2520
    5.175    1.2841
    5.190    1.1343
    5.205    1.3162
    5.220    1.3590
    5.235    1.1236
    5.250    1.2413
    5.265    1.4339
    5.280    1.2734
    5.295    1.1771
    5.310    1.2306
    5.325    1.2092
    5.340    1.1129
    5.355    1.2413
    5.370    1.2841
    5.385    1.2306
    5.400    1.2092
    5.415    1.1878
    5.430    1.3162
    5.445    1.2627
    5.460    1.0380
    5.475    1.0273
    5.490    1.1022
    5.505    1.1343
    5.520    1.2413
    5.535    1.1557
    5.550    1.2627
    5.565    1.3055
    5.580    1.2092
    5.595    1.1129
    5.610    1.1450
    5.625    1.1771
    5.640    1.1557
    5.655    1.1664
    5.670    1.3269
    5.685    1.1771
    5.700    1.3483
    5.715    1.2948
    5.730    1.4339
    5.745    1.3911
    5.760    1.4232
    5.775    1.4125
    5.790    1.3269
    5.805    1.4125
    5.820    1.3697
    5.835    1.3911
    5.850    1.4660
    5.865    1.4125
    5.880    1.5730
    5.895    1.4232
    5.910    1.6051
    5.925    1.7228
    5.940    1.6051
    5.955    1.6051
    5.970    1.6051
    5.985    1.8941
    6.000    2.0011
    6.015    1.7121
    6.030    1.7442
    6.045    1.7978
    6.060    1.8941
    6.075    2.3007
    6.090    2.2365
    6.105    2.3007
    6.120    2.2258
    6.135    2.2044
    6.150    2.5896
    6.165    2.6431
    6.180    2.7287
    6.195    3.0819
    6.210    3.5741
    6.225    3.2745
    6.240    3.3922
    6.255    3.7988
    6.270    3.9807
    6.285    4.3660
    6.300    5.0936
    6.315    5.3398
    6.330    5.8534
    6.345    7.0412
    6.360    8.0792
    6.375    9.5559
    6.390   10.5083
    6.405   11.0861
    6.420    9.9946
    6.435    7.2552
    6.450    4.4195
    6.465    2.7394
    6.480    1.9155
    6.495    1.5302
    6.510    1.1878
    6.525    1.3804
    6.540    1.2734
    6.555    1.0380
    6.570    1.1236
    6.585    1.1878
    6.600    1.1022
    6.615    1.0487
    6.630    0.9417
    6.645    0.9738
    6.660    0.9631
    6.675    0.9631
    6.690    1.0380
    6.705    1.0808
    6.720    1.0915
    6.735    1.2199
    6.750    1.0701
    6.765    1.0915
    6.780    0.9310
    6.795    1.0273
    6.810    0.9738
    6.825    1.0487
    6.840    1.1022
    6.855    1.0701
    6.870    1.0701
    6.885    1.0701
    6.900    1.1022
    6.915    0.8454
    6.930    0.8989
    6.945    0.8454
    6.960    0.8989
    6.975    0.9738
    6.990    0.9310
    7.005    0.9203
    7.020    0.8989
    7.035    1.0487
    7.050    1.0059
    7.065    0.9310
    7.080    0.8668
    7.095    0.8026
    7.110    1.0273
    7.125    0.9631
    7.140    0.9310
    7.155    0.8561
    7.170    0.8668
    7.185    0.8347
    7.200    0.8882
    7.215    1.0166
    7.230    0.9310
    7.245    0.8775
    7.260    0.9310
    7.275    0.9952
    7.290    0.8347
    7.305    0.9203
    7.320    0.9738
    7.335    0.8989
    7.350    0.8561
    7.365    0.8347
    7.380    0.9310
    7.395    0.8668
    7.410    0.9096
    7.425    0.8561
    7.440    0.8026
    7.455    0.9203
    7.470    0.8133
    7.485    0.7170
    7.500    0.8454
    7.515    1.0166
    7.530    0.8240
    7.545    1.0487
    7.560    0.9845
    7.575    0.8240
    7.590    1.1129
    7.605    0.8989
    7.620    0.8882
    7.635    1.1664
    7.650    0.8454
    7.665    1.1129
    7.680    0.8989
    7.695    1.1771
    7.710    1.0915
    7.725    1.0915
    7.740    1.3590
    7.755    1.1343
    7.770    1.0380
    7.785    1.2413
    7.800    1.0915
    7.815    1.3697
    7.830    1.3911
    7.845    1.4446
    7.860    1.6479
    7.875    1.4981
    7.890    1.1557
    7.905    1.0701
    7.920    1.0380
    7.935    1.0487
    7.950    1.0166
    7.965    0.8882
    7.980    0.8668
    7.995    1.2306
    8.010    1.0059
    8.025    0.8668
    8.040    1.0166
    8.055    1.0594
    8.070    0.9952
    8.085    0.8668
    8.100    1.0594
    8.115    0.9096
    8.130    0.9417
    8.145    0.9310
    8.160    0.8989
    8.175    0.8882
    8.190    0.8882
    8.205    0.9203
    8.220    0.8668
    8.235    0.8240
    8.250    0.8561
    8.265    0.6956
    8.280    0.8882
    8.295    0.8454
    8.310    0.9096
    8.325    0.8668
    8.340    0.8454
    8.355    0.8240
    8.370    0.8989
    8.385    0.8668
    8.400    0.8668
    8.415    0.7170
    8.430    0.8240
    8.445    0.8882
    8.460    0.9203
    8.475    0.8561
    8.490    0.8133
    8.505    0.7063
    8.520    0.7384
    8.535    0.8240
    8.550    0.9631
    8.565    0.9738
    8.580    0.9631
    8.595    0.8454
    8.610    0.8240
    8.625    0.9310
    8.640    0.9203
    8.655    0.8026
    8.670    1.0487
    8.685    0.9952
    8.700    1.0701
    8.715    0.9738
    8.730    1.0701
    8.745    0.9738
    8.760    1.1129
    8.775    1.2199
    8.790    1.1557
    8.805    0.9952
    8.820    1.1236
    8.835    1.3590
    8.850    1.3697
    8.865    1.3697
    8.880    1.5409
    8.895    1.4339
    8.910    1.6051
    8.925    1.7121
    8.940    1.8299
    8.955    1.9797
    8.970    2.1295
    8.985    2.1830
    9.000    2.5040
    9.015    3.0177
    9.030    3.2103
    9.045    3.7881
    9.060    4.0449
    9.075    4.5372
    9.090    3.6490
    9.105    3.0712
    9.120    1.9369
    9.135    1.5195
    9.150    1.2092
    9.165    1.0487
    9.180    0.8775
    9.195    0.7384
    9.210    0.8561
    9.225    0.7705
    9.240    0.7919
    9.255    1.0594
    9.270    0.8989
    9.285    0.8989
    9.300    0.7812
    9.315    0.7170
    9.330    0.8882
    9.345    0.7812
    9.360    0.7705
    9.375    0.7384
    9.390    0.7598
    9.405    0.8561
    9.420    0.9096
    9.435    0.7491
    9.450    0.9203
    9.465    0.8454
    9.480    0.7598
    9.495    0.7170
    9.510    0.7491
    9.525    0.8454
    9.540    0.7491
    9.555    0.8026
    9.570    0.8026
    9.585    0.7919
    9.600    0.7384
    9.615    0.7170
    9.630    0.8775
    9.645    0.8775
    9.660    0.7170
    9.675    0.7277
    9.690    0.7491
    9.705    0.8240
    9.720    0.7919
    9.735    0.8133
    9.750    0.7705
    9.765    0.7919
    9.780    0.9310
    9.795    0.9096
    9.810    0.8454
    9.825    0.7277
    9.840    0.8347
    9.855    0.9631
    9.870    0.8882
    9.885    0.8347
    9.900    0.9631
    9.915    0.9203
    9.930    1.0487
    9.945    1.0273
    9.960    1.0059
    9.975    0.8454
    9.990    0.9096
   10.005    0.9738
   10.020    0.9845
   10.035    0.8775
   10.050    0.9524
   10.065    1.0915
   10.080    1.0487
   10.095    1.3055
   10.110    1.1343
   10.125    1.1878
   10.140    1.3269
   10.155    1.4767
   10.170    1.4339
   10.185    1.1771
   10.200    1.0166
   10.215    0.8026
   10.230    0.8775
   10.245    0.8026
   10.260    0.6956
   10.275    0.6314
   10.290    0.7063
   10.305    0.8882
   10.320    0.7705
   10.335    0.7170
   10.350    0.8133
   10.365    0.8561
   10.380    0.7063
   10.395    0.6742
   10.410    0.8561
   10.425    0.8240
   10.440    0.8133
   10.455    0.7491
   10.470    0.7919
   10.485    0.7170
   10.500    0.8668
   10.515    0.7384
   10.530    0.6849
   10.545    0.7705
   10.560    0.7384
   10.575    0.7598
   10.590    0.7812
   10.605    0.7063
   10.620    0.8989
   10.635    0.7384
   10.650    0.7384
   10.665    0.7705
   10.680    0.7170
   10.695    0.8133
   10.710    0.7598
   10.725    0.7705
   10.740    0.8775
   10.755    0.9310
   10.770    0.8561
   10.785    1.0594
   10.800    0.9096
   10.815    0.8989
   10.830    1.0915
   10.845    1.0594
   10.860    1.0059
   10.875    1.1664
   10.890    1.1985
   10.905    1.1450
   10.920    1.3162
   10.935    1.3590
   10.950    1.2520
   10.965    1.4446
   10.980    1.6479
   10.995    1.6586
   11.010    2.0118
   11.025    2.1937
   11.040    2.7929
   11.055    3.1247
   11.070    3.3601
   11.085    4.3767
   11.100    4.9438
   11.115    5.5752
   11.130    4.8047
   11.145    4.5479
   11.160    3.1996
   11.175    2.2044
   11.190    1.5837
   11.205    1.3055
   11.220    1.1022
   11.235    0.9310
   11.250    0.9310
   11.265    0.8133
   11.280    0.7384
   11.295    0.8240
   11.310    0.7277
   11.325    0.8347
   11.340    0.8026
   11.355    0.7384
   11.370    0.8026
   11.385    0.8882
   11.400    0.7919
   11.415    0.6956
   11.430    0.7705
   11.445    0.7384
   11.460    0.7812
   11.475    0.8133
   11.490    0.7705
   11.505    0.7705
   11.520    0.6207
   11.535    0.8454
   11.550    0.6849
   11.565    0.6742
   11.580    0.7063
   11.595    0.6849
   11.610    0.8026
   11.625    0.8026
   11.640    0.7170
   11.655    0.6956
   11.670    0.8133
   11.685    0.7919
   11.700    0.6314
   11.715    0.6207
   11.730    0.7598
   11.745    0.8026
   11.760    0.8454
   11.775    0.8133
   11.790    0.8561
   11.805    0.7812
   11.820    0.7812
   11.835    0.9952
   11.850    0.8775
   11.865    0.8454
   11.880    0.9845
   11.895    1.1129
   11.910    1.1771
   11.925    1.3911
   11.940    1.3269
   11.955    1.5302
   11.970    1.5730
   11.985    2.0867
   12.000    2.0867
   12.015    2.3756
   12.030    2.4612
   12.045    2.0439
   12.060    1.7442
   12.075    1.1664
   12.090    0.9524
   12.105    0.7812
   12.120    0.7277
   12.135    0.7384
   12.150    0.7491
   12.165    0.7812
   12.180    0.7384
   12.195    0.6742
   12.210    0.7170
   12.225    0.6956
   12.240    0.7063
   12.255    0.7705
   12.270    0.6956
   12.285    0.6956
   12.300    0.7170
   12.315    0.7063
   12.330    0.6742
   12.345    0.6742
   12.360    0.6849
   12.375    0.6314
   12.390    0.6207
   12.405    0.7063
   12.420    0.6849
   12.435    0.5778
   12.450    0.6528
   12.465    0.6314
   12.480    0.6956
   12.495    0.6742
   12.510    0.7170
   12.525    0.6528
   12.540    0.6207
   12.555    0.7277
   12.570    0.7063
   12.585    0.6635
   12.600    0.6956
   12.615    0.7598
   12.630    0.7063
   12.645    0.7598
   12.660    0.8882
   12.675    0.8133
   12.690    0.8668
   12.705    1.0380
   12.720    1.0594
   12.735    0.8989
   12.750    1.0594
   12.765    1.1022
   12.780    1.3911
   12.795    1.4232
   12.810    1.5302
   12.825    1.8513
   12.840    1.9155
   12.855    2.1295
   12.870    1.9690
   12.885    1.6693
   12.900    1.3697
   12.915    1.0701
   12.930    0.8454
   12.945    0.7812
   12.960    0.6421
   12.975    0.6742
   12.990    0.7170
   13.005    0.6207
   13.020    0.6849
   13.035    0.6207
   13.050    0.6421
   13.065    0.6849
   13.080    0.7170
   13.095    0.6849
   13.110    0.7277
   13.125    0.7705
   13.140    0.8240
   13.155    0.6314
   13.170    0.6421
   13.185    0.6207
   13.200    0.7277
   13.215    0.6635
   13.230    0.6421
   13.245    0.7491
   13.260    0.6421
   13.275    0.5886
   13.290    0.7812
   13.305    0.7063
   13.320    0.7812
   13.335    0.8026
   13.350    0.7384
   13.365    0.7170
   13.380    0.6849
   13.395    0.7705
   13.410    0.9310
   13.425    0.8026
   13.440    0.9096
   13.455    0.8561
   13.470    0.8240
   13.485    0.8668
   13.500    0.9631
   13.515    1.0808
   13.530    1.0915
   13.545    1.1878
   13.560    1.3911
   13.575    1.4018
   13.590    1.6265
   13.605    2.0439
   13.620    1.8727
   13.635    2.0760
   13.650    2.3649
   13.665    1.8620
   13.680    1.5088
   13.695    1.0701
   13.710    0.9310
   13.725    0.7598
   13.740    0.8240
   13.755    0.8133
   13.770    0.7170
   13.785    0.6314
   13.800    0.6956
   13.815    0.7384
   13.830    0.6635
   13.845    0.6207
   13.860    0.5671
   13.875    0.5993
   13.890    0.7705
   13.905    0.7063
   13.920    0.6528
   13.935    0.6635
   13.950    0.4922
   13.965    0.6100
   13.980    0.6100
   13.995    0.6314
   14.010    0.6421
   14.025    0.6314
   14.040    0.6849
   14.055    0.6849
   14.070    0.5671
   14.085    0.6100
   14.100    0.5993
   14.115    0.6635
   14.130    0.5029
   14.145    0.6314
   14.160    0.6956
   14.175    0.7598
   14.190    0.6421
   14.205    0.7063
   14.220    0.7170
   14.235    0.7598
   14.250    0.6528
   14.265    0.6635
   14.280    0.7812
   14.295    0.8454
   14.310    0.8347
   14.325    1.0273
   14.340    1.1022
   14.355    0.9952
   14.370    1.0808
   14.385    0.9845
   14.400    1.0166
   14.415    0.8561
   14.430    0.7705
   14.445    0.8240
   14.460    0.7277
   14.475    0.5564
   14.490    0.6314
   14.505    0.5993
   14.520    0.6207
   14.535    0.7277
   14.550    0.6635
   14.565    0.5993
   14.580    0.5029
   14.595    0.6421
   14.610    0.5671
   14.625    0.5886
   14.640    0.5457
   14.655    0.7063
   14.670    0.7491
   14.685    0.6314
   14.700    0.5136
   14.715    0.6207
   14.730    0.6207
   14.745    0.6528
   14.760    0.6207
   14.775    0.7384
   14.790    0.6528
   14.805    0.5886
   14.820    0.7170
   14.835    0.7919
   14.850    0.7598
   14.865    0.7491
   14.880    0.7277
   14.895    0.7491
   14.910    0.7384
   14.925    0.7598
   14.940    0.7491
   14.955    0.7812
   14.970    0.8668
   14.985    0.8668
   15.000    0.9524
   15.015    1.2092
   15.030    1.3269
   15.045    1.3697
   15.060    1.7764
   15.075    1.9904
   15.090    1.9262
   15.105    1.7657
   15.120    1.7549
   15.135    1.2520
   15.150    0.8989
   15.165    0.8133
   15.180    0.6742
   15.195    0.6742
   15.210    0.7384
   15.225    0.6100
   15.240    0.5457
   15.255    0.6849
   15.270    0.7277
   15.285    0.6635
   15.300    0.7705
   15.315    0.6528
   15.330    0.6742
   15.345    0.6849
   15.360    0.6849
   15.375    0.6314
   15.390    0.6528
   15.405    0.7277
   15.420    0.6421
   15.435    0.7063
   15.450    0.7170
   15.465    0.6849
   15.480    0.5564
   15.495    0.6100
   15.510    0.6207
   15.525    0.5564
   15.540    0.6314
   15.555    0.5993
   15.570    0.5671
   15.585    0.6635
   15.600    0.7384
   15.615    0.7705
   15.630    0.7812
   15.645    0.7170
   15.660    0.7384
   15.675    1.0059
   15.690    0.7384
   15.705    0.7277
   15.720    0.9952
   15.735    1.1022
   15.750    1.2841
   15.765    1.1985
   15.780    1.0915
   15.795    1.1236
   15.810    0.9524
   15.825    0.8240
   15.840    0.8454
   15.855    0.6635
   15.870    0.5350
   15.885    0.5886
   15.900    0.6742
   15.915    0.6528
   15.930    0.6742
   15.945    0.6849
   15.960    0.6207
   15.975    0.5886
   15.990    0.5350
   16.005    0.6849
   16.020    0.5350
   16.035    0.5350
   16.050    0.5350
   16.065    0.5350
   16.080    0.5778
   16.095    0.6528
   16.110    0.6421
   16.125    0.5778
   16.140    0.5993
   16.155    0.7170
   16.170    0.5243
   16.185    0.6635
   16.200    0.6635
   16.215    0.6956
   16.230    0.7598
   16.245    0.7277
   16.260    0.6528
   16.275    0.7598
   16.290    0.7063
   16.305    0.8668
   16.320    1.0594
   16.335    1.0059
   16.350    1.1878
   16.365    1.2199
   16.380    1.4018
   16.395    1.4553
   16.410    1.5195
   16.425    1.7121
   16.440    1.4767
   16.455    1.1557
   16.470    1.0701
   16.485    0.9631
   16.500    0.7598
   16.515    0.6100
   16.530    0.6956
   16.545    0.6421
   16.560    0.5778
   16.575    0.6956
   16.590    0.6849
   16.605    0.5350
   16.620    0.5564
   16.635    0.6314
   16.650    0.6635
   16.665    0.6635
   16.680    0.5029
   16.695    0.7170
   16.710    0.6100
   16.725    0.6849
   16.740    0.6314
   16.755    0.5993
   16.770    0.6421
   16.785    0.5243
   16.800    0.4387
   16.815    0.5243
   16.830    0.4494
   16.845    0.6742
   16.860    0.6314
   16.875    0.6742
   16.890    0.6207
   16.905    0.5886
   16.920    0.5993
   16.935    0.5886
   16.950    0.6528
   16.965    0.5993
   16.980    0.4922
   16.995    0.6956
   17.010    0.6100
   17.025    0.5993
   17.040    0.6742
   17.055    0.5564
   17.070    0.6207
   17.085    0.5778
   17.100    0.5457
   17.115    0.6207
   17.130    0.6528
   17.145    0.6528
   17.160    0.5243
   17.175    0.5993
   17.190    0.5671
   17.205    0.6100
   17.220    0.5778
   17.235    0.5350
   17.250    0.4280
   17.265    0.6314
   17.280    0.6421
   17.295    0.5457
   17.310    0.5671
   17.325    0.5136
   17.340    0.5564
   17.355    0.7063
   17.370    0.6742
   17.385    0.6207
   17.400    0.6100
   17.415    0.7491
   17.430    0.5564
   17.445    0.5457
   17.460    0.5778
   17.475    0.6528
   17.490    0.7277
   17.505    0.6742
   17.520    0.6742
   17.535    0.6956
   17.550    0.7919
   17.565    0.8668
   17.580    0.7812
   17.595    0.7705
   17.610    0.8561
   17.625    0.8775
   17.640    0.9738
   17.655    0.9738
   17.670    0.8347
   17.685    0.7919
   17.700    0.6849
   17.715    0.6849
   17.730    0.6849
   17.745    0.7812
   17.760    0.6849
   17.775    0.5564
   17.790    0.5671
   17.805    0.5564
   17.820    0.4815
   17.835    0.5778
   17.850    0.5993
   17.865    0.6421
   17.880    0.7063
   17.895    0.6314
   17.910    0.6849
   17.925    0.6635
   17.940    0.5243
   17.955    0.5350
   17.970    0.7384
   17.985    0.5457
   18.000    0.5243
   18.015    0.6528
   18.030    0.6100
   18.045    0.5564
   18.060    0.5350
   18.075    0.5029
   18.090    0.5029
   18.105    0.6742
   18.120    0.6207
   18.135    0.5993
   18.150    0.6207
   18.165    0.6635
   18.180    0.6635
   18.195    0.5243
   18.210    0.6421
   18.225    0.5886
   18.240    0.7598
   18.255    0.6314
   18.270    0.6207
   18.285    0.6100
   18.300    0.6314
   18.315    0.7277
   18.330    0.6314
   18.345    0.4708
   18.360    0.5671
   18.375    0.5993
   18.390    0.6314
   18.405    0.5778
   18.420    0.6314
   18.435    0.6207
   18.450    0.6100
   18.465    0.6314
   18.480    0.6742
   18.495    0.5457
   18.510    0.6635
   18.525    0.6207
   18.540    0.4387
   18.555    0.6100
   18.570    0.6635
   18.585    0.7277
   18.600    0.6742
   18.615    0.4601
   18.630    0.7491
   18.645    0.7812
   18.660    0.7384
   18.675    0.5671
   18.690    0.6849
   18.705    0.6742
   18.720    0.7598
   18.735    0.7919
   18.750    0.8775
   18.765    0.9417
   18.780    0.8454
   18.795    0.9524
   18.810    0.8347
   18.825    0.7384
   18.840    0.7277
   18.855    0.6956
   18.870    0.7063
   18.885    0.6742
   18.900    0.5671
   18.915    0.5671
   18.930    0.5778
   18.945    0.6100
   18.960    0.6314
   18.975    0.6100
   18.990    0.5886
   19.005    0.5564
   19.020    0.6207
   19.035    0.5136
   19.050    0.6314
   19.065    0.6314
   19.080    0.6421
   19.095    0.6849
   19.110    0.5993
   19.125    0.6207
   19.140    0.6742
   19.155    0.7063
   19.170    0.5457
   19.185    0.5350
   19.200    0.5029
   19.215    0.5029
   19.230    0.7063
   19.245    0.7277
   19.260    0.7063
   19.275    0.7598
   19.290    0.7384
   19.305    0.7919
   19.320    0.9096
   19.335    0.9631
   19.350    0.9417
   19.365    0.9096
   19.380    1.0166
   19.395    0.8668
   19.410    0.7384
   19.425    0.5886
   19.440    0.6528
   19.455    0.6314
   19.470    0.7170
   19.485    0.5564
   19.500    0.6100
   19.515    0.6314
   19.530    0.4387
   19.545    0.6635
   19.560    0.5778
   19.575    0.6956
   19.590    0.5886
   19.605    0.8133
   19.620    0.6421
   19.635    0.6314
   19.650    0.4601
   19.665    0.4922
   19.680    0.6956
   19.695    0.6956
   19.710    0.6421
   19.725    0.6635
   19.740    0.7812
   19.755    0.7812
   19.770    0.8240
   19.785    0.7705
   19.800    0.9310
   19.815    1.1129
   19.830    1.1664
   19.845    1.1771
   19.860    1.3804
   19.875    1.5088
   19.890    1.5409
   19.905    1.3911
   19.920    1.3483
   19.935    0.9952
   19.950    0.9096
   19.965    0.7491
   19.980    0.5993
   19.995    0.6956
   20.010    0.7170
   20.025    0.6528
   20.040    0.5671
   20.055    0.4922
   20.070    0.5778
   20.085    0.7277
   20.100    0.7063
   20.115    0.5886
   20.130    0.6528
   20.145    0.5136
   20.160    0.5886
   20.175    0.5350
   20.190    0.4815
   20.205    0.5886
   20.220    0.5457
   20.235    0.5671
   20.250    0.5993
   20.265    0.6314
   20.280    0.7277
   20.295    0.7277
   20.310    0.6849
   20.325    0.7277
   20.340    0.8133
   20.355    0.7919
   20.370    0.7919
   20.385    0.8668
   20.400    0.7705
   20.415    0.7384
   20.430    0.8882
   20.445    0.7491
   20.460    0.6207
   20.475    0.7705
   20.490    0.7063
   20.505    0.5243
   20.520    0.5778
   20.535    0.6314
   20.550    0.5778
   20.565    0.5993
   20.580    0.5671
   20.595    0.5993
   20.610    0.7063
   20.625    0.7598
   20.640    0.5886
   20.655    0.6100
   20.670    0.5671
   20.685    0.5136
   20.700    0.5778
   20.715    0.5029
   20.730    0.6207
   20.745    0.7063
   20.760    0.6635
   20.775    0.7277
   20.790    0.7705
   20.805    0.6100
   20.820    0.7277
   20.835    0.5350
   20.850    0.6207
   20.865    0.7491
   20.880    0.8668
   20.895    0.8026
   20.910    0.8668
   20.925    0.8347
   20.940    0.7063
   20.955    0.7705
   20.970    0.6635
   20.985    0.5243
   21.000    0.5029
   21.015    0.5778
   21.030    0.5886
   21.045    0.5886
   21.060    0.6742
   21.075    0.7384
   21.090    0.7919
   21.105    0.7491
   21.120    0.7598
   21.135    0.6100
   21.150    0.8026
   21.165    0.7812
   21.180    0.6100
   21.195    0.6421
   21.210    0.6528
   21.225    0.5243
   21.240    0.6528
   21.255    0.6314
   21.270    0.6956
   21.285    0.6742
   21.300    0.6956
   21.315    0.6528
   21.330    0.7491
   21.345    0.7063
   21.360    0.6742
   21.375    0.9417
   21.390    0.9524
   21.405    0.8454
   21.420    0.9310
   21.435    0.8882
   21.450    0.8989
   21.465    0.8240
   21.480    0.5564
   21.495    0.6956
   21.510    0.7491
   21.525    0.6314
   21.540    0.5778
   21.555    0.5778
   21.570    0.6314
   21.585    0.6742
   21.600    0.6207
   21.615    0.6421
   21.630    0.6207
   21.645    0.5243
   21.660    0.6314
   21.675    0.5671
   21.690    0.5564
   21.705    0.5029
   21.720    0.5886
   21.735    0.7598
   21.750    0.7491
   21.765    0.5564
   21.780    0.5886
   21.795    0.6635
   21.810    0.6421
   21.825    0.6956
   21.840    0.6100
   21.855    0.7919
   21.870    0.7063
   21.885    0.7063
   21.900    0.8133
   21.915    0.7491
   21.930    0.6207
   21.945    0.8347
   21.960    0.8026
   21.975    0.6421
   21.990    0.6528
   22.005    0.6207
   22.020    0.7384
   22.035    0.6528
   22.050    0.7384
   22.065    0.6207
   22.080    0.5136
   22.095    0.6956
   22.110    0.6528
   22.125    0.5993
   22.140    0.6528
   22.155    0.5993
   22.170    0.6528
   22.185    0.6849
   22.200    0.6742
   22.215    0.6849
   22.230    0.5350
   22.245    0.5243
   22.260    0.5457
   22.275    0.6314
   22.290    0.7063
   22.305    0.6742
   22.320    0.5564
   22.335    0.7705
   22.350    0.6207
   22.365    0.6314
   22.380    0.5671
   22.395    0.5350
   22.410    0.6100
   22.425    0.7170
   22.440    0.6849
   22.455    0.5993
   22.470    0.6207
   22.485    0.7384
   22.500    0.6207
   22.515    0.6207
   22.530    0.6849
   22.545    0.6849
   22.560    0.8026
   22.575    0.6100
   22.590    0.5886
   22.605    0.6421
   22.620    0.5350
   22.635    0.7170
   22.650    0.6421
   22.665    0.6207
   22.680    0.7384
   22.695    0.6100
   22.710    0.6528
   22.725    0.7598
   22.740    0.6849
   22.755    0.6849
   22.770    0.8026
   22.785    0.8561
   22.800    1.0059
   22.815    0.9845
   22.830    0.9310
   22.845    0.9738
   22.860    1.0701
   22.875    1.0059
   22.890    0.9738
   22.905    0.9310
   22.920    0.8989
   22.935    0.7063
   22.950    0.5778
   22.965    0.6528
   22.980    0.6100
   22.995    0.6742
   23.010    0.5350
   23.025    0.5243
   23.040    0.6528
   23.055    0.5886
   23.070    0.7063
   23.085    0.4815
   23.100    0.6314
   23.115    0.7170
   23.130    0.6635
   23.145    0.6528
   23.160    0.5886
   23.175    0.6528
   23.190    0.6421
   23.205    0.5886
   23.220    0.6528
   23.235    0.5457
   23.250    0.7170
   23.265    0.5993
   23.280    0.5564
   23.295    0.5778
   23.310    0.7170
   23.325    0.7812
   23.340    0.6635
   23.355    0.6849
   23.370    0.5993
   23.385    0.6100
   23.400    0.7491
   23.415    0.7598
   23.430    0.6956
   23.445    0.6956
   23.460    0.6528
   23.475    0.5243
   23.490    0.6100
   23.505    0.7277
   23.520    0.6528
   23.535    0.6956
   23.550    0.5886
   23.565    0.7277
   23.580    0.6207
   23.595    0.6635
   23.610    0.6849
   23.625    0.8026
   23.640    0.8240
   23.655    0.8240
   23.670    1.0273
   23.685    1.0166
   23.700    1.0380
   23.715    1.2520
   23.730    1.3269
   23.745    1.1985
   23.760    1.4767
   23.775    1.4553
   23.790    1.3483
   23.805    1.1557
   23.820    1.1557
   23.835    1.0701
   23.850    0.8561
   23.865    0.7170
   23.880    0.6956
   23.895    0.6421
   23.910    0.6849
   23.925    0.6421
   23.940    0.5993
   23.955    0.4494
   23.970    0.6314
   23.985    0.5778
   24.000    0.5350
   24.015    0.5564
   24.030    0.5457
   24.045    0.6528
   24.060    0.5457
   24.075    0.7384
   24.090    0.6528
   24.105    0.4815
   24.120    0.6100
   24.135    0.6100
   24.150    0.7384
   24.165    0.7277
   24.180    0.6742
   24.195    0.7598
   24.210    0.8026
   24.225    0.6528
   24.240    0.5993
   24.255    0.6207
   24.270    0.6742
   24.285    0.6314
   24.300    0.7598
   24.315    0.6956
   24.330    0.7277
   24.345    0.5778
   24.360    0.5243
   24.375    0.5457
   24.390    0.7063
   24.405    0.5886
   24.420    0.6742
   24.435    0.5886
   24.450    0.7063
   24.465    0.6635
   24.480    0.5886
   24.495    0.6635
   24.510    0.5457
   24.525    0.6314
   24.540    0.6956
   24.555    0.7491
   24.570    0.6849
   24.585    0.6742
   24.600    0.5993
   24.615    0.5243
   24.630    0.5993
   24.645    0.6100
   24.660    0.6635
   24.675    0.7170
   24.690    0.7919
   24.705    0.5564
   24.720    0.4601
   24.735    0.4066
   24.750    0.5350
   24.765    0.7170
   24.780    0.7384
   24.795    0.6849
   24.810    0.5564
   24.825    0.5243
   24.840    0.6207
   24.855    0.5243
   24.870    0.7277
   24.885    0.5564
   24.900    0.6742
   24.915    0.5886
   24.930    0.6100
   24.945    0.6528
   24.960    0.7277
   24.975    0.6956
   24.990    0.6956
   25.005    0.5886
   25.020    0.6100
   25.035    0.6528
   25.050    0.6635
   25.065    0.6207
   25.080    0.6207
   25.095    0.6207
   25.110    0.6528
   25.125    0.5671
   25.140    0.7170
   25.155    0.6849
   25.170    0.6421
   25.185    0.7063
   25.200    0.6956
   25.215    0.7170
   25.230    0.6849
   25.245    0.6207
   25.260    0.6742
   25.275    0.6207
   25.290    0.6956
   25.305    0.7170
   25.320    0.7063
   25.335    0.7063
   25.350    0.7384
   25.365    0.7063
   25.380    0.7812
   25.395    0.8026
   25.410    0.7812
   25.425    0.8240
   25.440    0.9845
   25.455    0.9952
   25.470    0.9524
   25.485    0.9952
   25.500    0.8454
   25.515    0.8454
   25.530    0.8347
   25.545    0.8347
   25.560    0.9096
   25.575    0.7384
   25.590    0.6421
   25.605    0.6956
   25.620    0.6207
   25.635    0.6528
   25.650    0.6421
   25.665    0.6421
   25.680    0.5671
   25.695    0.6100
   25.710    0.6528
   25.725    0.7598
   25.740    0.6207
   25.755    0.6528
   25.770    0.7170
   25.785    0.6207
   25.800    0.6742
   25.815    0.6742
   25.830    0.5778
   25.845    0.7919
   25.860    0.7170
   25.875    0.7491
   25.890    0.7919
   25.905    0.7598
   25.920    0.9096
   25.935    0.7598
   25.950    0.7170
   25.965    0.7277
   25.980    0.6956
   25.995    0.6849
   26.010    0.6635
   26.025    0.6635
   26.040    0.6314
   26.055    0.7491
   26.070    0.7598
   26.085    0.5778
   26.100    0.6956
   26.115    0.7384
   26.130    0.7277
   26.145    0.7919
   26.160    0.7170
   26.175    0.9631
   26.190    0.9310
   26.205    0.8454
   26.220    0.8882
   26.235    1.0166
   26.250    1.1022
   26.265    1.2199
   26.280    1.1450
   26.295    1.3269
   26.310    1.2627
   26.325    1.1878
   26.340    1.4660
   26.355    1.2627
   26.370    0.9845
   26.385    1.1343
   26.400    0.9203
   26.415    0.6849
   26.430    0.6635
   26.445    0.5350
   26.460    0.7491
   26.475    0.7384
   26.490    0.7491
   26.505    0.6100
   26.520    0.6742
   26.535    0.6849
   26.550    0.6635
   26.565    0.7812
   26.580    0.6528
   26.595    0.7491
   26.610    0.7384
   26.625    0.8454
   26.640    1.0915
   26.655    0.9845
   26.670    1.1878
   26.685    1.1771
   26.700    1.5088
   26.715    1.4339
   26.730    1.4339
   26.745    1.3697
   26.760    1.1771
   26.775    1.1557
   26.790    1.1343
   26.805    0.9952
   26.820    0.8882
   26.835    0.7812
   26.850    0.5993
   26.865    0.6100
   26.880    0.7277
   26.895    0.6956
   26.910    0.7170
   26.925    0.6207
   26.940    0.5993
   26.955    0.5886
   26.970    0.5886
   26.985    0.6100
   27.000    0.7277
   27.015    0.6314
   27.030    0.6207
   27.045    0.7919
   27.060    0.7598
   27.075    0.8775
   27.090    0.8454
   27.105    0.7812
   27.120    0.9738
   27.135    0.9417
   27.150    0.8561
   27.165    0.7812
   27.180    0.8347
   27.195    0.6635
   27.210    0.7277
   27.225    0.6956
   27.240    0.6207
   27.255    0.5993
   27.270    0.5886
   27.285    0.5993
   27.300    0.6849
   27.315    0.7063
   27.330    0.7277
   27.345    0.6100
   27.360    0.6421
   27.375    0.7598
   27.390    0.5993
   27.405    0.6635
   27.420    0.5671
   27.435    0.5457
   27.450    0.5671
   27.465    0.5457
   27.480    0.6100
   27.495    0.6635
   27.510    0.7063
   27.525    0.6314
   27.540    0.5243
   27.555    0.6528
   27.570    0.6956
   27.585    0.7063
   27.600    0.7384
   27.615    0.6956
   27.630    0.5886
   27.645    0.5886
   27.660    0.6742
   27.675    0.6314
   27.690    0.5564
   27.705    0.5671
   27.720    0.6849
   27.735    0.6635
   27.750    0.7812
   27.765    0.6528
   27.780    0.6528
   27.795    0.7170
   27.810    0.7598
   27.825    0.7277
   27.840    0.7705
   27.855    0.7491
   27.870    0.7705
   27.885    0.9310
   27.900    0.7170
   27.915    0.7919
   27.930    0.7491
   27.945    0.7919
   27.960    0.7705
   27.975    0.7384
   27.990    0.5564
   28.005    0.6635
   28.020    0.6421
   28.035    0.6635
   28.050    0.7277
   28.065    0.5243
   28.080    0.5993
   28.095    0.6207
   28.110    0.6849
   28.125    0.6100
   28.140    0.5993
   28.155    0.6100
   28.170    0.5564
   28.185    0.5778
   28.200    0.6100
   28.215    0.6635
   28.230    0.6314
   28.245    0.5136
   28.260    0.5886
   28.275    0.7384
   28.290    0.5886
   28.305    0.5564
   28.320    0.6742
   28.335    0.7063
   28.350    0.6956
   28.365    0.5671
   28.380    0.6314
   28.395    0.6421
   28.410    0.4601
   28.425    0.5564
   28.440    0.5350
   28.455    0.6635
   28.470    0.6100
   28.485    0.6314
   28.500    0.5350
   28.515    0.5350
   28.530    0.7170
   28.545    0.6421
   28.560    0.6207
   28.575    0.5993
   28.590    0.6207
   28.605    0.6742
   28.620    0.6849
   28.635    0.8668
   28.650    0.6528
   28.665    0.7277
   28.680    0.6421
   28.695    0.5671
   28.710    0.6314
   28.725    0.6742
   28.740    0.6314
   28.755    0.6635
   28.770    0.6635
   28.785    0.4708
   28.800    0.5136
   28.815    0.6314
   28.830    0.6635
   28.845    0.6314
   28.860    0.7384
   28.875    0.6314
   28.890    0.5457
   28.905    0.5886
   28.920    0.6314
   28.935    0.7491
   28.950    0.5778
   28.965    0.5136
   28.980    0.6314
   28.995    0.5993
   29.010    0.6635
   29.025    0.6421
   29.040    0.7170
   29.055    0.6314
   29.070    0.5564
   29.085    0.6421
   29.100    0.6742
   29.115    0.6956
   29.130    0.5564
   29.145    0.5778
   29.160    0.5457
   29.175    0.4922
   29.190    0.6635
   29.205    0.5350
   29.220    0.6635
   29.235    0.6849
   29.250    0.5886
   29.265    0.5136
   29.280    0.6849
   29.295    0.6207
   29.310    0.6314
   29.325    0.6635
   29.340    0.5886
   29.355    0.6528
   29.370    0.7705
   29.385    0.6956
   29.400    0.6635
   29.415    0.7919
   29.430    0.7812
   29.445    0.7170
   29.460    0.5993
   29.475    0.6849
   29.490    0.6314
   29.505    0.5886
   29.520    0.6314
   29.535    0.6314
   29.550    0.5778
   29.565    0.6635
   29.580    0.6100
   29.595    0.5457
   29.610    0.5671
   29.625    0.6314
   29.640    0.5671
   29.655    0.5993
   29.670    0.6314
   29.685    0.7277
   29.700    0.7705
   29.715    0.7919
   29.730    0.7598
   29.745    0.7170
   29.760    0.5350
   29.775    0.5886
   29.790    0.5778
   29.805    0.6849
   29.820    0.6314
   29.835    0.5993
   29.850    0.6742
   29.865    0.6207
   29.880    0.6207
   29.895    0.6314
   29.910    0.5778
   29.925    0.5564
   29.940    0.6635
   29.955    0.6207
   29.970    0.5993
   29.985    0.6956
   30.000    0.7491
   30.015    0.6207
   30.030    0.7170
   30.045    0.7384
   30.060    0.7063
   30.075    0.8775
   30.090    1.2199
   30.105    1.1878
   30.120    1.1022
   30.135    1.2092
   30.150    1.1022
   30.165    1.0701
   30.180    1.0380
   30.195    0.9310
   30.210    0.8668
   30.225    0.6528
   30.240    0.6635
   30.255    0.6207
   30.270    0.6742
   30.285    0.6421
   30.300    0.6314
   30.315    0.5993
   30.330    0.5671
   30.345    0.5136
   30.360    0.6421
   30.375    0.6207
   30.390    0.5564
   30.405    0.6314
   30.420    0.7063
   30.435    0.7384
   30.450    0.7277
   30.465    0.5778
   30.480    0.6742
   30.495    0.6742
   30.510    0.5350
   30.525    0.6100
   30.540    0.7170
   30.555    0.6207
   30.570    0.5778
   30.585    0.5029
   30.600    0.5886
   30.615    0.5457
   30.630    0.6100
   30.645    0.6421
   30.660    0.5457
   30.675    0.5564
   30.690    0.6528
   30.705    0.6100
   30.720    0.6421
   30.735    0.6528
   30.750    0.5993
   30.765    0.6528
   30.780    0.6956
   30.795    0.6100
   30.810    0.6956
   30.825    0.5886
   30.840    0.7598
   30.855    0.7277
   30.870    0.6635
   30.885    0.6207
   30.900    0.6314
   30.915    0.6314
   30.930    0.5886
   30.945    0.6421
   30.960    0.5457
   30.975    0.5350
   30.990    0.5671
   31.005    0.5778
   31.020    0.5564
   31.035    0.5350
   31.050    0.5886
   31.065    0.6635
   31.080    0.5564
   31.095    0.6100
   31.110    0.6100
   31.125    0.5671
   31.140    0.5136
   31.155    0.5029
   31.170    0.5993
   31.185    0.5029
   31.200    0.6635
   31.215    0.4922
   31.230    0.4708
   31.245    0.5886
   31.260    0.5243
   31.275    0.4922
   31.290    0.5886
   31.305    0.6421
   31.320    0.6100
   31.335    0.6207
   31.350    0.4815
   31.365    0.6207
   31.380    0.6528
   31.395    0.6207
   31.410    0.5136
   31.425    0.6314
   31.440    0.6314
   31.455    0.6314
   31.470    0.7170
   31.485    0.6528
   31.500    0.7491
   31.515    0.6956
   31.530    0.7491
   31.545    0.7812
   31.560    0.7812
   31.575    0.7919
   31.590    0.8347
   31.605    0.7170
   31.620    0.6207
   31.635    0.5886
   31.650    0.6100
   31.665    0.6421
   31.680    0.4922
   31.695    0.4601
   31.710    0.6742
   31.725    0.5993
   31.740    0.6742
   31.755    0.6421
   31.770    0.4066
   31.785    0.5457
   31.800    0.5029
   31.815    0.5886
   31.830    0.5136
   31.845    0.5886
   31.860    0.4922
   31.875    0.6100
   31.890    0.4708
   31.905    0.6635
   31.920    0.5671
   31.935    0.5136
   31.950    0.4708
   31.965    0.5671
   31.980    0.6635
   31.995    0.7277
   32.010    0.5457
   32.025    0.5778
   32.040    0.5564
   32.055    0.5243
   32.070    0.5350
   32.085    0.5243
   32.100    0.6421
   32.115    0.7384
   32.130    0.5029
   32.145    0.5243
   32.160    0.5671
   32.175    0.6421
   32.190    0.6849
   32.205    0.6207
   32.220    0.7170
   32.235    0.7063
   32.250    0.6528
   32.265    0.7598
   32.280    0.6742
   32.295    0.6100
   32.310    0.6635
   32.325    0.5029
   32.340    0.4173
   32.355    0.4708
   32.370    0.4708
   32.385    0.5457
   32.400    0.5457
   32.415    0.5886
   32.430    0.5350
   32.445    0.4494
   32.460    0.4815
   32.475    0.6100
   32.490    0.4815
   32.505    0.5886
   32.520    0.5993
   32.535    0.6207
   32.550    0.5993
   32.565    0.5671
   32.580    0.6421
   32.595    0.5886
   32.610    0.6528
   32.625    0.6849
   32.640    0.5564
   32.655    0.5993
   32.670    0.5993
   32.685    0.5350
   32.700    0.5350
   32.715    0.5457
   32.730    0.4708
   32.745    0.4708
   32.760    0.5457
   32.775    0.6635
   32.790    0.6421
   32.805    0.7491
   32.820    0.6207
   32.835    0.6635
   32.850    0.7384
   32.865    0.7491
   32.880    0.8347
   32.895    0.6528
   32.910    0.8240
   32.925    0.8775
   32.940    0.7277
   32.955    0.7063
   32.970    0.6849
   32.985    0.5778
   33.000    0.5457
   33.015    0.5671
   33.030    0.5993
   33.045    0.7598
   33.060    0.7598
   33.075    0.4601
   33.090    0.5029
   33.105    0.4815
   33.120    0.5671
   33.135    0.5778
   33.150    0.7170
   33.165    0.6956
   33.180    0.7277
   33.195    0.7277
   33.210    0.7063
   33.225    0.7705
   33.240    0.7277
   33.255    0.7491
   33.270    0.7491
   33.285    0.5778
   33.300    0.7063
   33.315    0.6635
   33.330    0.6849
   33.345    0.5671
   33.360    0.4387
   33.375    0.5243
   33.390    0.5136
   33.405    0.5993
   33.420    0.4387
   33.435    0.4708
   33.450    0.6314
   33.465    0.5993
   33.480    0.5243
   33.495    0.4708
   33.510    0.5778
   33.525    0.5243
   33.540    0.5350
   33.555    0.5350
   33.570    0.6100
   33.585    0.6207
   33.600    0.6100
   33.615    0.5136
   33.630    0.3745
   33.645    0.4173
   33.660    0.5886
   33.675    0.6635
   33.690    0.5350
   33.705    0.5778
   33.720    0.4601
   33.735    0.5029
   33.750    0.5671
   33.765    0.3959
   33.780    0.4280
   33.795    0.4601
   33.810    0.5886
   33.825    0.5886
   33.840    0.4280
   33.855    0.5671
   33.870    0.5350
   33.885    0.4815
   33.900    0.4494
   33.915    0.4815
   33.930    0.5136
   33.945    0.5564
   33.960    0.5671
   33.975    0.6207
   33.990    0.5564
   34.005    0.5350
   34.020    0.5136
   34.035    0.4173
   34.050    0.4173
   34.065    0.5457
   34.080    0.5029
   34.095    0.4815
   34.110    0.6207
   34.125    0.5778
   34.140    0.6956
   34.155    0.5457
   34.170    0.6314
   34.185    0.5457
   34.200    0.7277
   34.215    0.5993
   34.230    0.5671
   34.245    0.6207
   34.260    0.6421
   34.275    0.4708
   34.290    0.6207
   34.305    0.4815
   34.320    0.4387
   34.335    0.4601
   34.350    0.4922
   34.365    0.5993
   34.380    0.4815
   34.395    0.5243
   34.410    0.6207
   34.425    0.4173
   34.440    0.4387
   34.455    0.5457
   34.470    0.5993
   34.485    0.4815
   34.500    0.5564
   34.515    0.4815
   34.530    0.4066
   34.545    0.3959
   34.560    0.3745
   34.575    0.4601
   34.590    0.5778
   34.605    0.4387
   34.620    0.4494
   34.635    0.5350
   34.650    0.5564
   34.665    0.5350
   34.680    0.4280
   34.695    0.5886
   34.710    0.5457
   34.725    0.5778
   34.740    0.5886
   34.755    0.5243
   34.770    0.5457
   34.785    0.6635
   34.800    0.5778
   34.815    0.6528
   34.830    0.5886
   34.845    0.5671
   34.860    0.5671
   34.875    0.5671
   34.890    0.4922
   34.905    0.5029
   34.920    0.5243
   34.935    0.5671
   34.950    0.6100
   34.965    0.5993
   34.980    0.4708
   34.995    0.4922
   35.010    0.6100
   35.025    0.5350
   35.040    0.4922
   35.055    0.5029
   35.070    0.5029
   35.085    0.4387
   35.100    0.4173
   35.115    0.4601
   35.130    0.5778
   35.145    0.6207
   35.160    0.4922
   35.175    0.4922
   35.190    0.5029
   35.205    0.4387
   35.220    0.4601
   35.235    0.5671
   35.250    0.5350
   35.265    0.5886
   35.280    0.5029
   35.295    0.4173
   35.310    0.4494
   35.325    0.4173
   35.340    0.4708
   35.355    0.5136
   35.370    0.5243
   35.385    0.5671
   35.400    0.5886
   35.415    0.5993
   35.430    0.4708
   35.445    0.5564
   35.460    0.5564
   35.475    0.5671
   35.490    0.5778
   35.505    0.5457
   35.520    0.4601
   35.535    0.3852
   35.550    0.4387
   35.565    0.5671
   35.580    0.5564
   35.595    0.5136
   35.610    0.5136
   35.625    0.4601
   35.640    0.5243
   35.655    0.5350
   35.670    0.5350
   35.685    0.5029
   35.700    0.4601
   35.715    0.4922
   35.730    0.5886
   35.745    0.4708
   35.760    0.4494
   35.775    0.6314
   35.790    0.4922
   35.805    0.6207
   35.820    0.4280
   35.835    0.5457
   35.850    0.6528
   35.865    0.5029
   35.880    0.4387
   35.895    0.4601
   35.910    0.4815
   35.925    0.4494
   35.940    0.4494
   35.955    0.5778
   35.970    0.5886
   35.985    0.5671
   36.000    0.5136
   36.015    0.3745
   36.030    0.4815
   36.045    0.4815
   36.060    0.5029
   36.075    0.5029
   36.090    0.5993
   36.105    0.4494
   36.120    0.5243
   36.135    0.5029
   36.150    0.4922
   36.165    0.5029
   36.180    0.5136
   36.195    0.4601
   36.210    0.5136
   36.225    0.5350
   36.240    0.5029
   36.255    0.6314
   36.270    0.4708
   36.285    0.5671
   36.300    0.5136
   36.315    0.5029
   36.330    0.4708
   36.345    0.5243
   36.360    0.3745
   36.375    0.4387
   36.390    0.4815
   36.405    0.4494
   36.420    0.3745
   36.435    0.4173
   36.450    0.4173
   36.465    0.4708
   36.480    0.4815
   36.495    0.5243
   36.510    0.4280
   36.525    0.4815
   36.540    0.5564
   36.555    0.3317
   36.570    0.3852
   36.585    0.5671
   36.600    0.4708
   36.615    0.4708
   36.630    0.4387
   36.645    0.5671
   36.660    0.5671
   36.675    0.5993
   36.690    0.6207
   36.705    0.5457
   36.720    0.4708
   36.735    0.5886
   36.750    0.4601
   36.765    0.4815
   36.780    0.4066
   36.795    0.5243
   36.810    0.4173
   36.825    0.5029
   36.840    0.3852
   36.855    0.4066
   36.870    0.3959
   36.885    0.4173
   36.900    0.3210
   36.915    0.3531
   36.930    0.3531
   36.945    0.3638
   36.960    0.3852
   36.975    0.4387
   36.990    0.5671
   37.005    0.5778
   37.020    0.4708
   37.035    0.4173
   37.050    0.5243
   37.065    0.5457
   37.080    0.4815
   37.095    0.4066
   37.110    0.4601
   37.125    0.4815
   37.140    0.4173
   37.155    0.4173
   37.170    0.3638
   37.185    0.5136
   37.200    0.4708
   37.215    0.4280
   37.230    0.4173
   37.245    0.4601
   37.260    0.5564
   37.275    0.4922
   37.290    0.3852
   37.305    0.5243
   37.320    0.3745
   37.335    0.4494
   37.350    0.5243
   37.365    0.4173
   37.380    0.3103
   37.395    0.4387
   37.410    0.3959
   37.425    0.4708
   37.440    0.4494
   37.455    0.4387
   37.470    0.3531
   37.485    0.4066
   37.500    0.3638
   37.515    0.5457
   37.530    0.4494
   37.545    0.4601
   37.560    0.3210
   37.575    0.4387
   37.590    0.4066
   37.605    0.4601
   37.620    0.4708
   37.635    0.4708
   37.650    0.4387
   37.665    0.4601
   37.680    0.4815
   37.695    0.4173
   37.710    0.4815
   37.725    0.4494
   37.740    0.3959
   37.755    0.3317
   37.770    0.4601
   37.785    0.4280
   37.800    0.3638
   37.815    0.4601
   37.830    0.3745
   37.845    0.2996
   37.860    0.3317
   37.875    0.4173
   37.890    0.4601
   37.905    0.3745
   37.920    0.4387
   37.935    0.4387
   37.950    0.4173
   37.965    0.4708
   37.980    0.4280
   37.995    0.3638
   38.010    0.3959
   38.025    0.3959
   38.040    0.3424
   38.055    0.3317
   38.070    0.4387
   38.085    0.5136
   38.100    0.4173
   38.115    0.3745
   38.130    0.4601
   38.145    0.4066
   38.160    0.3103
   38.175    0.2782
   38.190    0.4173
   38.205    0.4601
   38.220    0.4173
   38.235    0.4280
   38.250    0.3317
   38.265    0.4601
   38.280    0.3424
   38.295    0.3531
   38.310    0.3317
   38.325    0.3531
   38.340    0.3531
   38.355    0.2568
   38.370    0.3210
   38.385    0.3852
   38.400    0.4708
   38.415    0.4922
   38.430    0.5457
   38.445    0.4922
   38.460    0.4173
   38.475    0.5350
   38.490    0.5029
   38.505    0.4280
   38.520    0.4387
   38.535    0.3852
   38.550    0.4494
   38.565    0.5136
   38.580    0.4280
   38.595    0.3531
   38.610    0.2996
   38.625    0.3852
   38.640    0.4387
   38.655    0.3959
   38.670    0.3959
   38.685    0.3638
   38.700    0.3210
   38.715    0.4708
   38.730    0.4173
   38.745    0.3210
   38.760    0.4066
   38.775    0.3210
   38.790    0.3638
   38.805    0.4280
   38.820    0.3745
   38.835    0.3745
   38.850    0.4066
   38.865    0.3424
   38.880    0.3959
   38.895    0.3103
   38.910    0.3210
   38.925    0.3745
   38.940    0.3317
   38.955    0.3210
   38.970    0.3852
   38.985    0.4066
   39.000    0.4173
   39.015    0.4708
   39.030    0.3745
   39.045    0.3210
   39.060    0.3210
   39.075    0.3531
   39.090    0.3103
   39.105    0.4066
   39.120    0.4173
   39.135    0.3959
   39.150    0.3103
   39.165    0.3745
   39.180    0.4280
   39.195    0.4173
   39.210    0.4494
   39.225    0.3424
   39.240    0.3103
   39.255    0.3424
   39.270    0.3852
   39.285    0.3638
   39.300    0.4387
   39.315    0.5350
   39.330    0.4066
   39.345    0.4387
   39.360    0.4815
   39.375    0.3852
   39.390    0.2996
   39.405    0.4066
   39.420    0.3959
   39.435    0.3959
   39.450    0.4173
   39.465    0.3210
   39.480    0.4708
   39.495    0.4280
   39.510    0.4601
   39.525    0.4601
   39.540    0.4494
   39.555    0.4387
   39.570    0.4066
   39.585    0.3531
   39.600    0.5029
   39.615    0.4173
   39.630    0.4708
   39.645    0.4173
   39.660    0.4173
   39.675    0.4494
   39.690    0.4280
   39.705    0.4173
   39.720    0.3852
   39.735    0.3852
   39.750    0.3424
   39.765    0.3103
   39.780    0.4387
   39.795    0.3852
   39.810    0.3317
   39.825    0.3424
   39.840    0.3424
   39.855    0.3317
   39.870    0.3638
   39.885    0.3959
   39.900    0.4387
   39.915    0.3638
   39.930    0.4173
   39.945    0.3745
   39.960    0.4066
   39.975    0.3638
   39.990    0.3531
