    1.500   13.4702
    1.515   13.6704
    1.530   13.2596
    1.545   12.5540
    1.560   12.6698
    1.575   11.9747
    1.590   12.2801
    1.605   12.4381
    1.620   12.3539
    1.635   12.0906
    1.650   12.2275
    1.665   11.6377
    1.680   11.1427
    1.695   11.0163
    1.710   11.3007
    1.725   10.8057
    1.740   11.1743
    1.755   10.7952
    1.770   10.4265
    1.785   10.5424
    1.800   10.0685
    1.815    9.8052
    1.830    9.7946
    1.845    9.6998
    1.860    9.7104
    1.875   10.0263
    1.890    9.8262
    1.905    9.7525
    1.920    9.4576
    1.935    9.8789
    1.950    9.4050
    1.965    9.3944
    1.980    9.5840
    1.995    9.0890
    2.010    8.4255
    2.025    8.6572
    2.040    8.8573
    2.055    8.5624
    2.070    8.3307
    2.085    8.2886
    2.100    8.4466
    2.115    8.8573
    2.130    8.6677
    2.145    8.5940
    2.160    8.5413
    2.175    7.8357
    2.190    8.2254
    2.205    8.0990
    2.220    8.0885
    2.235    7.8146
    2.250    8.1727
    2.265    8.5413
    2.280    8.1306
    2.295    8.1306
    2.310    7.8673
    2.325    7.6145
    2.340    7.7304
    2.355    7.4776
    2.370    7.5724
    2.385    7.5724
    2.400    7.8778
    2.415    7.8462
    2.430    7.7514
    2.445    7.5724
    2.460    7.5619
    2.475    7.4987
    2.490    7.2880
    2.505    7.0774
    2.520    7.2038
    2.535    7.1617
    2.550    7.0458
    2.565    7.1406
    2.580    7.5092
    2.595    7.4566
    2.610    7.5513
    2.625    7.1827
    2.640    7.2986
    2.655    7.3407
    2.670    7.1195
    2.685    7.2880
    2.700    7.0037
    2.715    7.1090
    2.730    6.9300
    2.745    6.9405
    2.760    6.8141
    2.775    6.8562
    2.790    6.5824
    2.805    6.9300
    2.820    6.8878
    2.835    7.0142
    2.850    6.6983
    2.865    6.6245
    2.880    6.6456
    2.895    6.4771
    2.910    6.5613
    2.925    6.6561
    2.940    6.6035
    2.955    6.4139
    2.970    6.4560
    2.985    6.3507
    3.000    6.3296
    3.015    6.3507
    3.030    6.6877
    3.045    6.7509
    3.060    6.7299
    3.075    6.2875
    3.090    6.4876
    3.105    6.5403
    3.120    6.6561
    3.135    6.5719
    3.150    6.3507
    3.165    6.3612
    3.180    6.4771
    3.195    6.7299
    3.210    6.5298
    3.225    6.7825
    3.240    6.6772
    3.255    6.6667
    3.270    6.5613
    3.285    6.4455
    3.300    6.4560
    3.315    6.3296
    3.330    6.3191
    3.345    6.2665
    3.360    6.1822
    3.375    6.3823
    3.390    6.2454
    3.405    6.2138
    3.420    6.2665
    3.435    6.3612
    3.450    6.7509
    3.465    6.5719
    3.480    6.6983
    3.495    6.2875
    3.510    6.4982
    3.525    6.6772
    3.540    6.1822
    3.555    6.4034
    3.570    6.2138
    3.585    6.6456
    3.600    6.5824
    3.615    6.4455
    3.630    6.0453
    3.645    5.5082
    3.660    5.9084
    3.675    6.1190
    3.690    6.3296
    3.705    5.9610
    3.720    5.9400
    3.735    5.9610
    3.750    5.9716
    3.765    5.8662
    3.780    6.2349
    3.795    6.2033
    3.810    6.0453
    3.825    6.3086
    3.840    6.4560
    3.855    5.8662
    3.870    5.9189
    3.885    6.2665
    3.900    6.1190
    3.915    5.9926
    3.930    6.1295
    3.945    6.3928
    3.960    6.2981
    3.975    5.9084
    3.990    5.7293
    4.005    5.8031
    4.020    6.0874
    4.035    6.2033
    4.050    6.1927
    4.065    6.2665
    4.080    6.0979
    4.095    5.7715
    4.110    5.9400
    4.125    5.7188
    4.140    6.4244
    4.155    6.4034
    4.170    6.1190
    4.185    6.2349
    4.200    6.1717
    4.215    6.5087
    4.230    6.4034
    4.245    6.1822
    4.260    6.0453
    4.275    6.0558
    4.290    6.0137
    4.305    6.1717
    4.320    6.0348
    4.335    5.8978
    4.350    6.1190
    4.365    5.7820
    4.380    5.9610
    4.395    6.1717
    4.410    6.5613
    4.425    6.2559
    4.440    6.0979
    4.455    6.1401
    4.470    6.3402
    4.485    6.2665
    4.500    6.1611
    4.515    6.3402
    4.530    5.8768
    4.545    6.1611
    4.560    5.9926
    4.575    6.1611
    4.590    6.0348
    4.605    6.0558
    4.620    6.5719
    4.635    6.5929
    4.650    6.1295
    4.665    6.2349
    4.680    6.1927
    4.695    5.9610
    4.710    6.1190
    4.725    6.1822
    4.740    6.4771
    4.755    6.1506
    4.770    6.3823
    4.785    6.2454
    4.800    6.4982
    4.815    6.3823
    4.830    6.6667
    4.845    6.2349
    4.860    6.0979
    4.875    5.9610
    4.890    6.3507
    4.905    6.2559
    4.920    6.6877
    4.935    6.7088
    4.950    6.6561
    4.965    6.2033
    4.980    6.5192
    4.995    6.4771
    5.010    6.3823
    5.025    6.6035
    5.040    6.4139
    5.055    6.7825
    5.070    6.5824
    5.085    6.6877
    5.100    6.8562
    5.115    6.8141
    5.130    6.8773
    5.145    6.8562
    5.160    6.7825
    5.175    6.5929
    5.190    6.7404
    5.205    6.6877
    5.220    7.0669
    5.235    7.0248
    5.250    7.1827
    5.265    6.8878
    5.280    7.0879
    5.295    7.5724
    5.310    6.9721
    5.325    7.3618
    5.340    7.6040
    5.355    7.1090
    5.370    6.9932
    5.385    7.2249
    5.400    7.4039
    5.415    7.0353
    5.430    7.7093
    5.445    7.3302
    5.460    7.7409
    5.475    7.9726
    5.490    7.2880
    5.505    7.0985
    5.520    7.5829
    5.535    8.1727
    5.550    7.7093
    5.565    7.5197
    5.580    7.7304
    5.595    7.3407
    5.610    7.6356
    5.625    7.7409
    5.640    7.4355
    5.655    8.0885
    5.670    8.0358
    5.685    7.6040
    5.700    7.2459
    5.715    7.2986
    5.730    7.1617
    5.745    7.2565
    5.760    7.0563
    5.775    7.4566
    5.790    6.7615
    5.805    6.9194
    5.820    6.9721
    5.835    6.7825
    5.850    6.6561
    5.865    6.8141
    5.880    6.4666
    5.895    6.6035
    5.910    6.6456
    5.925    6.5824
    5.940    6.6035
    5.955    6.6035
    5.970    6.7509
    5.985    6.5824
    6.000    6.4982
    6.015    5.9084
    6.030    6.0453
    6.045    6.0348
    6.060    6.0453
    6.075    6.3507
    6.090    6.1190
    6.105    6.4034
    6.120    6.0769
    6.135    6.4666
    6.150    6.3823
    6.165    5.8978
    6.180    6.2033
    6.195    6.2770
    6.210    6.2981
    6.225    6.0979
    6.240    5.8031
    6.255    6.0664
    6.270    6.0453
    6.285    6.2454
    6.300    6.2559
    6.315    5.9189
    6.330    5.8978
    6.345    6.0137
    6.360    5.9084
    6.375    5.9294
    6.390    5.4344
    6.405    5.4239
    6.420    5.6451
    6.435    5.6029
    6.450    5.4344
    6.465    5.6451
    6.480    5.5714
    6.495    6.0453
    6.510    5.6135
    6.525    5.4766
    6.540    5.5292
    6.555    5.8136
    6.570    5.7504
    6.585    5.6872
    6.600    5.4134
    6.615    5.8873
    6.630    6.1611
    6.645    5.5924
    6.660    5.4450
    6.675    5.6240
    6.690    5.5819
    6.705    5.3923
    6.720    5.6240
    6.735    5.1501
    6.750    5.5819
    6.765    5.4028
    6.780    5.4660
    6.795    5.4555
    6.810    5.8241
    6.825    5.6661
    6.840    5.6556
    6.855    5.4239
    6.870    5.5398
    6.885    5.3186
    6.900    5.3502
    6.915    5.3186
    6.930    5.1080
    6.945    5.3397
    6.960    5.4344
    6.975    5.4555
    6.990    5.6977
    7.005    5.5819
    7.020    5.3712
    7.035    5.4344
    7.050    5.4134
    7.065    5.3607
    7.080    5.0658
    7.095    5.3397
    7.110    5.4344
    7.125    5.5187
    7.140    5.0448
    7.155    5.2238
    7.170    5.3186
    7.185    5.4660
    7.200    5.0764
    7.215    5.1606
    7.230    5.2343
    7.245    5.1080
    7.260    5.1501
    7.275    5.0026
    7.290    4.6235
    7.305    5.0974
    7.320    4.9710
    7.335    5.6240
    7.350    5.3291
    7.365    5.2554
    7.380    5.4976
    7.395    5.0764
    7.410    5.1290
    7.425    4.7815
    7.440    5.0342
    7.455    4.8552
    7.470    4.9605
    7.485    4.9394
    7.500    5.1606
    7.515    5.2027
    7.530    4.6235
    7.545    4.7499
    7.560    5.0132
    7.575    5.1395
    7.590    5.2554
    7.605    4.9500
    7.620    4.9921
    7.635    4.7183
    7.650    4.5919
    7.665    4.8131
    7.680    4.7499
    7.695    4.7604
    7.710    4.8868
    7.725    4.9710
    7.740    4.8657
    7.755    4.9500
    7.770    4.7709
    7.785    4.8131
    7.800    4.7920
    7.815    4.8552
    7.830    5.1185
    7.845    4.9816
    7.860    4.9816
    7.875    4.8552
    7.890    4.7709
    7.905    4.7183
    7.920    4.6340
    7.935    4.5603
    7.950    4.8868
    7.965    4.6024
    7.980    4.8552
    7.995    4.2443
    8.010    5.2027
    8.025    4.8131
    8.040    4.5392
    8.055    4.7499
    8.070    4.9605
    8.085    4.7604
    8.100    4.7183
    8.115    4.6656
    8.130    4.5814
    8.145    4.9710
    8.160    4.6867
    8.175    4.6656
    8.190    4.3813
    8.205    4.6867
    8.220    4.4760
    8.235    4.5814
    8.250    4.5603
    8.265    4.9394
    8.280    4.7709
    8.295    4.3918
    8.310    4.7815
    8.325    4.2865
    8.340    4.5814
    8.355    4.7288
    8.370    4.5708
    8.385    4.2970
    8.400    4.4550
    8.415    4.8131
    8.430    4.8341
    8.445    4.5814
    8.460    4.4444
    8.475    4.3497
    8.490    4.1496
    8.505    4.4655
    8.520    4.6130
    8.535    4.5287
    8.550    4.4023
    8.565    4.2338
    8.580    4.4550
    8.595    4.4550
    8.610    4.3707
    8.625    4.4550
    8.640    4.6656
    8.655    4.5603
    8.670    4.6235
    8.685    4.8447
    8.700    4.5498
    8.715    4.1917
    8.730    4.6130
    8.745    4.8447
    8.760    4.6024
    8.775    4.6340
    8.790    4.1285
    8.805    4.4971
    8.820    4.4444
    8.835    4.6656
    8.850    4.9394
    8.865    4.9394
    8.880    4.9078
    8.895    5.2238
    8.910    4.9500
    8.925    4.6340
    8.940    4.4234
    8.955    4.4128
    8.970    4.2654
    8.985    4.4655
    9.000    4.5392
    9.015    4.3286
    9.030    4.6130
    9.045    4.4339
    9.060    4.4339
    9.075    4.6235
    9.090    4.3181
    9.105    4.1811
    9.120    4.5919
    9.135    4.3497
    9.150    4.4023
    9.165    4.3497
    9.180    4.4971
    9.195    4.2127
    9.210    4.3707
    9.225    4.4234
    9.240    4.3813
    9.255    4.4550
    9.270    4.6551
    9.285    4.6445
    9.300    4.5919
    9.315    4.6761
    9.330    4.4023
    9.345    4.2338
    9.360    4.4550
    9.375    4.3918
    9.390    4.5919
    9.405    4.3286
    9.420    4.3181
    9.435    4.1706
    9.450    4.1706
    9.465    4.1917
    9.480    4.3602
    9.495    4.2022
    9.510    4.2759
    9.525    4.2654
    9.540    4.6972
    9.555    4.4760
    9.570    4.3497
    9.585    4.3813
    9.600    4.2338
    9.615    4.4339
    9.630    4.6656
    9.645    4.6340
    9.660    4.3813
    9.675    4.5076
    9.690    4.5498
    9.705    4.3391
    9.720    4.2865
    9.735    4.4339
    9.750    4.4023
    9.765    4.0337
    9.780    4.1180
    9.795    4.3707
    9.810    4.2654
    9.825    4.2654
    9.840    4.3602
    9.855    4.1390
    9.870    4.1390
    9.885    4.4971
    9.900    4.0126
    9.915    4.1496
    9.930    4.3181
    9.945    4.4866
    9.960    4.1496
    9.975    4.5076
    9.990    4.3813
   10.005    4.4023
   10.020    4.3075
   10.035    4.5392
   10.050    4.4339
   10.065    4.5919
   10.080    4.5182
   10.095    4.2654
   10.110    4.1706
   10.125    4.2022
   10.140    4.2443
   10.155    4.2865
   10.170    4.2127
   10.185    4.1285
   10.200    4.4550
   10.215    4.4128
   10.230    4.2127
   10.245    4.2549
   10.260    4.1496
   10.275    4.5076
   10.290    4.8657
   10.305    4.4550
   10.320    4.4234
   10.335    4.5076
   10.350    4.5919
   10.365    4.7288
   10.380    4.5708
   10.395    4.2549
   10.410    4.5076
   10.425    4.4444
   10.440    4.0548
   10.455    4.3602
   10.470    3.9810
   10.485    4.3497
   10.500    4.3391
   10.515    4.2443
   10.530    4.1706
   10.545    4.5182
   10.560    4.4128
   10.575    4.5287
   10.590    4.5708
   10.605    4.4866
   10.620    4.4023
   10.635    4.4023
   10.650    4.5392
   10.665    4.5708
   10.680    4.5498
   10.695    4.5603
   10.710    4.5076
   10.725    4.4128
   10.740    4.0758
   10.755    4.2233
   10.770    4.2233
   10.785    4.3813
   10.800    4.3707
   10.815    4.6867
   10.830    4.8763
   10.845    4.8131
   10.860    4.4550
   10.875    4.5919
   10.890    4.5603
   10.905    4.4971
   10.920    4.5392
   10.935    4.4655
   10.950    4.6867
   10.965    4.3075
   10.980    4.6761
   10.995    4.4866
   11.010    4.6235
   11.025    4.8131
   11.040    4.4550
   11.055    4.6340
   11.070    4.6024
   11.085    4.5603
   11.100    4.6551
   11.115    4.4550
   11.130    4.1285
   11.145    4.1496
   11.160    4.3075
   11.175    4.6445
   11.190    4.2549
   11.205    4.2338
   11.220    4.5919
   11.235    4.9184
   11.250    4.6130
   11.265    4.5919
   11.280    4.5603
   11.295    4.3075
   11.310    4.5814
   11.325    4.5498
   11.340    4.2338
   11.355    4.1601
   11.370    4.4655
   11.385    4.6972
   11.400    4.4128
   11.415    4.4866
   11.430    4.3918
   11.445    4.7709
   11.460    4.0442
   11.475    4.3918
   11.490    4.5182
   11.505    4.5182
   11.520    4.4866
   11.535    4.7393
   11.550    4.5392
   11.565    4.3602
   11.580    4.2443
   11.595    4.1601
   11.610    4.1285
   11.625    4.3286
   11.640    4.4444
   11.655    4.4971
   11.670    4.4339
   11.685    4.5603
   11.700    4.2443
   11.715    4.4339
   11.730    4.2654
   11.745    4.4234
   11.760    4.3497
   11.775    4.1917
   11.790    4.4550
   11.805    4.6130
   11.820    4.8341
   11.835    4.5708
   11.850    4.3602
   11.865    4.4023
   11.880    4.3181
   11.895    4.0864
   11.910    4.3286
   11.925    4.3391
   11.940    4.2865
   11.955    4.2022
   11.970    4.4234
   11.985    4.0758
   12.000    4.1180
   12.015    4.3075
   12.030    4.3813
   12.045    4.1496
   12.060    4.6130
   12.075    4.4760
   12.090    4.2443
   12.105    4.3181
   12.120    4.4760
   12.135    4.3286
   12.150    4.4760
   12.165    4.3918
   12.180    4.3918
   12.195    4.4023
   12.210    4.4023
   12.225    4.4655
   12.240    4.4234
   12.255    4.5182
   12.270    4.3602
   12.285    4.0969
   12.300    4.5498
   12.315    4.1180
   12.330    4.2654
   12.345    4.1811
   12.360    4.0758
   12.375    4.2654
   12.390    4.5919
   12.405    4.5076
   12.420    4.2865
   12.435    4.3602
   12.450    4.2759
   12.465    4.2865
   12.480    4.1601
   12.495    4.0232
   12.510    4.0548
   12.525    4.0758
   12.540    4.0969
   12.555    4.3813
   12.570    4.0021
   12.585    4.1074
   12.600    4.1917
   12.615    4.3813
   12.630    4.2233
   12.645    4.1811
   12.660    4.4128
   12.675    4.2970
   12.690    4.2654
   12.705    4.2022
   12.720    4.3181
   12.735    4.2549
   12.750    3.9494
   12.765    4.2549
   12.780    4.4128
   12.795    4.4655
   12.810    4.4339
   12.825    4.2022
   12.840    4.2970
   12.855    4.2970
   12.870    4.2759
   12.885    4.4550
   12.900    4.4444
   12.915    4.1917
   12.930    4.1285
   12.945    4.4971
   12.960    4.1811
   12.975    4.0442
   12.990    3.9073
   13.005    4.2338
   13.020    4.5814
   13.035    3.9494
   13.050    3.9916
   13.065    4.4339
   13.080    4.3707
   13.095    4.5392
   13.110    4.6130
   13.125    4.2022
   13.140    3.9284
   13.155    4.2233
   13.170    4.5708
   13.185    4.3075
   13.200    4.1706
   13.215    4.1390
   13.230    4.1706
   13.245    4.4760
   13.260    4.2549
   13.275    4.0548
   13.290    4.2127
   13.305    4.4234
   13.320    4.4339
   13.335    4.5287
   13.350    4.5498
   13.365    4.3286
   13.380    4.3181
   13.395    4.4550
   13.410    4.4760
   13.425    4.3707
   13.440    4.1074
   13.455    4.4550
   13.470    4.4866
   13.485    4.4971
   13.500    4.0864
   13.515    4.2443
   13.530    4.5603
   13.545    4.2338
   13.560    4.2549
   13.575    4.2233
   13.590    3.9600
   13.605    3.9389
   13.620    4.1706
   13.635    4.2970
   13.650    4.3497
   13.665    4.2127
   13.680    3.9284
   13.695    4.3602
   13.710    4.2127
   13.725    4.1706
   13.740    4.2338
   13.755    4.2338
   13.770    4.5182
   13.785    4.2127
   13.800    4.1496
   13.815    4.3075
   13.830    3.9389
   13.845    4.1496
   13.860    4.2443
   13.875    4.4128
   13.890    4.1496
   13.905    4.4128
   13.920    4.3602
   13.935    4.7077
   13.950    4.5919
   13.965    4.3286
   13.980    4.3813
   13.995    4.7815
   14.010    4.6235
   14.025    4.5182
   14.040    4.2970
   14.055    4.4550
   14.070    4.3707
   14.085    4.2127
   14.100    4.3707
   14.115    4.8341
   14.130    4.4128
   14.145    3.9810
   14.160    4.1074
   14.175    4.5919
   14.190    4.5182
   14.205    4.5287
   14.220    4.5498
   14.235    4.5498
   14.250    4.4760
   14.265    4.3075
   14.280    4.6340
   14.295    4.6867
   14.310    4.4444
   14.325    4.7393
   14.340    4.5603
   14.355    4.7077
   14.370    4.6761
   14.385    4.4760
   14.400    4.4023
   14.415    4.4971
   14.430    4.6130
   14.445    4.2022
   14.460    4.4550
   14.475    4.5919
   14.490    4.9394
   14.505    4.9500
   14.520    4.8025
   14.535    4.8236
   14.550    4.5814
   14.565    4.6340
   14.580    4.4760
   14.595    4.4971
   14.610    4.6024
   14.625    4.4971
   14.640    4.7288
   14.655    4.5287
   14.670    4.4866
   14.685    4.6130
   14.700    4.3391
   14.715    4.3286
   14.730    4.7604
   14.745    4.4234
   14.760    4.2022
   14.775    4.1285
   14.790    4.4234
   14.805    4.4444
   14.820    4.4971
   14.835    4.4971
   14.850    4.2654
   14.865    4.6024
   14.880    4.7393
   14.895    4.3707
   14.910    4.5392
   14.925    4.3813
   14.940    4.5182
   14.955    4.5603
   14.970    4.3707
   14.985    4.5603
   15.000    4.1390
   15.015    4.6551
   15.030    4.7499
   15.045    4.4550
   15.060    4.2865
   15.075    4.4655
   15.090    4.4866
   15.105    4.2759
   15.120    4.4971
   15.135    4.3707
   15.150    4.3075
   15.165    4.0969
   15.180    4.2127
   15.195    4.2654
   15.210    4.1390
   15.225    4.4339
   15.240    4.1496
   15.255    4.4866
   15.270    4.2654
   15.285    4.3602
   15.300    4.2022
   15.315    4.4339
   15.330    4.5392
   15.345    4.2338
   15.360    4.4234
   15.375    4.2970
   15.390    4.4234
   15.405    4.3707
   15.420    4.4550
   15.435    4.5814
   15.450    4.0548
   15.465    4.5498
   15.480    4.5603
   15.495    4.1285
   15.510    4.5498
   15.525    4.3813
   15.540    4.4234
   15.555    4.5498
   15.570    4.4866
   15.585    4.3602
   15.600    4.2022
   15.615    4.3075
   15.630    4.3497
   15.645    4.3497
   15.660    4.2654
   15.675    4.5287
   15.690    4.6340
   15.705    4.7077
   15.720    4.3286
   15.735    4.0548
   15.750    4.6656
   15.765    4.7499
   15.780    4.7499
   15.795    4.7499
   15.810    4.7288
   15.825    4.8341
   15.840    4.6340
   15.855    4.5603
   15.870    4.8341
   15.885    4.7815
   15.900    4.5919
   15.915    4.7183
   15.930    4.9394
   15.945    5.1290
   15.960    5.0764
   15.975    4.9078
   15.990    5.1185
   16.005    5.3607
   16.020    5.4344
   16.035    5.2449
   16.050    5.0237
   16.065    4.9394
   16.080    5.0448
   16.095    5.2870
   16.110    5.5608
   16.125    5.9716
   16.140    5.9189
   16.155    5.5924
   16.170    5.1817
   16.185    5.3502
   16.200    5.2765
   16.215    5.3502
   16.230    5.4239
   16.245    5.5503
   16.260    5.2870
   16.275    5.3081
   16.290    5.4239
   16.305    5.4028
   16.320    5.0869
   16.335    5.1922
   16.350    4.9921
   16.365    4.6761
   16.380    5.0764
   16.395    4.6972
   16.410    4.4866
   16.425    4.6551
   16.440    4.6761
   16.455    4.8341
   16.470    4.6235
   16.485    4.4655
   16.500    4.7920
   16.515    4.6656
   16.530    4.4444
   16.545    4.2022
   16.560    4.4023
   16.575    4.5392
   16.590    4.3181
   16.605    4.3286
   16.620    4.5814
   16.635    4.4234
   16.650    4.5603
   16.665    4.3181
   16.680    4.4023
   16.695    4.5603
   16.710    4.5498
   16.725    4.3602
   16.740    4.0864
   16.755    4.0758
   16.770    4.3181
   16.785    4.1601
   16.800    4.5919
   16.815    4.4128
   16.830    4.5392
   16.845    4.3813
   16.860    4.3813
   16.875    4.3286
   16.890    4.4339
   16.905    4.3181
   16.920    3.9494
   16.935    4.3602
   16.950    4.2233
   16.965    4.6551
   16.980    4.6235
   16.995    4.3813
   17.010    4.1601
   17.025    4.4655
   17.040    4.4655
   17.055    4.4444
   17.070    4.8763
   17.085    4.2022
   17.100    4.4971
   17.115    4.5287
   17.130    4.2233
   17.145    3.8757
   17.160    4.3602
   17.175    4.6445
   17.190    4.2759
   17.205    4.2759
   17.220    3.9705
   17.235    4.0442
   17.250    4.1811
   17.265    4.4444
   17.280    4.2233
   17.295    4.2022
   17.310    4.0021
   17.325    4.5498
   17.340    4.3497
   17.355    4.2549
   17.370    4.3602
   17.385    4.1706
   17.400    4.1811
   17.415    4.2443
   17.430    4.1074
   17.445    4.1706
   17.460    4.3391
   17.475    4.2443
   17.490    4.3181
   17.505    4.4866
   17.520    4.4655
   17.535    4.1811
   17.550    4.3813
   17.565    4.5182
   17.580    4.4866
   17.595    4.4339
   17.610    4.5919
   17.625    4.4339
   17.640    4.0864
   17.655    4.2022
   17.670    4.1917
   17.685    4.2338
   17.700    4.2865
   17.715    4.2233
   17.730    4.1496
   17.745    4.3707
   17.760    4.1706
   17.775    3.9284
   17.790    4.1390
   17.805    4.1601
   17.820    4.2759
   17.835    4.2970
   17.850    4.3918
   17.865    4.2338
   17.880    4.5182
   17.895    4.3181
   17.910    4.5076
   17.925    4.4971
   17.940    4.3497
   17.955    4.1496
   17.970    4.4866
   17.985    4.2549
   18.000    4.1285
   18.015    4.0232
   18.030    4.2654
   18.045    4.2127
   18.060    4.3497
   18.075    4.4023
   18.090    4.6130
   18.105    4.4234
   18.120    4.0969
   18.135    4.0864
   18.150    4.0758
   18.165    4.0232
   18.180    4.1074
   18.195    4.3391
   18.210    4.5498
   18.225    4.3286
   18.240    4.2865
   18.255    4.3602
   18.270    4.1706
   18.285    3.9389
   18.300    4.4128
   18.315    4.2654
   18.330    4.2127
   18.345    4.3813
   18.360    4.1180
   18.375    3.9810
   18.390    4.1496
   18.405    4.2549
   18.420    4.2022
   18.435    3.9284
   18.450    3.8441
   18.465    4.0232
   18.480    4.2127
   18.495    4.1285
   18.510    4.3391
   18.525    4.1811
   18.540    4.3391
   18.555    4.3602
   18.570    4.0442
   18.585    4.1180
   18.600    4.2127
   18.615    4.4971
   18.630    4.2970
   18.645    3.9284
   18.660    4.4760
   18.675    4.0864
   18.690    4.0337
   18.705    4.0337
   18.720    3.8231
   18.735    4.3286
   18.750    4.4655
   18.765    4.4550
   18.780    4.0864
   18.795    4.4339
   18.810    4.4339
   18.825    4.1601
   18.840    4.2970
   18.855    4.0548
   18.870    4.2443
   18.885    4.4339
   18.900    4.2759
   18.915    4.3497
   18.930    4.6340
   18.945    4.6761
   18.960    4.8763
   18.975    5.3081
   18.990    5.7504
   19.005    5.8662
   19.020    5.2554
   19.035    5.0026
   19.050    4.8236
   19.065    4.2127
   19.080    3.6651
   19.095    4.1390
   19.110    4.1496
   19.125    4.2759
   19.140    4.2865
   19.155    4.2443
   19.170    4.3602
   19.185    4.2127
   19.200    4.3075
   19.215    4.1917
   19.230    4.2549
   19.245    4.2970
   19.260    4.2338
   19.275    4.1496
   19.290    4.1601
   19.305    4.6235
   19.320    4.3497
   19.335    4.2338
   19.350    4.4339
   19.365    4.1496
   19.380    4.2865
   19.395    4.0864
   19.410    4.2443
   19.425    3.9179
   19.440    4.0126
   19.455    4.0864
   19.470    4.2022
   19.485    4.4655
   19.500    3.8020
   19.515    4.0126
   19.530    3.9073
   19.545    4.2127
   19.560    4.2127
   19.575    4.0337
   19.590    4.0232
   19.605    3.7283
   19.620    3.8547
   19.635    4.0126
   19.650    4.1180
   19.665    4.2022
   19.680    4.3286
   19.695    3.9179
   19.710    4.0021
   19.725    4.0548
   19.740    4.1180
   19.755    3.9284
   19.770    4.0548
   19.785    4.1285
   19.800    3.8231
   19.815    3.7915
   19.830    3.7072
   19.845    3.9600
   19.860    4.0864
   19.875    4.2549
   19.890    4.2654
   19.905    4.3075
   19.920    4.2759
   19.935    4.5603
   19.950    3.9705
   19.965    3.9916
   19.980    3.8547
   19.995    4.0442
   20.010    3.9916
   20.025    3.9179
   20.040    4.1601
   20.055    4.0232
   20.070    3.8441
   20.085    4.1601
   20.100    4.1496
   20.115    3.8968
   20.130    3.8336
   20.145    4.0758
   20.160    4.0864
   20.175    4.0337
   20.190    3.9179
   20.205    3.9705
   20.220    3.6862
   20.235    3.8968
   20.250    3.9073
   20.265    3.9916
   20.280    3.7809
   20.295    3.8757
   20.310    3.8125
   20.325    4.1074
   20.340    4.0758
   20.355    4.0864
   20.370    4.1811
   20.385    3.8968
   20.400    4.0442
   20.415    3.6756
   20.430    3.9284
   20.445    4.2022
   20.460    3.7283
   20.475    3.8441
   20.490    4.2443
   20.505    3.8757
   20.520    3.8757
   20.535    3.8125
   20.550    4.0442
   20.565    4.0442
   20.580    3.6862
   20.595    3.8547
   20.610    3.9284
   20.625    3.9600
   20.640    4.0758
   20.655    4.0758
   20.670    4.0864
   20.685    4.2022
   20.700    4.2127
   20.715    4.2127
   20.730    3.7704
   20.745    3.6967
   20.760    3.8757
   20.775    4.0548
   20.790    4.0021
   20.805    3.8336
   20.820    3.9810
   20.835    3.8968
   20.850    4.0548
   20.865    4.1811
   20.880    4.1917
   20.895    3.8757
   20.910    3.9810
   20.925    3.8863
   20.940    4.0232
   20.955    4.0864
   20.970    3.7704
   20.985    3.5598
   21.000    4.0021
   21.015    4.0232
   21.030    3.6756
   21.045    3.7388
   21.060    3.9284
   21.075    3.9916
   21.090    4.0758
   21.105    3.7915
   21.120    4.1390
   21.135    3.9179
   21.150    3.7704
   21.165    3.8441
   21.180    3.8441
   21.195    3.8441
   21.210    3.9284
   21.225    4.1074
   21.240    4.1180
   21.255    3.8757
   21.270    3.8757
   21.285    4.0548
   21.300    3.7704
   21.315    3.7493
   21.330    3.7493
   21.345    3.9810
   21.360    3.8757
   21.375    3.9810
   21.390    4.0758
   21.405    4.0337
   21.420    4.0232
   21.435    3.6335
   21.450    3.6651
   21.465    4.0758
   21.480    4.0337
   21.495    4.2549
   21.510    4.2127
   21.525    3.9600
   21.540    3.8231
   21.555    3.8336
   21.570    3.8757
   21.585    3.6124
   21.600    3.9073
   21.615    3.9600
   21.630    4.0442
   21.645    3.6862
   21.660    3.7072
   21.675    3.7388
   21.690    4.0442
   21.705    4.0758
   21.720    3.9916
   21.735    3.8441
   21.750    3.7283
   21.765    3.7915
   21.780    3.7809
   21.795    3.7388
   21.810    3.7915
   21.825    3.8863
   21.840    3.7704
   21.855    4.0021
   21.870    4.2338
   21.885    3.8441
   21.900    3.3702
   21.915    3.9705
   21.930    3.9494
   21.945    3.7283
   21.960    3.7283
   21.975    3.6967
   21.990    3.8231
   22.005    3.7283
   22.020    3.9494
   22.035    4.0969
   22.050    4.0232
   22.065    3.7072
   22.080    3.7177
   22.095    3.9389
   22.110    3.8336
   22.125    3.7177
   22.140    3.9705
   22.155    3.8020
   22.170    3.5176
   22.185    3.8441
   22.200    3.8020
   22.215    3.7388
   22.230    3.6124
   22.245    3.5703
   22.260    3.7493
   22.275    3.5914
   22.290    3.8020
   22.305    3.4650
   22.320    3.7704
   22.335    3.7809
   22.350    3.6756
   22.365    3.6019
   22.380    3.6651
   22.395    3.5914
   22.410    4.1180
   22.425    3.9389
   22.440    3.9073
   22.455    4.0232
   22.470    4.0126
   22.485    4.0548
   22.500    3.8652
   22.515    3.8125
   22.530    3.9073
   22.545    3.9810
   22.560    3.8336
   22.575    3.6546
   22.590    3.5598
   22.605    3.7283
   22.620    3.9073
   22.635    3.7177
   22.650    3.8125
   22.665    3.9389
   22.680    3.4439
   22.695    3.7177
   22.710    3.3702
   22.725    3.4334
   22.740    3.6019
   22.755    3.7809
   22.770    3.8125
   22.785    3.8125
   22.800    3.7704
   22.815    3.8757
   22.830    3.9179
   22.845    3.9600
   22.860    3.9179
   22.875    3.7809
   22.890    3.7704
   22.905    3.9600
   22.920    3.9705
   22.935    3.6967
   22.950    3.6862
   22.965    3.8231
   22.980    3.9916
   22.995    3.6230
   23.010    3.5387
   23.025    3.6124
   23.040    3.6756
   23.055    3.8020
   23.070    3.9284
   23.085    4.3181
   23.100    4.4760
   23.115    4.1074
   23.130    4.2022
   23.145    4.0653
   23.160    4.0864
   23.175    3.9916
   23.190    3.7283
   23.205    3.6967
   23.220    3.7072
   23.235    3.5914
   23.250    3.5703
   23.265    3.4334
   23.280    3.5914
   23.295    3.5808
   23.310    3.6862
   23.325    3.8441
   23.340    3.5914
   23.355    3.7177
   23.370    3.8125
   23.385    3.6546
   23.400    3.6440
   23.415    3.7599
   23.430    3.9179
   23.445    4.0864
   23.460    3.8652
   23.475    3.7809
   23.490    3.6230
   23.505    3.5492
   23.520    3.6124
   23.535    3.8863
   23.550    3.5808
   23.565    3.8441
   23.580    3.8441
   23.595    3.5808
   23.610    3.3386
   23.625    3.6019
   23.640    3.8336
   23.655    3.6440
   23.670    3.7809
   23.685    3.7599
   23.700    3.5808
   23.715    3.5808
   23.730    3.7388
   23.745    3.8441
   23.760    3.7599
   23.775    3.4544
   23.790    3.3597
   23.805    3.6756
   23.820    3.5492
   23.835    3.7915
   23.850    3.6440
   23.865    3.7809
   23.880    3.6335
   23.895    3.5703
   23.910    3.7599
   23.925    3.6335
   23.940    3.4439
   23.955    3.3807
   23.970    3.5492
   23.985    3.7915
   24.000    3.5387
   24.015    3.7704
   24.030    3.7388
   24.045    3.7915
   24.060    3.6440
   24.075    3.6019
   24.090    3.5282
   24.105    3.4229
   24.120    3.5492
   24.135    3.5808
   24.150    3.6124
   24.165    3.8652
   24.180    3.8020
   24.195    3.4755
   24.210    3.4123
   24.225    3.5914
   24.240    3.9389
   24.255    3.8652
   24.270    4.0864
   24.285    3.8968
   24.300    3.4966
   24.315    3.5808
   24.330    3.7388
   24.345    3.5176
   24.360    3.5071
   24.375    3.6124
   24.390    3.5808
   24.405    3.6967
   24.420    3.3281
   24.435    3.2017
   24.450    3.3386
   24.465    3.5176
   24.480    3.4860
   24.495    3.4755
   24.510    3.4755
   24.525    3.5808
   24.540    3.4229
   24.555    3.3702
   24.570    3.4755
   24.585    3.5387
   24.600    3.8441
   24.615    3.6230
   24.630    3.3597
   24.645    3.4755
   24.660    3.2754
   24.675    3.3386
   24.690    3.6967
   24.705    3.6651
   24.720    3.5914
   24.735    3.2438
   24.750    3.3175
   24.765    3.3281
   24.780    3.4123
   24.795    3.7177
   24.810    3.6440
   24.825    3.5492
   24.840    3.6862
   24.855    3.6651
   24.870    3.7072
   24.885    3.5176
   24.900    3.9179
   24.915    3.8652
   24.930    3.4229
   24.945    3.7915
   24.960    3.8441
   24.975    3.6335
   24.990    3.5808
   25.005    3.5492
   25.020    3.3597
   25.035    3.4123
   25.050    3.5598
   25.065    3.6124
   25.080    3.7177
   25.095    3.6862
   25.110    3.3491
   25.125    3.5703
   25.140    3.8863
   25.155    3.3386
   25.170    3.2333
   25.185    3.2965
   25.200    3.5492
   25.215    3.4860
   25.230    3.4650
   25.245    3.4544
   25.260    3.4123
   25.275    3.6651
   25.290    3.4439
   25.305    3.4755
   25.320    3.2859
   25.335    3.6546
   25.350    3.4860
   25.365    3.6651
   25.380    3.3807
   25.395    3.4018
   25.410    3.4123
   25.425    3.5282
   25.440    3.5598
   25.455    3.4229
   25.470    3.2543
   25.485    3.4123
   25.500    3.5703
   25.515    3.5598
   25.530    3.6862
   25.545    3.8547
   25.560    3.8020
   25.575    3.9494
   25.590    3.6230
   25.605    3.5492
   25.620    3.5492
   25.635    3.4755
   25.650    3.5387
   25.665    3.5492
   25.680    3.5914
   25.695    3.8968
   25.710    3.7388
   25.725    3.4544
   25.740    3.5703
   25.755    3.4966
   25.770    3.4229
   25.785    3.3597
   25.800    3.4966
   25.815    3.2965
   25.830    3.3070
   25.845    3.5282
   25.860    3.2965
   25.875    3.5387
   25.890    3.6440
   25.905    3.3070
   25.920    3.3702
   25.935    3.6230
   25.950    3.6756
   25.965    3.5071
   25.980    3.9179
   25.995    3.6019
   26.010    3.5387
   26.025    3.5282
   26.040    3.3702
   26.055    3.2543
   26.070    3.6335
   26.085    3.7283
   26.100    3.3070
   26.115    3.3281
   26.130    3.4018
   26.145    3.4018
   26.160    3.3281
   26.175    3.3175
   26.190    3.4334
   26.205    3.5071
   26.220    3.6440
   26.235    3.8231
   26.250    3.5387
   26.265    3.1385
   26.280    3.1596
   26.295    3.2965
   26.310    3.5176
   26.325    3.5703
   26.340    3.3070
   26.355    3.0332
   26.370    3.2859
   26.385    3.4650
   26.400    3.1174
   26.415    3.5176
   26.430    3.5071
   26.445    3.1385
   26.460    3.1069
   26.475    3.6440
   26.490    3.6124
   26.505    3.4544
   26.520    3.7072
   26.535    3.2122
   26.550    3.4544
   26.565    3.7283
   26.580    3.6335
   26.595    3.5914
   26.610    3.5492
   26.625    3.3281
   26.640    3.2859
   26.655    3.5176
   26.670    3.5598
   26.685    3.6546
   26.700    3.3175
   26.715    3.3913
   26.730    3.1701
   26.745    3.4544
   26.760    3.4966
   26.775    3.6124
   26.790    3.5387
   26.805    3.5071
   26.820    3.3807
   26.835    3.4755
   26.850    3.4123
   26.865    3.0858
   26.880    3.2543
   26.895    3.4755
   26.910    3.6651
   26.925    3.5598
   26.940    3.4123
   26.955    3.4650
   26.970    3.4334
   26.985    3.3281
   27.000    3.4018
   27.015    3.1701
   27.030    3.4544
   27.045    3.6335
   27.060    3.4229
   27.075    3.4123
   27.090    3.3386
   27.105    3.6440
   27.120    3.4334
   27.135    3.2122
   27.150    3.2649
   27.165    3.2017
   27.180    3.1280
   27.195    3.4123
   27.210    3.5071
   27.225    3.4755
   27.240    3.2543
   27.255    3.5071
   27.270    3.6440
   27.285    3.4018
   27.300    3.3597
   27.315    3.4755
   27.330    3.3913
   27.345    3.2754
   27.360    3.5387
   27.375    3.3597
   27.390    3.0964
   27.405    3.5282
   27.420    3.3807
   27.435    3.3491
   27.450    3.4334
   27.465    3.2859
   27.480    3.4650
   27.495    3.5387
   27.510    3.2122
   27.525    3.1912
   27.540    3.1385
   27.555    3.1490
   27.570    3.3070
   27.585    3.6230
   27.600    3.2438
   27.615    3.5492
   27.630    3.6019
   27.645    3.4860
   27.660    3.1912
   27.675    3.1174
   27.690    3.3597
   27.705    3.6756
   27.720    3.5598
   27.735    3.5176
   27.750    3.3597
   27.765    3.3175
   27.780    3.3070
   27.795    3.4334
   27.810    3.1806
   27.825    3.1806
   27.840    3.5071
   27.855    3.2438
   27.870    3.4229
   27.885    3.4544
   27.900    3.2227
   27.915    3.3070
   27.930    3.7704
   27.945    3.8652
   27.960    4.0864
   27.975    4.4128
   27.990    4.3813
   28.005    4.4760
   28.020    4.6867
   28.035    4.0021
   28.050    3.4860
   28.065    3.1174
   28.080    3.2333
   28.095    3.2333
   28.110    3.3597
   28.125    3.0964
   28.140    3.0332
   28.155    3.0437
   28.170    3.3070
   28.185    3.2333
   28.200    3.2543
   28.215    3.4018
   28.230    3.4018
   28.245    3.3491
   28.260    3.4860
   28.275    3.1280
   28.290    3.3702
   28.305    3.4544
   28.320    3.4018
   28.335    3.7599
   28.350    3.3491
   28.365    3.2438
   28.380    3.5808
   28.395    3.3913
   28.410    3.4650
   28.425    3.2965
   28.440    3.2754
   28.455    3.2859
   28.470    3.3913
   28.485    3.3070
   28.500    3.1490
   28.515    3.2754
   28.530    3.3597
   28.545    3.2543
   28.560    3.3070
   28.575    3.3175
   28.590    3.0648
   28.605    2.9910
   28.620    3.2543
   28.635    3.3491
   28.650    3.2122
   28.665    3.2438
   28.680    3.2859
   28.695    3.1701
   28.710    3.1912
   28.725    3.3491
   28.740    3.3597
   28.755    3.1912
   28.770    3.2438
   28.785    3.2227
   28.800    3.4334
   28.815    3.1806
   28.830    3.3913
   28.845    3.7704
   28.860    3.5703
   28.875    3.5282
   28.890    3.5282
   28.905    3.5282
   28.920    4.1601
   28.935    4.9500
   28.950    5.4871
   28.965    5.4976
   28.980    5.3818
   28.995    4.9605
   29.010    3.7704
   29.025    3.4018
   29.040    3.0858
   29.055    3.0437
   29.070    3.0542
   29.085    3.0226
   29.100    3.0226
   29.115    3.1174
   29.130    3.5492
   29.145    3.5282
   29.160    3.2017
   29.175    3.2649
   29.190    2.9805
   29.205    3.0753
   29.220    3.0332
   29.235    3.2965
   29.250    3.3491
   29.265    3.2965
   29.280    3.2543
   29.295    3.3597
   29.310    2.9279
   29.325    3.2333
   29.340    3.3491
   29.355    3.5598
   29.370    3.3175
   29.385    3.2754
   29.400    3.2649
   29.415    2.9910
   29.430    2.9068
   29.445    2.9805
   29.460    3.2017
   29.475    3.3491
   29.490    3.3597
   29.505    3.5071
   29.520    3.4123
   29.535    3.1174
   29.550    3.1385
   29.565    3.2227
   29.580    3.5282
   29.595    3.2649
   29.610    3.0964
   29.625    2.9805
   29.640    3.0437
   29.655    3.3281
   29.670    3.2017
   29.685    2.9595
   29.700    2.8647
   29.715    3.0964
   29.730    2.9805
   29.745    3.2333
   29.760    3.2965
   29.775    3.2333
   29.790    3.1385
   29.805    3.0016
   29.820    3.3597
   29.835    3.1912
   29.850    3.6335
   29.865    3.4334
   29.880    3.0858
   29.895    3.0016
   29.910    3.1069
   29.925    2.8225
   29.940    3.0964
   29.955    3.2543
   29.970    3.0858
   29.985    3.2649
   30.000    3.4439
   30.015    3.2227
   30.030    3.2122
   30.045    3.4018
   30.060    3.5071
   30.075    3.0964
   30.090    2.9910
   30.105    2.6962
   30.120    2.8225
   30.135    3.3070
   30.150    3.3913
   30.165    3.1069
   30.180    3.0542
   30.195    3.2333
   30.210    3.3807
   30.225    3.4650
   30.240    3.1385
   30.255    3.0437
   30.270    3.3491
   30.285    3.2333
   30.300    3.2122
   30.315    3.3702
   30.330    3.4966
   30.345    3.3070
   30.360    3.2333
   30.375    3.3175
   30.390    3.1806
   30.405    3.0437
   30.420    3.2965
   30.435    3.1280
   30.450    3.0226
   30.465    3.0226
   30.480    3.1069
   30.495    3.1069
   30.510    3.0332
   30.525    3.1174
   30.540    3.1280
   30.555    2.8436
   30.570    2.9279
   30.585    2.9384
   30.600    3.1174
   30.615    2.9805
   30.630    2.9910
   30.645    3.2859
   30.660    3.2859
   30.675    3.1385
   30.690    3.1385
   30.705    3.2227
   30.720    2.9805
   30.735    3.1069
   30.750    3.1806
   30.765    2.9700
   30.780    3.0437
   30.795    3.1069
   30.810    3.1806
   30.825    3.1385
   30.840    2.9595
   30.855    3.0332
   30.870    3.3070
   30.885    3.3807
   30.900    3.0332
   30.915    3.4544
   30.930    3.2649
   30.945    3.2227
   30.960    3.1806
   30.975    3.0858
   30.990    3.3281
   31.005    3.5914
   31.020    3.1280
   31.035    3.2649
   31.050    3.2333
   31.065    3.1490
   31.080    3.1280
   31.095    3.0858
   31.110    3.1596
   31.125    3.1701
   31.140    3.2754
   31.155    3.3597
   31.170    3.1174
   31.185    3.0753
   31.200    3.3281
   31.215    3.1806
   31.230    2.9595
   31.245    3.1701
   31.260    3.0542
   31.275    3.3281
   31.290    3.1385
   31.305    3.2122
   31.320    3.2965
   31.335    2.9489
   31.350    3.0858
   31.365    3.2754
   31.380    3.2754
   31.395    3.1280
   31.410    3.0964
   31.425    3.3386
   31.440    3.0121
   31.455    3.1490
   31.470    3.1701
   31.485    3.1806
   31.500    3.0648
   31.515    2.8541
   31.530    3.0226
   31.545    3.2649
   31.560    3.1174
   31.575    3.0437
   31.590    3.3807
   31.605    3.4439
   31.620    3.3281
   31.635    3.2438
   31.650    3.4123
   31.665    3.3281
   31.680    3.4544
   31.695    3.2965
   31.710    3.3913
   31.725    3.2859
   31.740    3.4229
   31.755    3.4860
   31.770    3.4650
   31.785    3.4439
   31.800    3.5387
   31.815    3.6756
   31.830    3.3281
   31.845    3.4544
   31.860    3.4123
   31.875    3.5808
   31.890    3.8547
   31.905    3.8757
   31.920    3.5282
   31.935    3.2438
   31.950    3.5176
   31.965    3.7915
   31.980    3.6019
   31.995    3.7283
   32.010    3.8863
   32.025    3.9389
   32.040    4.6551
   32.055    5.1501
   32.070    6.2559
   32.085    6.4771
   32.100    6.6877
   32.115    5.7083
   32.130    4.8552
   32.145    4.1285
   32.160    3.4229
   32.175    3.5703
   32.190    3.3913
   32.205    3.4123
   32.220    3.4966
   32.235    3.4334
   32.250    3.2859
   32.265    3.3702
   32.280    3.2333
   32.295    3.2859
   32.310    3.3386
   32.325    3.3386
   32.340    3.2649
   32.355    3.2227
   32.370    3.2859
   32.385    3.3491
   32.400    3.2438
   32.415    3.1596
   32.430    2.9384
   32.445    3.1596
   32.460    3.1912
   32.475    3.3702
   32.490    3.4334
   32.505    3.3597
   32.520    3.3702
   32.535    3.2227
   32.550    3.1069
   32.565    3.0858
   32.580    3.1912
   32.595    3.0964
   32.610    2.8963
   32.625    2.7278
   32.640    3.0016
   32.655    3.0858
   32.670    3.0648
   32.685    2.8015
   32.700    2.6224
   32.715    2.9700
   32.730    2.9700
   32.745    3.3386
   32.760    3.0542
   32.775    3.1701
   32.790    2.9279
   32.805    2.7909
   32.820    2.7699
   32.835    2.9595
   32.850    3.1174
   32.865    2.8436
   32.880    2.6330
   32.895    2.9805
   32.910    2.9910
   32.925    3.0858
   32.940    2.8436
   32.955    2.8752
   32.970    2.9805
   32.985    3.0121
   33.000    2.8963
   33.015    3.0121
   33.030    2.9489
   33.045    2.7488
   33.060    2.5382
   33.075    2.6856
   33.090    2.9173
   33.105    2.8752
   33.120    3.1701
   33.135    2.9910
   33.150    2.8647
   33.165    3.0858
   33.180    2.7067
   33.195    2.7593
   33.210    2.9595
   33.225    2.8963
   33.240    2.9384
   33.255    2.9279
   33.270    3.0858
   33.285    2.9384
   33.300    2.9384
   33.315    2.9805
   33.330    2.9173
   33.345    3.0437
   33.360    3.0332
   33.375    2.7593
   33.390    2.9805
   33.405    2.8647
   33.420    2.8647
   33.435    2.8331
   33.450    2.7383
   33.465    2.8752
   33.480    2.6540
   33.495    2.7593
   33.510    2.8963
   33.525    2.8436
   33.540    2.7278
   33.555    2.9173
   33.570    2.7488
   33.585    2.7804
   33.600    2.9068
   33.615    2.8331
   33.630    2.9068
   33.645    3.0542
   33.660    2.9489
   33.675    2.7804
   33.690    2.9805
   33.705    2.8436
   33.720    2.8331
   33.735    3.0648
   33.750    3.2017
   33.765    3.1596
   33.780    3.4334
   33.795    3.5914
   33.810    3.7283
   33.825    3.7493
   33.840    3.3281
   33.855    3.0121
   33.870    3.1596
   33.885    3.0332
   33.900    2.5487
   33.915    2.7909
   33.930    2.8752
   33.945    3.2122
   33.960    3.0542
   33.975    2.8647
   33.990    2.9700
   34.005    2.7909
   34.020    3.0437
   34.035    2.8647
   34.050    2.8541
   34.065    2.7804
   34.080    2.9068
   34.095    2.6119
   34.110    2.7278
   34.125    2.7593
   34.140    2.5698
   34.155    2.9805
   34.170    3.0016
   34.185    2.8963
   34.200    2.5908
   34.215    2.8120
   34.230    2.9173
   34.245    2.7804
   34.260    2.7067
   34.275    2.8541
   34.290    2.8015
   34.305    3.0121
   34.320    2.7383
   34.335    2.7067
   34.350    2.9068
   34.365    2.8541
   34.380    2.8436
   34.395    2.9068
   34.410    2.8647
   34.425    2.8331
   34.440    2.9279
   34.455    2.9068
   34.470    2.8331
   34.485    2.9910
   34.500    3.0648
   34.515    2.6646
   34.530    2.8436
   34.545    2.8963
   34.560    2.9068
   34.575    2.8015
   34.590    2.8752
   34.605    2.7699
   34.620    2.7067
   34.635    2.6330
   34.650    2.4118
   34.665    2.4961
   34.680    2.8225
   34.695    2.7172
   34.710    2.8436
   34.725    2.6224
   34.740    2.8963
   34.755    2.7488
   34.770    2.7593
   34.785    2.7699
   34.800    2.8857
   34.815    2.8857
   34.830    2.7909
   34.845    2.7804
   34.860    2.8752
   34.875    2.6224
   34.890    2.5908
   34.905    2.6646
   34.920    2.7488
   34.935    2.9489
   34.950    2.7593
   34.965    2.5803
   34.980    2.9173
   34.995    2.7172
   35.010    2.8015
   35.025    2.7699
   35.040    2.8436
   35.055    3.0858
   35.070    2.8541
   35.085    2.8752
   35.100    2.9279
   35.115    2.7699
   35.130    2.7909
   35.145    2.7172
   35.160    2.8857
   35.175    2.9489
   35.190    2.8857
   35.205    2.7383
   35.220    2.5908
   35.235    2.7383
   35.250    2.8120
   35.265    2.8963
   35.280    3.1069
   35.295    2.8331
   35.310    3.0858
   35.325    2.8752
   35.340    2.6435
   35.355    2.9279
   35.370    2.8436
   35.385    2.6751
   35.400    2.8857
   35.415    3.0332
   35.430    2.7909
   35.445    2.9279
   35.460    2.8857
   35.475    2.6330
   35.490    2.8647
   35.505    2.9068
   35.520    2.8647
   35.535    2.9384
   35.550    3.1385
   35.565    3.1385
   35.580    3.0332
   35.595    2.8120
   35.610    2.8015
   35.625    2.7804
   35.640    2.7172
   35.655    2.7278
   35.670    2.8857
   35.685    3.0226
   35.700    2.6330
   35.715    2.6962
   35.730    2.8647
   35.745    2.8120
   35.760    2.8015
   35.775    2.6646
   35.790    2.6014
   35.805    2.8015
   35.820    2.8225
   35.835    2.7909
   35.850    2.5803
   35.865    2.7804
   35.880    2.7278
   35.895    2.8015
   35.910    2.8015
   35.925    2.7909
   35.940    2.9700
   35.955    2.9068
   35.970    2.8541
   35.985    2.7699
   36.000    2.7067
   36.015    2.9595
   36.030    2.9805
   36.045    2.8857
   36.060    2.6435
   36.075    2.6646
   36.090    2.7383
   36.105    2.7699
   36.120    2.7699
   36.135    2.6962
   36.150    2.7909
   36.165    2.8647
   36.180    2.8752
   36.195    2.7593
   36.210    2.7172
   36.225    2.8963
   36.240    2.7593
   36.255    2.6646
   36.270    3.1280
   36.285    3.0016
   36.300    2.7488
   36.315    2.8225
   36.330    2.8331
   36.345    2.7383
   36.360    3.0121
   36.375    2.8436
   36.390    2.6856
   36.405    2.6962
   36.420    2.7172
   36.435    2.5908
   36.450    2.8541
   36.465    2.8541
   36.480    2.8120
   36.495    2.5592
   36.510    2.6435
   36.525    2.7699
   36.540    2.8541
   36.555    2.8015
   36.570    2.6646
   36.585    2.7699
   36.600    2.7172
   36.615    2.6540
   36.630    2.6856
   36.645    2.8120
   36.660    2.9279
   36.675    2.9595
   36.690    2.8857
   36.705    2.7699
   36.720    2.8436
   36.735    2.7067
   36.750    2.7067
   36.765    2.6856
   36.780    2.8647
   36.795    2.8647
   36.810    2.6224
   36.825    2.7488
   36.840    2.7067
   36.855    2.7909
   36.870    2.9489
   36.885    2.9068
   36.900    2.7488
   36.915    2.8120
   36.930    2.8015
   36.945    2.9489
   36.960    2.8752
   36.975    2.8120
   36.990    2.7278
   37.005    2.8752
   37.020    2.7383
   37.035    2.8541
   37.050    2.7699
   37.065    2.7804
   37.080    2.8331
   37.095    2.8647
   37.110    2.6962
   37.125    2.6751
   37.140    2.8331
   37.155    2.7383
   37.170    2.7172
   37.185    2.8120
   37.200    2.7593
   37.215    2.7172
   37.230    2.8015
   37.245    2.5908
   37.260    2.8857
   37.275    2.8015
   37.290    2.8331
   37.305    2.7804
   37.320    2.7909
   37.335    2.7593
   37.350    2.8015
   37.365    3.0648
   37.380    2.8225
   37.395    2.5698
   37.410    2.7278
   37.425    2.7278
   37.440    2.7593
   37.455    2.6962
   37.470    2.8436
   37.485    2.8436
   37.500    2.5487
   37.515    2.7067
   37.530    2.9595
   37.545    2.8120
   37.560    2.7488
   37.575    2.8225
   37.590    2.7172
   37.605    2.7067
   37.620    2.7909
   37.635    2.6962
   37.650    3.0332
   37.665    2.6751
   37.680    2.7909
   37.695    2.8015
   37.710    2.9279
   37.725    2.8120
   37.740    2.7488
   37.755    2.6751
   37.770    2.9489
   37.785    3.1385
   37.800    2.8647
   37.815    2.8015
   37.830    2.7278
   37.845    2.6751
   37.860    2.6119
   37.875    2.7804
   37.890    2.6646
   37.905    2.7278
   37.920    2.8015
   37.935    2.8120
   37.950    2.7383
   37.965    2.7383
   37.980    2.6330
   37.995    2.5698
   38.010    2.5171
   38.025    2.7909
   38.040    2.8015
   38.055    2.6119
   38.070    2.8647
   38.085    2.7593
   38.100    2.9910
   38.115    2.6540
   38.130    2.9173
   38.145    2.8857
   38.160    2.8647
   38.175    2.8752
   38.190    2.8963
   38.205    2.8752
   38.220    2.8541
   38.235    3.0332
   38.250    3.0648
   38.265    2.7909
   38.280    2.8541
   38.295    2.8752
   38.310    2.9068
   38.325    3.0226
   38.340    2.7383
   38.355    2.7699
   38.370    2.7383
   38.385    2.9173
   38.400    2.8647
   38.415    2.6540
   38.430    2.8752
   38.445    2.9700
   38.460    3.0753
   38.475    3.0753
   38.490    2.9384
   38.505    2.8963
   38.520    2.8541
   38.535    3.0542
   38.550    3.3491
   38.565    3.1701
   38.580    3.2965
   38.595    3.4755
   38.610    3.4860
   38.625    3.2543
   38.640    2.7593
   38.655    2.8647
   38.670    3.0121
   38.685    3.0016
   38.700    2.8331
   38.715    2.8120
   38.730    3.1490
   38.745    3.0332
   38.760    3.2649
   38.775    3.2649
   38.790    3.0858
   38.805    3.1806
   38.820    2.9279
   38.835    3.1174
   38.850    3.1385
   38.865    3.2965
   38.880    3.1701
   38.895    3.3913
   38.910    2.8963
   38.925    2.9068
   38.940    2.9384
   38.955    3.2017
   38.970    3.1069
   38.985    3.1912
   39.000    3.3702
   39.015    3.2122
   39.030    3.4439
   39.045    3.5703
   39.060    3.4123
   39.075    3.1385
   39.090    3.4334
   39.105    3.4860
   39.120    3.7177
   39.135    3.5387
   39.150    3.4755
   39.165    3.4334
   39.180    3.4334
   39.195    3.4860
   39.210    3.4018
   39.225    3.6335
   39.240    3.3070
   39.255    3.3070
   39.270    3.4650
   39.285    3.3913
   39.300    3.4439
   39.315    3.1596
   39.330    3.1174
   39.345    3.3281
   39.360    3.5176
   39.375    3.2965
   39.390    3.3597
   39.405    3.0964
   39.420    3.2649
   39.435    3.0964
   39.450    3.2017
   39.465    3.1280
   39.480    3.1806
   39.495    3.1701
   39.510    2.9173
   39.525    3.0121
   39.540    2.6856
   39.555    2.8752
   39.570    3.0226
   39.585    3.1806
   39.600    3.1174
   39.615    2.8120
   39.630    2.9805
   39.645    3.0226
   39.660    2.9910
   39.675    2.9595
   39.690    2.6751
   39.705    2.9805
   39.720    3.2649
   39.735    2.7804
   39.750    2.7172
   39.765    2.9700
   39.780    2.9173
   39.795    2.7278
   39.810    2.7804
   39.825    2.9173
   39.840    2.7488
   39.855    2.3170
   39.870    2.7172
   39.885    2.7067
   39.900    2.7278
   39.915    2.7278
   39.930    2.6119
   39.945    2.7699
   39.960    2.7172
   39.975    2.8857
   39.990    2.6856
