    1.500   14.2391
    1.515   14.0390
    1.530   14.4497
    1.545   14.3865
    1.560   14.3444
    1.575   15.0922
    1.590   14.1548
    1.605   14.7341
    1.620   14.6182
    1.635   14.3655
    1.650   14.1654
    1.665   14.0811
    1.680   14.0916
    1.695   13.9231
    1.710   14.5024
    1.725   14.3023
    1.740   13.6388
    1.755   14.2601
    1.770   14.0600
    1.785   14.3549
    1.800   14.4708
    1.815   14.5761
    1.830   14.7341
    1.845   14.4497
    1.860   14.4918
    1.875   14.7762
    1.890   14.2285
    1.905   14.1759
    1.920   14.3444
    1.935   14.7341
    1.950   14.6288
    1.965   15.0079
    1.980   14.7657
    1.995   14.3233
    2.010   14.9974
    2.025   15.9031
    2.040   15.3028
    2.055   15.5661
    2.070   15.7557
    2.085   16.3139
    2.100   16.5771
    2.115   15.8820
    2.130   15.7767
    2.145   16.2823
    2.160   15.9979
    2.175   16.6509
    2.190   16.8088
    2.205   17.0511
    2.220   17.4618
    2.235   16.8720
    2.250   16.9247
    2.265   17.8831
    2.280   18.4308
    2.295   18.1991
    2.310   18.1148
    2.325   18.4308
    2.340   18.9573
    2.355   19.5261
    2.370   19.7788
    2.385   19.0205
    2.400   19.7262
    2.415   20.2106
    2.430   20.5161
    2.445   20.9163
    2.460   21.1796
    2.475   20.8952
    2.490   21.4745
    2.505   22.2012
    2.520   22.6751
    2.535   23.5598
    2.550   23.8336
    2.565   23.7599
    2.580   23.9494
    2.595   24.2865
    2.610   25.0342
    2.625   24.9816
    2.640   26.3086
    2.655   26.2559
    2.670   27.5092
    2.685   28.2675
    2.700   28.3728
    2.715   28.5624
    2.730   29.5313
    2.745   29.4365
    2.760   30.8794
    2.775   31.9431
    2.790   32.1432
    2.805   34.0390
    2.820   34.3971
    2.835   33.8705
    2.850   34.5866
    2.865   36.2191
    2.880   37.0300
    2.895   38.5887
    2.910   38.8310
    2.925   39.3576
    2.940   41.4534
    2.955   43.8547
    2.970   44.7604
    2.985   44.8447
    3.000   45.8873
    3.015   47.0669
    3.030   48.8573
    3.045   51.3955
    3.060   53.7335
    3.075   55.1027
    3.090   55.9031
    3.105   58.0621
    3.120   60.6846
    3.135   61.8957
    3.150   65.5187
    3.165   68.1095
    3.180   69.9210
    3.195   73.4913
    3.210   77.6830
    3.225   81.2533
    3.240   83.5703
    3.255   86.8036
    3.270   91.8589
    3.285   97.5777
    3.300  101.7167
    3.315  106.8036
    3.330  113.1648
    3.345  120.4634
    3.360  127.2881
    3.375  134.6604
    3.390  142.4013
    3.405  150.7741
    3.420  157.6514
    3.435  159.9895
    3.450  160.8847
    3.465  154.4076
    3.480  145.7820
    3.495  131.9747
    3.510  117.1248
    3.525  102.9384
    3.540   93.2385
    3.555   84.6446
    3.570   78.1885
    3.585   72.1011
    3.600   68.6677
    3.615   66.6140
    3.630   67.7831
    3.645   67.3618
    3.660   67.8146
    3.675   69.6261
    3.690   71.3533
    3.705   72.1222
    3.720   75.8294
    3.735   79.2944
    3.750   82.0642
    3.765   85.7293
    3.780   89.7525
    3.795   93.2070
    3.810   96.2717
    3.825   99.6209
    3.840   99.6419
    3.855   99.1364
    3.870   98.4939
    3.885   95.6398
    3.900   92.4697
    3.915   86.1506
    3.930   79.1996
    3.945   72.9015
    3.960   65.2975
    3.975   57.1564
    3.990   51.2586
    4.005   45.3397
    4.020   40.0843
    4.035   35.5766
    4.050   30.8899
    4.065   26.9932
    4.080   24.8973
    4.095   23.0964
    4.110   21.0427
    4.125   18.9047
    4.140   17.5566
    4.155   16.0190
    4.170   15.0500
    4.185   14.4708
    4.200   13.6493
    4.215   12.2170
    4.230   11.8589
    4.245   11.6588
    4.260   11.0479
    4.275   10.5424
    4.290   10.5845
    4.305    9.7841
    4.320    9.1101
    4.335    9.5945
    4.350    9.4892
    4.365    8.8046
    4.380    8.8889
    4.395    8.6045
    4.410    8.2780
    4.425    8.0042
    4.440    8.1517
    4.455    7.8884
    4.470    7.5935
    4.485    7.7199
    4.500    7.2143
    4.515    7.5408
    4.530    7.2880
    4.545    7.4250
    4.560    7.4039
    4.575    6.9932
    4.590    7.3091
    4.605    6.9300
    4.620    6.6456
    4.635    6.8773
    4.650    6.8036
    4.665    6.6667
    4.680    6.6351
    4.695    6.4876
    4.710    6.9826
    4.725    6.6877
    4.740    6.3086
    4.755    6.5824
    4.770    6.4034
    4.785    6.5824
    4.800    6.6877
    4.815    6.6772
    4.830    6.3191
    4.845    6.7720
    4.860    6.5824
    4.875    6.4034
    4.890    6.4560
    4.905    6.4771
    4.920    6.1717
    4.935    6.2770
    4.950    6.1717
    4.965    6.2665
    4.980    6.7088
    4.995    6.5087
    5.010    6.3402
    5.025    6.4666
    5.040    6.2243
    5.055    6.3296
    5.070    6.3928
    5.085    6.3507
    5.100    6.3928
    5.115    6.3402
    5.130    6.6983
    5.145    6.3928
    5.160    6.3823
    5.175    6.3191
    5.190    6.5613
    5.205    6.6140
    5.220    6.4560
    5.235    6.2665
    5.250    6.3612
    5.265    6.4876
    5.280    6.3928
    5.295    6.3823
    5.310    6.2454
    5.325    6.0453
    5.340    6.1506
    5.355    5.7925
    5.370    6.0242
    5.385    5.9716
    5.400    6.3086
    5.415    5.9926
    5.430    5.8241
    5.445    5.8347
    5.460    5.7293
    5.475    5.4871
    5.490    5.8873
    5.505    5.7820
    5.520    5.7820
    5.535    5.8347
    5.550    5.6135
    5.565    6.0137
    5.580    5.9716
    5.595    5.5608
    5.610    5.6872
    5.625    5.9505
    5.640    5.8978
    5.655    6.0348
    5.670    5.3818
    5.685    5.7188
    5.700    5.7715
    5.715    6.0979
    5.730    5.6029
    5.745    5.6135
    5.760    5.7504
    5.775    5.6240
    5.790    5.6872
    5.805    5.9716
    5.820    5.9716
    5.835    5.3712
    5.850    5.5292
    5.865    5.7399
    5.880    5.4871
    5.895    5.2238
    5.910    5.4450
    5.925    5.9821
    5.940    6.0979
    5.955    5.6556
    5.970    5.7188
    5.985    5.7188
    6.000    5.5714
    6.015    5.3081
    6.030    5.2554
    6.045    5.7399
    6.060    5.8031
    6.075    6.0242
    6.090    5.8452
    6.105    5.7188
    6.120    5.6661
    6.135    5.9294
    6.150    5.4344
    6.165    5.6556
    6.180    6.0453
    6.195    5.9716
    6.210    5.9084
    6.225    6.1190
    6.240    5.9716
    6.255    6.5403
    6.270    6.6772
    6.285    6.1190
    6.300    6.7825
    6.315    6.7509
    6.330    6.6983
    6.345    6.6456
    6.360    6.7825
    6.375    6.4350
    6.390    7.2249
    6.405    7.1195
    6.420    7.1827
    6.435    7.3723
    6.450    7.2880
    6.465    7.7093
    6.480    7.8357
    6.495    8.1938
    6.510    7.9937
    6.525    8.2991
    6.540    8.3623
    6.555    8.7098
    6.570    9.1943
    6.585    8.8362
    6.600    9.2575
    6.615    9.9105
    6.630   10.5424
    6.645   10.6056
    6.660   10.9426
    6.675   11.2796
    6.690   12.0274
    6.705   12.6066
    6.720   12.9647
    6.735   14.2075
    6.750   14.2496
    6.765   14.6182
    6.780   15.8926
    6.795   17.1775
    6.810   18.4413
    6.825   20.0527
    6.840   20.1896
    6.855   21.1374
    6.870   23.4650
    6.885   24.8447
    6.900   26.3402
    6.915   25.9189
    6.930   27.4460
    6.945   26.7299
    6.960   26.2454
    6.975   24.0232
    6.990   22.1485
    7.005   20.4213
    7.020   17.9358
    7.035   16.0295
    7.050   13.7125
    7.065   12.5434
    7.080   11.4481
    7.095   10.4476
    7.110    9.5945
    7.125    9.2786
    7.140    8.3518
    7.155    8.2149
    7.170    8.4781
    7.185    8.1833
    7.200    8.0674
    7.215    7.9831
    7.230    7.8673
    7.245    7.9305
    7.260    7.7304
    7.275    8.0569
    7.290    7.6567
    7.305    8.2359
    7.320    8.1517
    7.335    8.0674
    7.350    8.4781
    7.365    8.3307
    7.380    8.5624
    7.395    8.8257
    7.410    9.0047
    7.425    8.8889
    7.440    9.0153
    7.455    9.7314
    7.470   10.2054
    7.485    9.8368
    7.500   10.3002
    7.515   11.1216
    7.530   11.0163
    7.545   11.6693
    7.560   12.3539
    7.575   13.0174
    7.590   13.0806
    7.605   14.0179
    7.620   15.0500
    7.635   15.6293
    7.650   15.8294
    7.665   16.2507
    7.680   17.1143
    7.695   17.8726
    7.710   19.0732
    7.725   19.7051
    7.740   20.6319
    7.755   20.5687
    7.770   21.3586
    7.785   21.2006
    7.800   21.0848
    7.815   19.9368
    7.830   19.6735
    7.845   19.4839
    7.860   18.6730
    7.875   17.8831
    7.890   17.7146
    7.905   16.7351
    7.920   16.0927
    7.935   14.6814
    7.950   13.6493
    7.965   12.6804
    7.980   12.1116
    7.995   11.3007
    8.010   10.5951
    8.025    9.7104
    8.040    9.4997
    8.055    8.8362
    8.070    8.4676
    8.085    8.9521
    8.100    8.2886
    8.115    7.4355
    8.130    7.7304
    8.145    7.6988
    8.160    7.3618
    8.175    6.8246
    8.190    6.6772
    8.205    6.4876
    8.220    6.5613
    8.235    6.3823
    8.250    6.2033
    8.265    6.2454
    8.280    6.2033
    8.295    6.0769
    8.310    6.0032
    8.325    5.9189
    8.340    5.9400
    8.355    5.8136
    8.370    5.4976
    8.385    5.8768
    8.400    5.7399
    8.415    5.5503
    8.430    5.0342
    8.445    5.8031
    8.460    5.8557
    8.475    5.0974
    8.490    5.3081
    8.505    5.0658
    8.520    5.1606
    8.535    5.5082
    8.550    5.5503
    8.565    5.8347
    8.580    5.4344
    8.595    5.5187
    8.610    5.3397
    8.625    4.9184
    8.640    4.9394
    8.655    4.8973
    8.670    5.2449
    8.685    5.2870
    8.700    5.2975
    8.715    5.0132
    8.730    5.2343
    8.745    5.1185
    8.760    5.0658
    8.775    5.2765
    8.790    5.0026
    8.805    4.8868
    8.820    5.1185
    8.835    5.1922
    8.850    5.0448
    8.865    5.2449
    8.880    5.2343
    8.895    5.0342
    8.910    5.1395
    8.925    4.7077
    8.940    4.7815
    8.955    4.9078
    8.970    4.8341
    8.985    4.9710
    9.000    5.0237
    9.015    5.1080
    9.030    5.1395
    9.045    5.3502
    9.060    4.8552
    9.075    5.2449
    9.090    5.2659
    9.105    4.8236
    9.120    4.7183
    9.135    5.1290
    9.150    5.0658
    9.165    5.0764
    9.180    5.0553
    9.195    4.7920
    9.210    5.0132
    9.225    5.0869
    9.240    4.9921
    9.255    4.7288
    9.270    4.4128
    9.285    4.9078
    9.300    4.7815
    9.315    4.9500
    9.330    4.8131
    9.345    4.8341
    9.360    4.9078
    9.375    4.9816
    9.390    4.8447
    9.405    4.7604
    9.420    4.8552
    9.435    4.7183
    9.450    4.6972
    9.465    4.8552
    9.480    5.0553
    9.495    4.9605
    9.510    4.9394
    9.525    4.6130
    9.540    4.9078
    9.555    4.9710
    9.570    4.8131
    9.585    4.9710
    9.600    5.0553
    9.615    4.8447
    9.630    4.7183
    9.645    4.5287
    9.660    5.0553
    9.675    4.9816
    9.690    4.9816
    9.705    4.7288
    9.720    4.8763
    9.735    4.6340
    9.750    4.8657
    9.765    5.0342
    9.780    4.8025
    9.795    4.7288
    9.810    5.0026
    9.825    4.9710
    9.840    4.8868
    9.855    4.9289
    9.870    4.9184
    9.885    4.6551
    9.900    4.8447
    9.915    4.7077
    9.930    4.7815
    9.945    4.9500
    9.960    5.1290
    9.975    5.0026
    9.990    4.5392
   10.005    4.9710
   10.020    4.6551
   10.035    5.1606
   10.050    4.9078
   10.065    4.8657
   10.080    5.0237
   10.095    5.1606
   10.110    4.9078
   10.125    4.8763
   10.140    4.8552
   10.155    4.8763
   10.170    4.7499
   10.185    4.8236
   10.200    4.9921
   10.215    5.0974
   10.230    5.0132
   10.245    5.0974
   10.260    5.0869
   10.275    4.8973
   10.290    4.7709
   10.305    5.0658
   10.320    5.0553
   10.335    5.0132
   10.350    5.3607
   10.365    5.0764
   10.380    5.3186
   10.395    5.3818
   10.410    5.4660
   10.425    5.4450
   10.440    5.1395
   10.455    5.3397
   10.470    5.0553
   10.485    5.3923
   10.500    5.5292
   10.515    5.2765
   10.530    5.0869
   10.545    4.9500
   10.560    4.7604
   10.575    5.1501
   10.590    5.0342
   10.605    5.0553
   10.620    5.2027
   10.635    5.0658
   10.650    5.0026
   10.665    4.9605
   10.680    4.8236
   10.695    5.1290
   10.710    4.8447
   10.725    4.7709
   10.740    5.2765
   10.755    4.8025
   10.770    5.0342
   10.785    4.7709
   10.800    4.7709
   10.815    4.5076
   10.830    4.8341
   10.845    4.8552
   10.860    5.0448
   10.875    5.0764
   10.890    4.9184
   10.905    4.6972
   10.920    4.8447
   10.935    4.8236
   10.950    4.8131
   10.965    4.6340
   10.980    5.0237
   10.995    5.1606
   11.010    5.0026
   11.025    4.9184
   11.040    5.0026
   11.055    4.8341
   11.070    5.1922
   11.085    5.0869
   11.100    4.8973
   11.115    4.9921
   11.130    5.0448
   11.145    5.1395
   11.160    5.1185
   11.175    4.8763
   11.190    4.7499
   11.205    4.9289
   11.220    5.3923
   11.235    4.8447
   11.250    5.1185
   11.265    4.8131
   11.280    5.0658
   11.295    5.2238
   11.310    5.4344
   11.325    5.1711
   11.340    5.3712
   11.355    5.5819
   11.370    5.5292
   11.385    5.3081
   11.400    5.3186
   11.415    5.2975
   11.430    5.6135
   11.445    5.3607
   11.460    5.3291
   11.475    5.4871
   11.490    5.3607
   11.505    5.9716
   11.520    5.9084
   11.535    5.9821
   11.550    6.1085
   11.565    6.1927
   11.580    5.8978
   11.595    6.4666
   11.610    6.1506
   11.625    6.4139
   11.640    6.4560
   11.655    6.1506
   11.670    6.6245
   11.685    6.4876
   11.700    6.2454
   11.715    6.2981
   11.730    6.6456
   11.745    6.4244
   11.760    6.6351
   11.775    6.5298
   11.790    6.6456
   11.805    6.4034
   11.820    6.2665
   11.835    6.3402
   11.850    6.0032
   11.865    6.1506
   11.880    6.3928
   11.895    5.8347
   11.910    5.8662
   11.925    5.8452
   11.940    6.0032
   11.955    5.9294
   11.970    5.3923
   11.985    5.5398
   12.000    5.6872
   12.015    5.2975
   12.030    5.1395
   12.045    5.1290
   12.060    5.4660
   12.075    5.0869
   12.090    5.0974
   12.105    5.2659
   12.120    5.2659
   12.135    4.9710
   12.150    5.2765
   12.165    5.3502
   12.180    5.2343
   12.195    5.2659
   12.210    5.3186
   12.225    5.2554
   12.240    5.4239
   12.255    5.2027
   12.270    5.0764
   12.285    5.0553
   12.300    5.3186
   12.315    5.1922
   12.330    4.7709
   12.345    5.0448
   12.360    5.1711
   12.375    5.3712
   12.390    5.3712
   12.405    5.1501
   12.420    5.6135
   12.435    5.3186
   12.450    4.9289
   12.465    4.8341
   12.480    4.8341
   12.495    4.7815
   12.510    5.0342
   12.525    5.3923
   12.540    5.6135
   12.555    5.3818
   12.570    4.9289
   12.585    5.0764
   12.600    5.0869
   12.615    5.0342
   12.630    5.3397
   12.645    5.3291
   12.660    5.2343
   12.675    5.2027
   12.690    5.1922
   12.705    5.0132
   12.720    5.3502
   12.735    5.1290
   12.750    5.4344
   12.765    5.0237
   12.780    5.2133
   12.795    5.2975
   12.810    5.1290
   12.825    4.9816
   12.840    5.3291
   12.855    5.0869
   12.870    4.9078
   12.885    5.2554
   12.900    5.0764
   12.915    5.2765
   12.930    5.2238
   12.945    5.3712
   12.960    5.3818
   12.975    5.1501
   12.990    5.1290
   13.005    5.3291
   13.020    5.3818
   13.035    5.1395
   13.050    5.0026
   13.065    5.1501
   13.080    5.0869
   13.095    5.2133
   13.110    4.9921
   13.125    5.0237
   13.140    5.2343
   13.155    5.3081
   13.170    5.2449
   13.185    5.2765
   13.200    5.6029
   13.215    5.5503
   13.230    5.4976
   13.245    5.1817
   13.260    5.1711
   13.275    5.5082
   13.290    5.3186
   13.305    5.2133
   13.320    5.3607
   13.335    5.1290
   13.350    5.3081
   13.365    5.4028
   13.380    5.0658
   13.395    5.3291
   13.410    5.1606
   13.425    5.1817
   13.440    5.1922
   13.455    5.4766
   13.470    5.5924
   13.485    5.1922
   13.500    5.1606
   13.515    5.0237
   13.530    5.4028
   13.545    5.3186
   13.560    5.3186
   13.575    5.1817
   13.590    4.8973
   13.605    4.9816
   13.620    5.1817
   13.635    5.1817
   13.650    5.1606
   13.665    4.9500
   13.680    5.0237
   13.695    5.1922
   13.710    4.8236
   13.725    5.0132
   13.740    4.9289
   13.755    4.9184
   13.770    4.8973
   13.785    4.8868
   13.800    5.0658
   13.815    4.7815
   13.830    4.8552
   13.845    4.8341
   13.860    4.9816
   13.875    4.5814
   13.890    4.9289
   13.905    4.8447
   13.920    4.9710
   13.935    4.7393
   13.950    4.9921
   13.965    4.8657
   13.980    5.0132
   13.995    4.6340
   14.010    5.2765
   14.025    4.9921
   14.040    4.6024
   14.055    4.6656
   14.070    4.8447
   14.085    4.9921
   14.100    4.9078
   14.115    5.0553
   14.130    5.0658
   14.145    4.8763
   14.160    4.9605
   14.175    4.9500
   14.190    4.8763
   14.205    4.7288
   14.220    4.6972
   14.235    4.6972
   14.250    4.6340
   14.265    4.6551
   14.280    4.9816
   14.295    5.1395
   14.310    4.6024
   14.325    4.4971
   14.340    4.8552
   14.355    5.0553
   14.370    5.3081
   14.385    5.0764
   14.400    4.6130
   14.415    4.7077
   14.430    4.9289
   14.445    4.7077
   14.460    4.8025
   14.475    4.7709
   14.490    4.9184
   14.505    4.6551
   14.520    4.8552
   14.535    4.9500
   14.550    4.5182
   14.565    4.7709
   14.580    4.6130
   14.595    4.8868
   14.610    5.3712
   14.625    4.9921
   14.640    4.9500
   14.655    4.8025
   14.670    4.7499
   14.685    4.8025
   14.700    5.0553
   14.715    4.4444
   14.730    4.8341
   14.745    4.9816
   14.760    4.9394
   14.775    4.8025
   14.790    4.8131
   14.805    4.7920
   14.820    5.0658
   14.835    4.9500
   14.850    4.7604
   14.865    5.2449
   14.880    4.9921
   14.895    4.9078
   14.910    4.8236
   14.925    5.1290
   14.940    5.0869
   14.955    5.1185
   14.970    4.8025
   14.985    4.9184
   15.000    5.0764
   15.015    5.1922
   15.030    5.1817
   15.045    5.2343
   15.060    4.9184
   15.075    5.4239
   15.090    4.9710
   15.105    4.9500
   15.120    4.9394
   15.135    5.1606
   15.150    5.0764
   15.165    4.8868
   15.180    5.1606
   15.195    5.2238
   15.210    5.2870
   15.225    5.3081
   15.240    5.3291
   15.255    5.1080
   15.270    5.0658
   15.285    5.3818
   15.300    5.5187
   15.315    5.2659
   15.330    5.0237
   15.345    5.1185
   15.360    4.7604
   15.375    4.8552
   15.390    5.2343
   15.405    5.3712
   15.420    5.3186
   15.435    5.2449
   15.450    5.0448
   15.465    5.4660
   15.480    5.6872
   15.495    5.8347
   15.510    5.4660
   15.525    5.2343
   15.540    5.2765
   15.555    5.4239
   15.570    5.7083
   15.585    5.3186
   15.600    5.3081
   15.615    5.4555
   15.630    5.5082
   15.645    5.4766
   15.660    5.2027
   15.675    5.2870
   15.690    5.5819
   15.705    5.6135
   15.720    5.3712
   15.735    5.6661
   15.750    5.2027
   15.765    5.2554
   15.780    5.0764
   15.795    5.1922
   15.810    4.7499
   15.825    4.9184
   15.840    5.0658
   15.855    5.2343
   15.870    5.2765
   15.885    4.9921
   15.900    4.7709
   15.915    4.7288
   15.930    4.9500
   15.945    4.9605
   15.960    4.8868
   15.975    4.9605
   15.990    5.0869
   16.005    4.9500
   16.020    4.8552
   16.035    5.1817
   16.050    4.6972
   16.065    5.0553
   16.080    4.6656
   16.095    4.8236
   16.110    4.8236
   16.125    4.8236
   16.140    4.6867
   16.155    4.8025
   16.170    4.6130
   16.185    4.7288
   16.200    4.8657
   16.215    4.6867
   16.230    4.8236
   16.245    4.6024
   16.260    4.5182
   16.275    5.0026
   16.290    4.6551
   16.305    4.4760
   16.320    4.8552
   16.335    4.5603
   16.350    4.7183
   16.365    4.7604
   16.380    4.8131
   16.395    5.0448
   16.410    5.1501
   16.425    4.9921
   16.440    4.9184
   16.455    4.9289
   16.470    4.7815
   16.485    4.8447
   16.500    4.8236
   16.515    4.7815
   16.530    4.8131
   16.545    4.5392
   16.560    4.8236
   16.575    4.6867
   16.590    4.8131
   16.605    4.7393
   16.620    5.4450
   16.635    5.0553
   16.650    4.7815
   16.665    4.8236
   16.680    5.0658
   16.695    4.8763
   16.710    4.6867
   16.725    5.0448
   16.740    4.6551
   16.755    4.7815
   16.770    4.6130
   16.785    4.4971
   16.800    4.7709
   16.815    4.9500
   16.830    4.5919
   16.845    4.7499
   16.860    4.9500
   16.875    4.6972
   16.890    5.0132
   16.905    5.1606
   16.920    4.7920
   16.935    4.8447
   16.950    4.9289
   16.965    4.6867
   16.980    4.6972
   16.995    4.6340
   17.010    4.6656
   17.025    4.6340
   17.040    4.8131
   17.055    4.9816
   17.070    5.0342
   17.085    4.9289
   17.100    4.5392
   17.115    4.9710
   17.130    4.7815
   17.145    4.7393
   17.160    4.9605
   17.175    5.0132
   17.190    4.9816
   17.205    5.1185
   17.220    5.2554
   17.235    5.3607
   17.250    5.2238
   17.265    4.8763
   17.280    4.7815
   17.295    4.9184
   17.310    4.9289
   17.325    5.0237
   17.340    4.8868
   17.355    4.8552
   17.370    5.0553
   17.385    4.9500
   17.400    5.0974
   17.415    5.1080
   17.430    4.8552
   17.445    5.2975
   17.460    5.4976
   17.475    5.1606
   17.490    5.2343
   17.505    5.3502
   17.520    5.2027
   17.535    5.3923
   17.550    5.1185
   17.565    5.2343
   17.580    5.1080
   17.595    5.1185
   17.610    5.1711
   17.625    5.2027
   17.640    5.1501
   17.655    4.9816
   17.670    5.0553
   17.685    4.8763
   17.700    5.3923
   17.715    5.4344
   17.730    4.9078
   17.745    5.0974
   17.760    5.3712
   17.775    5.2027
   17.790    5.2027
   17.805    5.2765
   17.820    5.6977
   17.835    5.4450
   17.850    5.2238
   17.865    5.1606
   17.880    5.3712
   17.895    5.2870
   17.910    5.3397
   17.925    5.2238
   17.940    5.3291
   17.955    4.9710
   17.970    4.9816
   17.985    5.3607
   18.000    5.4239
   18.015    5.2659
   18.030    4.9710
   18.045    5.2449
   18.060    4.9816
   18.075    5.1290
   18.090    5.1185
   18.105    4.9921
   18.120    4.8341
   18.135    5.0132
   18.150    4.9816
   18.165    5.2027
   18.180    5.0448
   18.195    4.9816
   18.210    5.2449
   18.225    5.3291
   18.240    4.9500
   18.255    5.0026
   18.270    5.1501
   18.285    5.0658
   18.300    4.9394
   18.315    4.7920
   18.330    4.9816
   18.345    4.9921
   18.360    4.9500
   18.375    4.8131
   18.390    4.7920
   18.405    4.7920
   18.420    5.1290
   18.435    5.1395
   18.450    5.3186
   18.465    5.0132
   18.480    5.2975
   18.495    5.2870
   18.510    5.2027
   18.525    5.2133
   18.540    5.1185
   18.555    5.2554
   18.570    4.9184
   18.585    4.9184
   18.600    4.8657
   18.615    5.0026
   18.630    5.0974
   18.645    4.8447
   18.660    5.2238
   18.675    5.0448
   18.690    5.1080
   18.705    4.7709
   18.720    4.9184
   18.735    4.9289
   18.750    4.8657
   18.765    4.9921
   18.780    5.0553
   18.795    5.3712
   18.810    5.4450
   18.825    5.0026
   18.840    5.5714
   18.855    5.1080
   18.870    4.9816
   18.885    5.0764
   18.900    4.9921
   18.915    4.9289
   18.930    4.7604
   18.945    4.6761
   18.960    5.1185
   18.975    4.9289
   18.990    4.8025
   19.005    5.1290
   19.020    5.2449
   19.035    4.9289
   19.050    5.3818
   19.065    5.1185
   19.080    5.1395
   19.095    5.3397
   19.110    5.1395
   19.125    5.1501
   19.140    4.8657
   19.155    4.9921
   19.170    4.7499
   19.185    5.0974
   19.200    5.1817
   19.215    5.1501
   19.230    5.2765
   19.245    5.1817
   19.260    5.4344
   19.275    5.2554
   19.290    5.0869
   19.305    5.4976
   19.320    5.5292
   19.335    5.1711
   19.350    5.4660
   19.365    5.0553
   19.380    5.2133
   19.395    5.3818
   19.410    5.2975
   19.425    5.1711
   19.440    4.8236
   19.455    5.0974
   19.470    5.3818
   19.485    5.4660
   19.500    5.5503
   19.515    5.2975
   19.530    5.2765
   19.545    5.2449
   19.560    5.3607
   19.575    5.3712
   19.590    5.4344
   19.605    4.9710
   19.620    5.1606
   19.635    5.4134
   19.650    5.6451
   19.665    5.6240
   19.680    5.7293
   19.695    5.3607
   19.710    5.5398
   19.725    5.5187
   19.740    5.0237
   19.755    5.2449
   19.770    5.3397
   19.785    5.3818
   19.800    5.1395
   19.815    5.3607
   19.830    5.3818
   19.845    5.4344
   19.860    5.3712
   19.875    5.6451
   19.890    5.5608
   19.905    5.4028
   19.920    5.7083
   19.935    6.0558
   19.950    5.6135
   19.965    5.5082
   19.980    5.7609
   19.995    5.7504
   20.010    5.9610
   20.025    5.9189
   20.040    5.9189
   20.055    5.5398
   20.070    5.6240
   20.085    5.7399
   20.100    5.5819
   20.115    5.6661
   20.130    5.7925
   20.145    5.9189
   20.160    5.7188
   20.175    5.9294
   20.190    5.7925
   20.205    5.8557
   20.220    5.7609
   20.235    5.6029
   20.250    5.8873
   20.265    5.6977
   20.280    6.2665
   20.295    6.0453
   20.310    5.7188
   20.325    6.0242
   20.340    5.8557
   20.355    5.9926
   20.370    5.6661
   20.385    5.4660
   20.400    5.8452
   20.415    5.4450
   20.430    5.5924
   20.445    5.6556
   20.460    5.7399
   20.475    5.8768
   20.490    5.5714
   20.505    5.8031
   20.520    5.6661
   20.535    5.8031
   20.550    5.7715
   20.565    6.0979
   20.580    5.6872
   20.595    5.6661
   20.610    5.5187
   20.625    5.7188
   20.640    5.8662
   20.655    5.4976
   20.670    5.5714
   20.685    5.7399
   20.700    5.8557
   20.715    5.7399
   20.730    5.7293
   20.745    5.6029
   20.760    6.0453
   20.775    6.1506
   20.790    5.7504
   20.805    5.6029
   20.820    5.7504
   20.835    6.0137
   20.850    6.2454
   20.865    5.9505
   20.880    6.1190
   20.895    6.4560
   20.910    6.2665
   20.925    6.1190
   20.940    6.0769
   20.955    6.3612
   20.970    6.2033
   20.985    6.1401
   21.000    6.1085
   21.015    5.8662
   21.030    5.9716
   21.045    6.2875
   21.060    6.1085
   21.075    6.3296
   21.090    6.4139
   21.105    6.5508
   21.120    6.2138
   21.135    6.0664
   21.150    5.9821
   21.165    5.8662
   21.180    6.3296
   21.195    6.1295
   21.210    6.0874
   21.225    5.7188
   21.240    5.7504
   21.255    5.7925
   21.270    5.9926
   21.285    5.8768
   21.300    5.5187
   21.315    5.7083
   21.330    6.1506
   21.345    6.1190
   21.360    6.1190
   21.375    6.0137
   21.390    5.8136
   21.405    5.7188
   21.420    5.7820
   21.435    5.7715
   21.450    5.7609
   21.465    5.6451
   21.480    5.3818
   21.495    6.1295
   21.510    5.8031
   21.525    5.8347
   21.540    5.6345
   21.555    6.0979
   21.570    5.6661
   21.585    5.7188
   21.600    5.8557
   21.615    6.0979
   21.630    5.8452
   21.645    5.8031
   21.660    5.5503
   21.675    6.0032
   21.690    5.9821
   21.705    5.9716
   21.720    5.8136
   21.735    5.9716
   21.750    5.6029
   21.765    5.5608
   21.780    5.6977
   21.795    5.6451
   21.810    5.8662
   21.825    5.7188
   21.840    5.7925
   21.855    5.8136
   21.870    5.8031
   21.885    5.2449
   21.900    5.5398
   21.915    5.5503
   21.930    6.0664
   21.945    5.8452
   21.960    5.8768
   21.975    5.8031
   21.990    5.6345
   22.005    5.5924
   22.020    5.8768
   22.035    5.8031
   22.050    5.6767
   22.065    5.7504
   22.080    5.9505
   22.095    5.9610
   22.110    6.3402
   22.125    5.7293
   22.140    5.6029
   22.155    5.8031
   22.170    5.5924
   22.185    5.7293
   22.200    6.1190
   22.215    5.9610
   22.230    6.1927
   22.245    6.2770
   22.260    5.7504
   22.275    5.8452
   22.290    5.9400
   22.305    5.9610
   22.320    5.6872
   22.335    5.9716
   22.350    5.8768
   22.365    5.8978
   22.380    5.9294
   22.395    6.0242
   22.410    6.2349
   22.425    6.0664
   22.440    5.7925
   22.455    5.9821
   22.470    6.2243
   22.485    6.3612
   22.500    6.1085
   22.515    5.8452
   22.530    6.4244
   22.545    6.2981
   22.560    6.0032
   22.575    6.0242
   22.590    5.9821
   22.605    5.7293
   22.620    6.2243
   22.635    6.2665
   22.650    6.3928
   22.665    6.1506
   22.680    6.0664
   22.695    6.2454
   22.710    6.1401
   22.725    5.9294
   22.740    6.3718
   22.755    6.5298
   22.770    6.3507
   22.785    5.9926
   22.800    6.1822
   22.815    6.1717
   22.830    6.2349
   22.845    6.0453
   22.860    6.3402
   22.875    6.1611
   22.890    6.3718
   22.905    6.0664
   22.920    6.0979
   22.935    6.3191
   22.950    6.1190
   22.965    6.4244
   22.980    6.3928
   22.995    5.9926
   23.010    6.0032
   23.025    6.0769
   23.040    5.6135
   23.055    5.9084
   23.070    5.9400
   23.085    5.9189
   23.100    6.1611
   23.115    5.5608
   23.130    5.6029
   23.145    5.7715
   23.160    5.7609
   23.175    5.8136
   23.190    5.7188
   23.205    5.4239
   23.220    5.3502
   23.235    5.4660
   23.250    5.8557
   23.265    5.6872
   23.280    5.9716
   23.295    5.6240
   23.310    5.4660
   23.325    5.5292
   23.340    5.6977
   23.355    5.4766
   23.370    5.4028
   23.385    5.6135
   23.400    5.4028
   23.415    5.3081
   23.430    5.1080
   23.445    5.2659
   23.460    5.4028
   23.475    5.3712
   23.490    5.4976
   23.505    5.5819
   23.520    5.3818
   23.535    4.9921
   23.550    5.5819
   23.565    5.4976
   23.580    5.5819
   23.595    5.8557
   23.610    5.5082
   23.625    5.2027
   23.640    5.4028
   23.655    5.5292
   23.670    5.6135
   23.685    5.3923
   23.700    5.4134
   23.715    5.5398
   23.730    5.2133
   23.745    5.7083
   23.760    5.3818
   23.775    5.3818
   23.790    5.2765
   23.805    5.2449
   23.820    5.4976
   23.835    5.6767
   23.850    5.4976
   23.865    5.4766
   23.880    5.3818
   23.895    5.6767
   23.910    5.4555
   23.925    5.4766
   23.940    5.6767
   23.955    5.1501
   23.970    5.8452
   23.985    5.5714
   24.000    5.4239
   24.015    5.8241
   24.030    5.4660
   24.045    5.3397
   24.060    5.5819
   24.075    5.4028
   24.090    5.4871
   24.105    5.5082
   24.120    5.3923
   24.135    5.6345
   24.150    5.6872
   24.165    5.7715
   24.180    5.5819
   24.195    5.0132
   24.210    5.3712
   24.225    5.1711
   24.240    5.1395
   24.255    5.5398
   24.270    5.6767
   24.285    5.4239
   24.300    5.3081
   24.315    5.2975
   24.330    5.5187
   24.345    5.8873
   24.360    5.2975
   24.375    5.2449
   24.390    5.4344
   24.405    5.7399
   24.420    5.8452
   24.435    5.6029
   24.450    5.7293
   24.465    6.0348
   24.480    5.7293
   24.495    5.8978
   24.510    5.6661
   24.525    5.6872
   24.540    5.8136
   24.555    5.6872
   24.570    5.1395
   24.585    5.5398
   24.600    5.6767
   24.615    5.4344
   24.630    5.7925
   24.645    6.0137
   24.660    5.7715
   24.675    5.6135
   24.690    5.4660
   24.705    5.3712
   24.720    5.3081
   24.735    5.6872
   24.750    5.4976
   24.765    5.5187
   24.780    5.4660
   24.795    5.3818
   24.810    5.4450
   24.825    5.3712
   24.840    5.3712
   24.855    5.5714
   24.870    5.6451
   24.885    5.8452
   24.900    5.5714
   24.915    5.5082
   24.930    5.4134
   24.945    5.2554
   24.960    5.5398
   24.975    5.1606
   24.990    5.3502
   25.005    5.5503
   25.020    5.3818
   25.035    5.5082
   25.050    5.0974
   25.065    5.1606
   25.080    5.1080
   25.095    4.9394
   25.110    4.9816
   25.125    5.1080
   25.140    5.2238
   25.155    5.2027
   25.170    5.0342
   25.185    5.1290
   25.200    5.1922
   25.215    5.1290
   25.230    4.7183
   25.245    4.8973
   25.260    5.2975
   25.275    4.9078
   25.290    5.1395
   25.305    5.3081
   25.320    5.1185
   25.335    4.8868
   25.350    4.7393
   25.365    4.9184
   25.380    5.1185
   25.395    5.3923
   25.410    5.3291
   25.425    5.0764
   25.440    4.9184
   25.455    5.0869
   25.470    4.9921
   25.485    4.8341
   25.500    5.0658
   25.515    5.0869
   25.530    5.0342
   25.545    4.7604
   25.560    4.8973
   25.575    5.0132
   25.590    4.8973
   25.605    5.2975
   25.620    5.2343
   25.635    4.7499
   25.650    4.8447
   25.665    4.6972
   25.680    5.0448
   25.695    4.8973
   25.710    4.8973
   25.725    4.9605
   25.740    4.7815
   25.755    4.8552
   25.770    4.8447
   25.785    4.6972
   25.800    5.0237
   25.815    4.7815
   25.830    4.7288
   25.845    5.0237
   25.860    4.8236
   25.875    4.9921
   25.890    4.7709
   25.905    4.9816
   25.920    4.9605
   25.935    4.6130
   25.950    4.7393
   25.965    4.8447
   25.980    4.8552
   25.995    4.7393
   26.010    4.8552
   26.025    5.0764
   26.040    4.9921
   26.055    4.8657
   26.070    4.8131
   26.085    4.8447
   26.100    5.3397
   26.115    5.4028
   26.130    4.7709
   26.145    5.1080
   26.160    4.8341
   26.175    5.0342
   26.190    5.0237
   26.205    5.0132
   26.220    4.9710
   26.235    5.0342
   26.250    5.1290
   26.265    4.9289
   26.280    4.9710
   26.295    5.1501
   26.310    4.8763
   26.325    4.5919
   26.340    4.9394
   26.355    4.9710
   26.370    5.0448
   26.385    4.9078
   26.400    4.8025
   26.415    5.2343
   26.430    5.1185
   26.445    5.0342
   26.460    5.3607
   26.475    5.1711
   26.490    4.8131
   26.505    4.7499
   26.520    4.7499
   26.535    4.9605
   26.550    4.9078
   26.565    4.8657
   26.580    5.1606
   26.595    5.3291
   26.610    5.0974
   26.625    4.9921
   26.640    4.9605
   26.655    4.6656
   26.670    4.9184
   26.685    4.9816
   26.700    4.9816
   26.715    4.9605
   26.730    5.1606
   26.745    5.1290
   26.760    4.5498
   26.775    4.8447
   26.790    4.7183
   26.805    4.7288
   26.820    4.8657
   26.835    4.7709
   26.850    4.8552
   26.865    4.9394
   26.880    4.8657
   26.895    5.0026
   26.910    5.0448
   26.925    4.9289
   26.940    5.1290
   26.955    5.2343
   26.970    4.8973
   26.985    4.4655
   27.000    4.4760
   27.015    4.9921
   27.030    4.8552
   27.045    4.6130
   27.060    4.6130
   27.075    4.7077
   27.090    4.5708
   27.105    4.9184
   27.120    5.0448
   27.135    5.0237
   27.150    5.0132
   27.165    4.9078
   27.180    5.0869
   27.195    4.7815
   27.210    4.7499
   27.225    4.9078
   27.240    4.5392
   27.255    4.6445
   27.270    4.8973
   27.285    4.8868
   27.300    4.7288
   27.315    4.5498
   27.330    4.9289
   27.345    4.7183
   27.360    5.2133
   27.375    5.1711
   27.390    5.0553
   27.405    4.6972
   27.420    4.9710
   27.435    4.6024
   27.450    4.8657
   27.465    5.0658
   27.480    4.9921
   27.495    4.5814
   27.510    4.5814
   27.525    4.7815
   27.540    4.8973
   27.555    4.7288
   27.570    4.8447
   27.585    4.7288
   27.600    4.6972
   27.615    4.9605
   27.630    5.0764
   27.645    4.6551
   27.660    4.8236
   27.675    4.6024
   27.690    4.7604
   27.705    4.5076
   27.720    4.7288
   27.735    4.9605
   27.750    5.0764
   27.765    4.9605
   27.780    4.4760
   27.795    4.5814
   27.810    4.4550
   27.825    4.7183
   27.840    4.4444
   27.855    4.6235
   27.870    4.6656
   27.885    4.6445
   27.900    4.8447
   27.915    4.9710
   27.930    4.7920
   27.945    4.9605
   27.960    4.7499
   27.975    4.5392
   27.990    4.4128
   28.005    4.6130
   28.020    4.8552
   28.035    4.8447
   28.050    4.8868
   28.065    4.7183
   28.080    4.7604
   28.095    4.7183
   28.110    4.6867
   28.125    4.7920
   28.140    4.8025
   28.155    5.2238
   28.170    5.2238
   28.185    4.8341
   28.200    4.9816
   28.215    4.8868
   28.230    4.6551
   28.245    4.8552
   28.260    4.7920
   28.275    4.9816
   28.290    4.7920
   28.305    4.7288
   28.320    4.8025
   28.335    4.6972
   28.350    4.7604
   28.365    4.7709
   28.380    4.9078
   28.395    4.8973
   28.410    4.7499
   28.425    4.4234
   28.440    4.6340
   28.455    4.6024
   28.470    4.6656
   28.485    4.6340
   28.500    4.2865
   28.515    4.3602
   28.530    4.6445
   28.545    4.4866
   28.560    4.3602
   28.575    4.4655
   28.590    4.6130
   28.605    4.5603
   28.620    4.8973
   28.635    4.3918
   28.650    4.6761
   28.665    4.5498
   28.680    4.2022
   28.695    4.1811
   28.710    4.3918
   28.725    4.6445
   28.740    4.6130
   28.755    4.7709
   28.770    4.6656
   28.785    4.6551
   28.800    4.7077
   28.815    4.7393
   28.830    4.5919
   28.845    4.4234
   28.860    4.3075
   28.875    4.2338
   28.890    4.4550
   28.905    4.6972
   28.920    4.3181
   28.935    4.5182
   28.950    4.5287
   28.965    4.5287
   28.980    4.7920
   28.995    4.4655
   29.010    4.5919
   29.025    4.4444
   29.040    4.4339
   29.055    4.5498
   29.070    4.4971
   29.085    4.2127
   29.100    4.6551
   29.115    4.6656
   29.130    4.5708
   29.145    4.4866
   29.160    4.5392
   29.175    4.4655
   29.190    4.6656
   29.205    4.6130
   29.220    4.6761
   29.235    4.5076
   29.250    4.4444
   29.265    4.4339
   29.280    4.8236
   29.295    4.4971
   29.310    4.4971
   29.325    4.5603
   29.340    4.3391
   29.355    4.6656
   29.370    4.2865
   29.385    4.4760
   29.400    4.4655
   29.415    4.4760
   29.430    4.5919
   29.445    4.6551
   29.460    4.8657
   29.475    4.5287
   29.490    4.4234
   29.505    4.3497
   29.520    4.2233
   29.535    4.6445
   29.550    4.6130
   29.565    4.4760
   29.580    4.6867
   29.595    4.4971
   29.610    4.6656
   29.625    4.5498
   29.640    4.3813
   29.655    4.5498
   29.670    4.2654
   29.685    4.1811
   29.700    4.4234
   29.715    4.6130
   29.730    4.4444
   29.745    4.3707
   29.760    4.3391
   29.775    4.5814
   29.790    4.4128
   29.805    4.6867
   29.820    4.4444
   29.835    4.5603
   29.850    4.4550
   29.865    4.2654
   29.880    4.4655
   29.895    4.7815
   29.910    4.2865
   29.925    4.4444
   29.940    4.4550
   29.955    4.6551
   29.970    4.8973
   29.985    4.3497
   30.000    4.3181
   30.015    4.2865
   30.030    4.1496
   30.045    4.2865
   30.060    4.2127
   30.075    4.4655
   30.090    4.1706
   30.105    4.0442
   30.120    4.2443
   30.135    4.4866
   30.150    4.5603
   30.165    4.2970
   30.180    4.3602
   30.195    4.7077
   30.210    4.5498
   30.225    4.5287
   30.240    4.4655
   30.255    4.3707
   30.270    4.3497
   30.285    4.2865
   30.300    4.5498
   30.315    4.3707
   30.330    4.1706
   30.345    4.4550
   30.360    4.3707
   30.375    4.3075
   30.390    4.3497
   30.405    4.2127
   30.420    4.4550
   30.435    4.3707
   30.450    4.1811
   30.465    4.1917
   30.480    4.5076
   30.495    4.3918
   30.510    4.4971
   30.525    4.3602
   30.540    4.4339
   30.555    4.4550
   30.570    4.1917
   30.585    4.3181
   30.600    4.3497
   30.615    4.4550
   30.630    4.7288
   30.645    4.5603
   30.660    4.1917
   30.675    4.4655
   30.690    4.1917
   30.705    4.1917
   30.720    4.2443
   30.735    4.2865
   30.750    4.1811
   30.765    4.4339
   30.780    4.3286
   30.795    4.5708
   30.810    4.7077
   30.825    4.4023
   30.840    4.1601
   30.855    4.3602
   30.870    4.4023
   30.885    4.4655
   30.900    4.6972
   30.915    4.4339
   30.930    4.1496
   30.945    4.4444
   30.960    3.9705
   30.975    4.0442
   30.990    4.3181
   31.005    4.1390
   31.020    4.4866
   31.035    4.2759
   31.050    4.4234
   31.065    4.3813
   31.080    4.2127
   31.095    4.2865
   31.110    4.2022
   31.125    4.3813
   31.140    4.2654
   31.155    4.4128
   31.170    4.7604
   31.185    4.4023
   31.200    4.3181
   31.215    4.1285
   31.230    4.4023
   31.245    4.5392
   31.260    4.6130
   31.275    4.4550
   31.290    4.2443
   31.305    3.9389
   31.320    4.0337
   31.335    4.1074
   31.350    4.1496
   31.365    4.1917
   31.380    4.2970
   31.395    4.1390
   31.410    4.0969
   31.425    4.1706
   31.440    4.2865
   31.455    4.2549
   31.470    4.6867
   31.485    4.5814
   31.500    4.5498
   31.515    4.4023
   31.530    4.1601
   31.545    4.3391
   31.560    4.5498
   31.575    4.5076
   31.590    4.5182
   31.605    4.2549
   31.620    4.6130
   31.635    4.5287
   31.650    4.4760
   31.665    4.5076
   31.680    4.5392
   31.695    4.3813
   31.710    4.1706
   31.725    4.2443
   31.740    4.2549
   31.755    4.1917
   31.770    4.3707
   31.785    4.3286
   31.800    4.3602
   31.815    4.4760
   31.830    4.4760
   31.845    4.1917
   31.860    4.4023
   31.875    4.3075
   31.890    4.0969
   31.905    4.2865
   31.920    4.2127
   31.935    4.3181
   31.950    4.6340
   31.965    4.1917
   31.980    4.0337
   31.995    4.5287
   32.010    4.2970
   32.025    4.2759
   32.040    4.2759
   32.055    4.4655
   32.070    3.9494
   32.085    4.0021
   32.100    4.4655
   32.115    4.7077
   32.130    4.1390
   32.145    4.0021
   32.160    4.2022
   32.175    4.5182
   32.190    4.4760
   32.205    4.3918
   32.220    4.1601
   32.235    4.2127
   32.250    4.3602
   32.265    4.3497
   32.280    4.2865
   32.295    4.0969
   32.310    4.1706
   32.325    4.1601
   32.340    4.0969
   32.355    3.9179
   32.370    4.1601
   32.385    4.0653
   32.400    4.3918
   32.415    4.2970
   32.430    4.7604
   32.445    4.1074
   32.460    4.0232
   32.475    4.3075
   32.490    4.1496
   32.505    4.4444
   32.520    4.0442
   32.535    3.7915
   32.550    3.9284
   32.565    4.2338
   32.580    4.2443
   32.595    3.8968
   32.610    3.8336
   32.625    3.8757
   32.640    4.0021
   32.655    4.1180
   32.670    3.9916
   32.685    3.7283
   32.700    4.0442
   32.715    4.1917
   32.730    3.8968
   32.745    4.1180
   32.760    4.2549
   32.775    4.0758
   32.790    4.2549
   32.805    3.8968
   32.820    3.9705
   32.835    4.0864
   32.850    3.8231
   32.865    3.9916
   32.880    4.0969
   32.895    3.9705
   32.910    3.7809
   32.925    3.7599
   32.940    3.6756
   32.955    3.9916
   32.970    4.4550
   32.985    4.0442
   33.000    4.2233
   33.015    4.0653
   33.030    4.3391
   33.045    4.0653
   33.060    3.6967
   33.075    3.9916
   33.090    3.9389
   33.105    3.8968
   33.120    4.1180
   33.135    3.9073
   33.150    3.8125
   33.165    4.1074
   33.180    3.8968
   33.195    3.8125
   33.210    3.8441
   33.225    3.9916
   33.240    3.9705
   33.255    4.2338
   33.270    3.8020
   33.285    3.9284
   33.300    4.2233
   33.315    3.9073
   33.330    3.9073
   33.345    3.9600
   33.360    4.0758
   33.375    3.9284
   33.390    4.1180
   33.405    4.0337
   33.420    4.3075
   33.435    4.1285
   33.450    4.0126
   33.465    3.9389
   33.480    3.9600
   33.495    3.5492
   33.510    3.9179
   33.525    3.9073
   33.540    3.8968
   33.555    3.7809
   33.570    3.9600
   33.585    3.9179
   33.600    4.1706
   33.615    3.9494
   33.630    4.1180
   33.645    3.9916
   33.660    4.0548
   33.675    4.2127
   33.690    3.9600
   33.705    4.2549
   33.720    3.9389
   33.735    3.6756
   33.750    3.7388
   33.765    3.8020
   33.780    3.8757
   33.795    4.0442
   33.810    4.0653
   33.825    3.9705
   33.840    3.8441
   33.855    3.8336
   33.870    3.8757
   33.885    3.7283
   33.900    3.6230
   33.915    3.9284
   33.930    3.8125
   33.945    3.6756
   33.960    3.9389
   33.975    3.8547
   33.990    3.7809
   34.005    3.9389
   34.020    3.6335
   34.035    3.7809
   34.050    3.8968
   34.065    3.9494
   34.080    3.4966
   34.095    3.6019
   34.110    3.7809
   34.125    3.6124
   34.140    3.5703
   34.155    3.5703
   34.170    3.7809
   34.185    3.8863
   34.200    3.9916
   34.215    3.7599
   34.230    3.8757
   34.245    4.0232
   34.260    3.6440
   34.275    3.5492
   34.290    3.7283
   34.305    3.8757
   34.320    3.8863
   34.335    3.8968
   34.350    3.5914
   34.365    3.3913
   34.380    3.4018
   34.395    3.5808
   34.410    3.8336
   34.425    3.6756
   34.440    3.9389
   34.455    3.8547
   34.470    3.6756
   34.485    3.8547
   34.500    3.5387
   34.515    3.8968
   34.530    3.6230
   34.545    3.4650
   34.560    3.6651
   34.575    3.9179
   34.590    3.6862
   34.605    3.9179
   34.620    3.8020
   34.635    3.8020
   34.650    3.7388
   34.665    3.5914
   34.680    3.7177
   34.695    3.6756
   34.710    4.0021
   34.725    3.8441
   34.740    3.8020
   34.755    3.7599
   34.770    3.7809
   34.785    3.8020
   34.800    3.7388
   34.815    3.7072
   34.830    3.4544
   34.845    3.6862
   34.860    3.8125
   34.875    3.7493
   34.890    3.5598
   34.905    3.8757
   34.920    3.1806
   34.935    3.4860
   34.950    3.5808
   34.965    3.7072
   34.980    3.5703
   34.995    3.9073
   35.010    3.7177
   35.025    3.6651
   35.040    3.4755
   35.055    3.6440
   35.070    3.6335
   35.085    3.4018
   35.100    3.1912
   35.115    3.8020
   35.130    3.7493
   35.145    3.7493
   35.160    3.7493
   35.175    3.8863
   35.190    3.6019
   35.205    3.4650
   35.220    3.7177
   35.235    3.7388
   35.250    3.5598
   35.265    3.5808
   35.280    3.6230
   35.295    3.5598
   35.310    3.8968
   35.325    3.8125
   35.340    3.7177
   35.355    3.6440
   35.370    3.7599
   35.385    3.7283
   35.400    3.6862
   35.415    3.8863
   35.430    3.7704
   35.445    3.7388
   35.460    3.6230
   35.475    3.6967
   35.490    3.5282
   35.505    3.4755
   35.520    3.4966
   35.535    3.7915
   35.550    4.0337
   35.565    3.6756
   35.580    3.5071
   35.595    3.3491
   35.610    3.6862
   35.625    3.4123
   35.640    3.5914
   35.655    3.5914
   35.670    3.4755
   35.685    3.4966
   35.700    3.7283
   35.715    3.4439
   35.730    3.4650
   35.745    3.7493
   35.760    3.7072
   35.775    3.5598
   35.790    3.4439
   35.805    3.3807
   35.820    3.4650
   35.835    3.6335
   35.850    3.5914
   35.865    3.5914
   35.880    3.5387
   35.895    3.3807
   35.910    3.3597
   35.925    3.5492
   35.940    3.8020
   35.955    3.8231
   35.970    3.3597
   35.985    3.4966
   36.000    3.7809
   36.015    3.7599
   36.030    3.7177
   36.045    3.6440
   36.060    3.5176
   36.075    3.5387
   36.090    3.7072
   36.105    3.4544
   36.120    3.5808
   36.135    3.6862
   36.150    3.6230
   36.165    3.5387
   36.180    3.4018
   36.195    3.4439
   36.210    3.5598
   36.225    3.6019
   36.240    3.6124
   36.255    3.5071
   36.270    3.7915
   36.285    3.6124
   36.300    3.9179
   36.315    3.6651
   36.330    3.5176
   36.345    3.4755
   36.360    3.6124
   36.375    3.7704
   36.390    3.8336
   36.405    3.5282
   36.420    3.7809
   36.435    3.6651
   36.450    3.6546
   36.465    3.5387
   36.480    3.4966
   36.495    3.7177
   36.510    3.6862
   36.525    3.5598
   36.540    3.6756
   36.555    3.5282
   36.570    3.6019
   36.585    3.8441
   36.600    3.6756
   36.615    3.6546
   36.630    3.5808
   36.645    3.4334
   36.660    3.6546
   36.675    3.7493
   36.690    3.4860
   36.705    3.1912
   36.720    3.7072
   36.735    3.6230
   36.750    3.4650
   36.765    3.6756
   36.780    3.3913
   36.795    3.3597
   36.810    3.4439
   36.825    3.6019
   36.840    3.4439
   36.855    3.3070
   36.870    3.3386
   36.885    3.2227
   36.900    3.5598
   36.915    3.3913
   36.930    3.2438
   36.945    3.2754
   36.960    3.3386
   36.975    3.4334
   36.990    3.3702
   37.005    3.4123
   37.020    3.5492
   37.035    3.3386
   37.050    3.3175
   37.065    3.3070
   37.080    3.3597
   37.095    3.3702
   37.110    3.4544
   37.125    3.4018
   37.140    3.4755
   37.155    3.4755
   37.170    3.4755
   37.185    3.7388
   37.200    3.7915
   37.215    3.4334
   37.230    3.5914
   37.245    3.4860
   37.260    3.4544
   37.275    3.6124
   37.290    3.6230
   37.305    3.8547
   37.320    3.6546
   37.335    3.6335
   37.350    3.3702
   37.365    3.2122
   37.380    3.4123
   37.395    3.4123
   37.410    3.5703
   37.425    3.4229
   37.440    3.5598
   37.455    3.4860
   37.470    3.5387
   37.485    3.4544
   37.500    3.2227
   37.515    3.5598
   37.530    3.8125
   37.545    3.4229
   37.560    3.4229
   37.575    3.3913
   37.590    3.1806
   37.605    3.2017
   37.620    3.5176
   37.635    3.3597
   37.650    3.3807
   37.665    3.2859
   37.680    3.5282
   37.695    3.6440
   37.710    3.2859
   37.725    3.5282
   37.740    3.4229
   37.755    3.5703
   37.770    3.3702
   37.785    3.4334
   37.800    3.2017
   37.815    3.4966
   37.830    3.1701
   37.845    3.2754
   37.860    3.3175
   37.875    3.5071
   37.890    3.1280
   37.905    3.1806
   37.920    3.3913
   37.935    3.2227
   37.950    3.3702
   37.965    3.3702
   37.980    3.5282
   37.995    3.3175
   38.010    3.2965
   38.025    3.1069
   38.040    3.4650
   38.055    3.5176
   38.070    3.4860
   38.085    3.4650
   38.100    3.2227
   38.115    3.2965
   38.130    3.4018
   38.145    3.1596
   38.160    3.3386
   38.175    3.4018
   38.190    3.6546
   38.205    3.5703
   38.220    3.4334
   38.235    3.1280
   38.250    3.2965
   38.265    3.2438
   38.280    3.3175
   38.295    3.5808
   38.310    3.2122
   38.325    3.0753
   38.340    3.2754
   38.355    3.2333
   38.370    3.1701
   38.385    3.3175
   38.400    3.3597
   38.415    3.3386
   38.430    3.2543
   38.445    3.3702
   38.460    3.5176
   38.475    3.3070
   38.490    3.3807
   38.505    3.4334
   38.520    3.3175
   38.535    3.2122
   38.550    3.3807
   38.565    3.2754
   38.580    3.0648
   38.595    3.4123
   38.610    3.6019
   38.625    3.3913
   38.640    3.4229
   38.655    3.5282
   38.670    3.2017
   38.685    3.3807
   38.700    3.3702
   38.715    3.4018
   38.730    3.2122
   38.745    3.2333
   38.760    3.2333
   38.775    3.2438
   38.790    3.3597
   38.805    3.2438
   38.820    3.2649
   38.835    3.2965
   38.850    3.3913
   38.865    3.5176
   38.880    3.4123
   38.895    3.5387
   38.910    3.4018
   38.925    3.4018
   38.940    3.6756
   38.955    3.7493
   38.970    3.4334
   38.985    3.4544
   39.000    3.2543
   39.015    3.3913
   39.030    3.2017
   39.045    3.1385
   39.060    3.1385
   39.075    3.4544
   39.090    3.3386
   39.105    3.5703
   39.120    3.4860
   39.135    3.1174
   39.150    3.2965
   39.165    3.5387
   39.180    3.2754
   39.195    3.4018
   39.210    3.5703
   39.225    3.5598
   39.240    3.3597
   39.255    3.2965
   39.270    3.0226
   39.285    3.4650
   39.300    3.1701
   39.315    3.2754
   39.330    3.2754
   39.345    3.3597
   39.360    3.3597
   39.375    3.2333
   39.390    3.3807
   39.405    3.4966
   39.420    3.4755
   39.435    3.2859
   39.450    3.4018
   39.465    3.4544
   39.480    3.2754
   39.495    3.1806
   39.510    3.4018
   39.525    3.1385
   39.540    3.4334
   39.555    3.0858
   39.570    3.2859
   39.585    3.4755
   39.600    3.3175
   39.615    3.4018
   39.630    3.3807
   39.645    3.2649
   39.660    3.4544
   39.675    3.5387
   39.690    3.3807
   39.705    3.1596
   39.720    3.4018
   39.735    3.1806
   39.750    3.5387
   39.765    3.1912
   39.780    3.3702
   39.795    3.2965
   39.810    3.3491
   39.825    3.3491
   39.840    3.2543
   39.855    3.5703
   39.870    3.2122
   39.885    3.2543
   39.900    3.5176
   39.915    3.2438
   39.930    3.2227
   39.945    3.3807
   39.960    3.2754
   39.975    3.3702
   39.990    3.2754
