    1.500   37.7357
    1.515   37.7988
    1.530   37.6725
    1.545   37.2828
    1.560   36.8615
    1.575   36.2928
    1.590   34.5024
    1.605   34.1338
    1.620   33.5124
    1.635   32.7751
    1.650   32.6172
    1.665   32.2486
    1.680   31.6166
    1.695   31.7641
    1.710   29.9631
    1.725   28.6572
    1.740   29.2154
    1.755   29.1311
    1.770   28.3307
    1.785   28.3202
    1.800   28.0253
    1.815   27.5935
    1.830   27.1933
    1.845   25.4028
    1.860   26.0032
    1.875   26.7193
    1.890   25.6556
    1.905   25.2238
    1.920   24.7815
    1.935   23.7493
    1.950   24.0969
    1.965   24.0653
    1.980   23.3386
    1.995   23.1069
    2.010   22.4013
    2.025   22.6330
    2.040   22.7172
    2.055   21.8536
    2.070   21.7694
    2.085   22.1380
    2.100   21.2006
    2.115   20.8215
    2.130   21.4113
    2.145   21.1901
    2.160   20.3476
    2.175   20.2422
    2.190   19.8842
    2.205   19.7894
    2.220   19.9895
    2.235   20.0000
    2.250   19.0732
    2.265   18.9363
    2.280   19.0732
    2.295   18.7151
    2.310   18.4729
    2.325   19.0416
    2.340   18.1148
    2.355   17.2933
    2.370   18.0095
    2.385   17.9358
    2.400   17.8094
    2.415   17.0721
    2.430   17.5040
    2.445   16.8194
    2.460   16.6719
    2.475   16.8931
    2.490   16.5666
    2.505   16.1137
    2.520   15.9874
    2.535   16.4824
    2.550   15.9242
    2.565   16.1559
    2.580   15.3239
    2.595   15.4924
    2.610   15.8083
    2.625   15.6398
    2.640   15.6714
    2.655   15.2291
    2.670   14.8920
    2.685   14.5866
    2.700   14.8710
    2.715   14.7235
    2.730   14.9026
    2.745   14.5550
    2.760   14.9236
    2.775   14.7130
    2.790   13.9442
    2.805   14.1969
    2.820   14.2496
    2.835   14.8394
    2.850   14.2812
    2.865   13.9126
    2.880   13.9231
    2.895   13.5229
    2.910   13.5124
    2.925   13.5334
    2.940   13.1543
    2.955   13.5124
    2.970   13.3965
    2.985   13.3755
    3.000   13.0911
    3.015   12.2275
    3.030   12.5013
    3.045   12.4065
    3.060   12.6277
    3.075   13.2385
    3.090   12.9753
    3.105   12.4487
    3.120   11.7746
    3.135   12.6277
    3.150   12.7541
    3.165   12.7541
    3.180   11.8589
    3.195   12.1959
    3.210   12.3223
    3.225   12.4487
    3.240   12.0906
    3.255   11.7641
    3.270   11.6061
    3.285   11.2796
    3.300   11.7957
    3.315   11.4903
    3.330   11.6166
    3.345   11.4797
    3.360   11.6904
    3.375   11.1954
    3.390   11.6166
    3.405   11.5850
    3.420   11.8483
    3.435   11.6272
    3.450   11.9642
    3.465   11.1006
    3.480   11.5008
    3.495   11.2270
    3.510   11.1322
    3.525   11.3533
    3.540   11.2796
    3.555   11.4060
    3.570   10.5003
    3.585   11.0900
    3.600   10.6688
    3.615   10.9637
    3.630   10.8583
    3.645   11.2691
    3.660   11.0269
    3.675   10.9531
    3.690   11.1638
    3.705   11.0900
    3.720   11.2375
    3.735   10.8689
    3.750   10.8373
    3.765   11.2164
    3.780   10.8268
    3.795   10.5424
    3.810   10.7109
    3.825   10.3107
    3.840   10.3949
    3.855   10.4897
    3.870   10.3423
    3.885    9.9210
    3.900   10.2791
    3.915   10.1211
    3.930   10.7004
    3.945   10.2686
    3.960    9.7946
    3.975   10.1211
    3.990    9.7841
    4.005   10.6898
    4.020   10.1211
    4.035   10.0053
    4.050   10.1422
    4.065    9.9210
    4.080    9.8157
    4.095   10.5319
    4.110   10.6266
    4.125    9.9947
    4.140   10.0158
    4.155    9.6788
    4.170   10.0369
    4.185    9.6998
    4.200    9.6682
    4.215    9.4365
    4.230    9.8368
    4.245   10.0579
    4.260    9.9526
    4.275    9.6788
    4.290   10.0263
    4.305    9.6577
    4.320    9.7314
    4.335    9.6577
    4.350    9.6472
    4.365    9.7420
    4.380    9.5735
    4.395    9.3207
    4.410    9.2575
    4.425    9.1838
    4.440    9.6051
    4.455    9.0995
    4.470    9.4997
    4.485    9.2470
    4.500    9.3102
    4.515    9.1943
    4.530    9.2364
    4.545    9.3839
    4.560    9.3312
    4.575    9.2154
    4.590    9.7841
    4.605    9.0679
    4.620    8.9626
    4.635    9.2364
    4.650    9.4997
    4.665    9.4681
    4.680    9.3523
    4.695    9.1522
    4.710    8.9626
    4.725    9.0258
    4.740    9.4365
    4.755    9.4050
    4.770    8.8678
    4.785    8.8257
    4.800    8.9310
    4.815    9.4892
    4.830    9.1311
    4.845    9.4471
    4.860    8.7625
    4.875    9.3102
    4.890    8.9205
    4.905    8.7204
    4.920    8.6467
    4.935    9.3839
    4.950    9.1101
    4.965    8.9100
    4.980    9.1101
    4.995    9.0995
    5.010    9.0363
    5.025    8.9415
    5.040    9.1943
    5.055    9.1943
    5.070    9.2996
    5.085    9.2154
    5.100    8.8784
    5.115    8.7941
    5.130    9.0995
    5.145    9.0258
    5.160    9.1732
    5.175    9.1417
    5.190    9.1101
    5.205    9.2259
    5.220    8.7520
    5.235    8.5097
    5.250    8.7941
    5.265    8.5519
    5.280    8.5729
    5.295    8.9205
    5.310    8.5203
    5.325    8.7098
    5.340    8.6151
    5.355    8.5203
    5.370    8.8573
    5.385    8.7836
    5.400    8.8784
    5.415    8.9100
    5.430    8.4044
    5.445    8.6572
    5.460    8.5519
    5.475    8.5940
    5.490    8.6467
    5.505    8.8046
    5.520    8.7520
    5.535    8.5097
    5.550    8.7730
    5.565    8.4781
    5.580    8.6361
    5.595    8.5308
    5.610    8.7204
    5.625    8.6888
    5.640    8.7941
    5.655    8.1306
    5.670    8.4571
    5.685    8.5835
    5.700    8.5729
    5.715    8.5835
    5.730    8.5729
    5.745    8.8046
    5.760    8.5835
    5.775    8.9415
    5.790    8.3202
    5.805    8.0674
    5.820    8.3307
    5.835    8.6993
    5.850    8.4044
    5.865    8.5308
    5.880    8.4150
    5.895    8.2464
    5.910    8.3728
    5.925    8.4781
    5.940    8.6467
    5.955    9.0469
    5.970    8.5097
    5.985    8.4255
    6.000    8.7414
    6.015    8.6045
    6.030    8.7098
    6.045    8.6045
    6.060    8.5519
    6.075    8.5413
    6.090    8.6888
    6.105    8.6572
    6.120    8.0990
    6.135    8.7204
    6.150    8.7520
    6.165    8.4781
    6.180    8.4044
    6.195    8.5413
    6.210    8.7941
    6.225    7.9831
    6.240    8.3518
    6.255    8.4992
    6.270    8.4360
    6.285    8.6677
    6.300    8.6783
    6.315    8.2464
    6.330    8.6467
    6.345    8.2780
    6.360    8.5729
    6.375    8.2780
    6.390    8.4150
    6.405    8.5308
    6.420    9.0153
    6.435    8.7941
    6.450    8.3728
    6.465    8.4150
    6.480    8.5519
    6.495    8.5729
    6.510    8.8573
    6.525    8.3518
    6.540    8.2886
    6.555    8.5940
    6.570    8.7204
    6.585    8.6888
    6.600    8.0253
    6.615    8.3728
    6.630    8.3834
    6.645    8.4044
    6.660    8.5203
    6.675    8.4466
    6.690    8.4676
    6.705    8.1622
    6.720    8.6677
    6.735    8.4781
    6.750    8.3202
    6.765    8.7836
    6.780    8.5097
    6.795    8.2991
    6.810    8.4676
    6.825    8.4466
    6.840    8.7941
    6.855    8.3307
    6.870    8.4360
    6.885    8.4360
    6.900    8.9205
    6.915    8.5835
    6.930    8.3939
    6.945    8.6361
    6.960    8.9415
    6.975    8.8678
    6.990    8.4992
    7.005    8.4571
    7.020    8.6256
    7.035    8.3623
    7.050    8.0885
    7.065    8.7414
    7.080    8.5624
    7.095    8.5097
    7.110    8.7520
    7.125    7.9305
    7.140    8.2675
    7.155    8.5413
    7.170    8.8784
    7.185    8.6888
    7.200    8.4255
    7.215    8.4360
    7.230    8.3623
    7.245    7.8884
    7.260    8.3202
    7.275    8.4150
    7.290    8.2886
    7.305    8.2886
    7.320    8.7414
    7.335    8.4676
    7.350    8.5519
    7.365    8.2464
    7.380    8.3307
    7.395    7.9621
    7.410    8.6256
    7.425    8.6783
    7.440    8.3939
    7.455    8.3307
    7.470    8.6151
    7.485    8.3623
    7.500    8.2991
    7.515    8.4887
    7.530    8.4887
    7.545    8.1201
    7.560    8.3518
    7.575    8.7941
    7.590    8.8468
    7.605    8.8889
    7.620    8.5624
    7.635    8.9100
    7.650    8.5519
    7.665    8.7204
    7.680    8.5308
    7.695    8.4044
    7.710    8.5097
    7.725    8.3623
    7.740    8.5203
    7.755    9.0785
    7.770    8.8046
    7.785    8.5835
    7.800    8.6993
    7.815    8.7204
    7.830    8.3834
    7.845    8.9310
    7.860    8.8994
    7.875    8.8573
    7.890    8.7098
    7.905    8.8257
    7.920    8.8573
    7.935    8.4466
    7.950    8.7414
    7.965    8.3623
    7.980    8.4887
    7.995    8.9837
    8.010    8.8784
    8.025    8.7204
    8.040    8.7204
    8.055    8.6572
    8.070    8.5624
    8.085    8.8046
    8.100    8.7204
    8.115    8.6467
    8.130    9.2470
    8.145    8.7098
    8.160    8.5097
    8.175    8.9626
    8.190    9.0047
    8.205    8.3728
    8.220    8.9521
    8.235    8.8152
    8.250    8.8573
    8.265    8.8046
    8.280    8.7098
    8.295    8.8046
    8.310    8.4255
    8.325    8.3412
    8.340    8.5413
    8.355    8.9837
    8.370    8.9942
    8.385    8.8152
    8.400    8.6888
    8.415    8.8889
    8.430    9.4576
    8.445    8.6361
    8.460    9.0153
    8.475    8.6151
    8.490    8.8046
    8.505    8.4360
    8.520    8.6361
    8.535    8.6783
    8.550    8.8046
    8.565    8.9415
    8.580    8.2780
    8.595    8.7414
    8.610    8.9942
    8.625    8.6467
    8.640    8.8362
    8.655    8.7836
    8.670    8.6677
    8.685    8.9521
    8.700    8.9837
    8.715    8.6993
    8.730    9.0574
    8.745    9.3628
    8.760    8.8784
    8.775    8.4255
    8.790    8.4676
    8.805    8.5729
    8.820    8.4676
    8.835    9.2996
    8.850    9.0258
    8.865    9.1627
    8.880    9.0995
    8.895    8.6677
    8.910    8.6045
    8.925    8.4255
    8.940    8.8573
    8.955    9.0679
    8.970    8.5940
    8.985    8.8468
    9.000    8.5940
    9.015    8.3202
    9.030    8.8889
    9.045    9.0469
    9.060    9.0890
    9.075    8.9205
    9.090    8.8994
    9.105    8.6783
    9.120    8.7941
    9.135    9.0047
    9.150    8.5835
    9.165    8.5835
    9.180    8.8362
    9.195    8.4781
    9.210    8.5413
    9.225    8.3939
    9.240    8.3939
    9.255    8.9731
    9.270    8.8889
    9.285    8.9626
    9.300    9.0574
    9.315    8.9731
    9.330    8.8152
    9.345    9.0574
    9.360    8.9837
    9.375    8.9415
    9.390    8.9942
    9.405    8.5203
    9.420    8.5413
    9.435    8.9415
    9.450    9.2996
    9.465    8.8784
    9.480    9.0469
    9.495    8.7098
    9.510    8.8784
    9.525    9.2575
    9.540    8.9100
    9.555    8.9521
    9.570    8.8046
    9.585    8.6467
    9.600    8.6045
    9.615    8.8889
    9.630    8.8362
    9.645    9.0574
    9.660    9.1417
    9.675    8.6888
    9.690    8.4992
    9.705    8.6045
    9.720    8.5097
    9.735    8.4781
    9.750    8.6467
    9.765    8.9310
    9.780    8.6572
    9.795    9.2048
    9.810    8.6572
    9.825    8.4150
    9.840    8.6993
    9.855    8.5835
    9.870    8.6783
    9.885    8.6888
    9.900    8.5835
    9.915    8.6993
    9.930    8.9415
    9.945    8.7309
    9.960    9.3312
    9.975    9.1417
    9.990    8.7204
   10.005    8.5835
   10.020    8.8152
   10.035    8.8784
   10.050    8.7730
   10.065    9.0363
   10.080    9.0469
   10.095    8.7730
   10.110    8.9205
   10.125    8.5729
   10.140    8.8889
   10.155    8.4992
   10.170    8.3728
   10.185    8.9837
   10.200    8.6361
   10.215    8.9837
   10.230    8.5097
   10.245    8.6783
   10.260    8.7098
   10.275    8.7520
   10.290    8.8889
   10.305    9.0469
   10.320    8.8362
   10.335    8.6783
   10.350    9.2364
   10.365    9.1627
   10.380    8.8152
   10.395    8.9310
   10.410    8.4992
   10.425    8.7414
   10.440    8.6572
   10.455    8.7520
   10.470    9.2364
   10.485    8.8046
   10.500    8.6677
   10.515    8.9521
   10.530    8.7309
   10.545    8.7625
   10.560    9.0047
   10.575    9.0679
   10.590    8.9942
   10.605    8.9310
   10.620    8.6783
   10.635    8.7098
   10.650    8.8046
   10.665    8.9310
   10.680    8.6572
   10.695    8.7836
   10.710    9.0574
   10.725    8.9837
   10.740    8.2780
   10.755    8.4150
   10.770    8.6045
   10.785    8.7309
   10.800    8.7730
   10.815    8.6045
   10.830    8.7625
   10.845    8.6993
   10.860    8.6151
   10.875    8.8152
   10.890    8.4676
   10.905    8.6151
   10.920    8.3834
   10.935    8.7098
   10.950    8.6256
   10.965    9.0153
   10.980    9.0679
   10.995    8.6677
   11.010    8.7836
   11.025    8.6993
   11.040    8.6783
   11.055    8.5835
   11.070    8.3939
   11.085    8.7309
   11.100    9.4787
   11.115    8.3623
   11.130    8.5308
   11.145    8.5413
   11.160    8.7836
   11.175    8.5308
   11.190    8.3518
   11.205    8.3202
   11.220    8.4781
   11.235    8.2886
   11.250    8.1411
   11.265    8.1833
   11.280    8.3623
   11.295    8.3623
   11.310    8.2464
   11.325    8.4360
   11.340    8.3307
   11.355    8.3623
   11.370    8.2043
   11.385    8.3834
   11.400    8.3202
   11.415    8.4781
   11.430    8.7098
   11.445    7.9516
   11.460    8.2043
   11.475    8.1517
   11.490    8.0779
   11.505    7.4987
   11.520    8.3096
   11.535    7.9516
   11.550    7.9200
   11.565    8.6256
   11.580    8.5203
   11.595    8.4044
   11.610    7.9937
   11.625    8.5940
   11.640    8.5308
   11.655    8.0253
   11.670    8.3307
   11.685    8.2886
   11.700    8.3834
   11.715    8.3307
   11.730    8.4255
   11.745    8.2254
   11.760    8.1727
   11.775    7.7830
   11.790    7.7199
   11.805    8.4466
   11.820    8.1517
   11.835    8.2886
   11.850    8.2149
   11.865    8.1411
   11.880    8.4992
   11.895    8.3623
   11.910    8.3202
   11.925    8.5624
   11.940    8.4255
   11.955    8.0990
   11.970    7.9937
   11.985    8.4466
   12.000    8.3728
   12.015    8.6783
   12.030    7.9305
   12.045    7.6988
   12.060    7.4882
   12.075    7.7304
   12.090    8.2254
   12.105    8.1727
   12.120    7.9094
   12.135    8.1727
   12.150    8.1622
   12.165    7.9305
   12.180    8.2780
   12.195    7.9621
   12.210    7.9305
   12.225    7.4566
   12.240    7.5408
   12.255    7.9094
   12.270    7.9621
   12.285    8.1938
   12.300    8.0885
   12.315    7.5513
   12.330    7.7304
   12.345    7.8357
   12.360    7.5829
   12.375    7.9200
   12.390    8.3307
   12.405    8.0358
   12.420    7.8989
   12.435    7.7199
   12.450    7.5829
   12.465    7.8462
   12.480    8.0042
   12.495    7.8357
   12.510    8.1095
   12.525    7.7936
   12.540    7.7514
   12.555    7.7620
   12.570    7.7936
   12.585    7.7304
   12.600    7.5829
   12.615    8.2359
   12.630    8.1411
   12.645    7.8146
   12.660    7.3828
   12.675    7.6251
   12.690    7.3196
   12.705    7.6567
   12.720    7.9937
   12.735    8.4255
   12.750    8.0885
   12.765    7.9516
   12.780    8.0147
   12.795    8.0569
   12.810    8.1833
   12.825    7.4144
   12.840    7.4566
   12.855    7.4460
   12.870    7.8989
   12.885    7.5197
   12.900    7.8568
   12.915    8.0463
   12.930    7.5303
   12.945    7.4460
   12.960    7.6461
   12.975    7.8884
   12.990    7.8989
   13.005    7.7620
   13.020    7.5092
   13.035    8.2254
   13.050    7.5197
   13.065    7.7830
   13.080    7.6461
   13.095    7.6988
   13.110    7.7409
   13.125    7.4882
   13.140    7.7725
   13.155    7.6145
   13.170    7.7620
   13.185    7.5197
   13.200    7.6672
   13.215    7.5303
   13.230    7.4882
   13.245    7.5092
   13.260    7.5619
   13.275    7.4671
   13.290    7.6040
   13.305    7.0037
   13.320    7.3934
   13.335    7.3302
   13.350    7.6461
   13.365    7.6145
   13.380    7.8146
   13.395    7.9937
   13.410    7.5513
   13.425    8.0042
   13.440    7.6251
   13.455    7.7514
   13.470    7.7093
   13.485    7.2354
   13.500    7.4250
   13.515    7.7936
   13.530    7.4460
   13.545    7.7304
   13.560    7.9516
   13.575    7.8989
   13.590    7.5513
   13.605    7.7199
   13.620    7.5303
   13.635    7.6567
   13.650    7.4882
   13.665    7.5513
   13.680    7.8357
   13.695    7.6988
   13.710    7.6988
   13.725    7.7725
   13.740    7.8778
   13.755    7.7620
   13.770    7.8252
   13.785    7.5408
   13.800    7.6040
   13.815    7.6356
   13.830    7.6251
   13.845    7.3934
   13.860    7.2143
   13.875    7.7409
   13.890    7.8252
   13.905    7.5619
   13.920    7.9305
   13.935    7.7093
   13.950    7.3828
   13.965    7.1195
   13.980    7.5619
   13.995    7.3618
   14.010    7.7514
   14.025    7.8778
   14.040    7.4250
   14.055    6.6351
   14.070    7.2459
   14.085    7.6567
   14.100    7.5724
   14.115    7.3091
   14.130    7.5724
   14.145    7.4144
   14.160    7.8462
   14.175    7.6777
   14.190    7.5724
   14.205    7.0985
   14.220    7.5092
   14.235    7.7409
   14.250    7.8041
   14.265    7.6883
   14.280    7.8568
   14.295    7.5619
   14.310    7.7199
   14.325    7.6988
   14.340    8.0253
   14.355    8.0779
   14.370    7.5829
   14.385    7.7199
   14.400    7.3934
   14.415    7.2775
   14.430    7.5408
   14.445    7.7514
   14.460    7.3091
   14.475    7.2038
   14.490    7.3302
   14.505    7.5513
   14.520    7.2354
   14.535    7.8041
   14.550    7.4671
   14.565    7.6251
   14.580    7.7725
   14.595    7.9410
   14.610    7.7620
   14.625    7.4355
   14.640    7.5408
   14.655    7.5829
   14.670    7.2986
   14.685    7.4144
   14.700    7.5724
   14.715    7.9937
   14.730    7.3407
   14.745    7.5724
   14.760    7.4987
   14.775    7.7514
   14.790    7.5513
   14.805    7.2143
   14.820    7.4671
   14.835    7.4566
   14.850    7.5724
   14.865    7.1827
   14.880    7.9621
   14.895    7.8989
   14.910    7.5724
   14.925    7.4144
   14.940    7.2565
   14.955    7.4039
   14.970    7.5513
   14.985    7.7199
   15.000    7.5724
   15.015    7.2459
   15.030    7.3618
   15.045    7.4776
   15.060    7.4566
   15.075    7.7620
   15.090    7.3618
   15.105    7.5935
   15.120    7.2143
   15.135    7.5092
   15.150    7.2459
   15.165    7.2143
   15.180    7.2775
   15.195    7.2880
   15.210    7.4882
   15.225    7.6988
   15.240    7.6777
   15.255    7.6356
   15.270    7.7409
   15.285    7.3196
   15.300    7.2880
   15.315    7.7093
   15.330    7.6251
   15.345    7.8884
   15.360    7.4987
   15.375    7.4460
   15.390    7.7620
   15.405    7.6883
   15.420    7.4460
   15.435    7.4671
   15.450    7.2459
   15.465    7.1933
   15.480    7.6672
   15.495    7.5092
   15.510    7.3618
   15.525    7.0985
   15.540    7.1406
   15.555    7.3512
   15.570    7.7514
   15.585    7.9410
   15.600    7.8041
   15.615    7.7304
   15.630    7.4882
   15.645    7.6777
   15.660    7.9200
   15.675    7.3302
   15.690    7.6883
   15.705    7.3407
   15.720    7.8568
   15.735    7.6883
   15.750    7.6777
   15.765    7.8146
   15.780    7.3618
   15.795    7.5092
   15.810    7.5408
   15.825    7.4882
   15.840    7.3196
   15.855    7.1195
   15.870    7.3091
   15.885    7.3828
   15.900    7.4460
   15.915    7.7620
   15.930    7.3091
   15.945    7.3934
   15.960    7.7304
   15.975    7.4882
   15.990    7.4460
   16.005    7.4144
   16.020    7.3934
   16.035    7.4039
   16.050    7.9200
   16.065    8.1411
   16.080    7.7514
   16.095    7.4776
   16.110    7.5513
   16.125    7.2459
   16.140    7.3512
   16.155    7.5092
   16.170    7.0037
   16.185    7.5303
   16.200    7.6145
   16.215    7.5724
   16.230    7.3196
   16.245    7.4355
   16.260    7.6672
   16.275    7.4355
   16.290    7.4039
   16.305    7.6461
   16.320    7.2775
   16.335    7.2143
   16.350    7.7199
   16.365    7.5303
   16.380    7.3618
   16.395    7.4355
   16.410    7.5303
   16.425    7.1617
   16.440    7.3618
   16.455    7.6461
   16.470    7.6567
   16.485    7.5619
   16.500    7.4250
   16.515    7.4250
   16.530    7.2986
   16.545    7.6356
   16.560    7.5092
   16.575    7.5829
   16.590    7.6883
   16.605    7.7620
   16.620    8.0463
   16.635    7.8884
   16.650    7.8252
   16.665    7.3828
   16.680    7.5619
   16.695    7.2880
   16.710    7.2880
   16.725    7.3407
   16.740    7.8462
   16.755    7.7514
   16.770    7.7830
   16.785    7.5935
   16.800    7.2565
   16.815    7.7199
   16.830    8.1833
   16.845    7.4460
   16.860    7.3934
   16.875    7.4566
   16.890    7.5092
   16.905    7.3934
   16.920    7.5724
   16.935    7.3828
   16.950    7.7409
   16.965    7.4250
   16.980    7.7093
   16.995    7.4882
   17.010    7.7725
   17.025    7.3934
   17.040    7.5724
   17.055    7.5619
   17.070    7.6988
   17.085    7.6883
   17.100    7.2354
   17.115    7.4671
   17.130    7.5513
   17.145    7.7620
   17.160    7.5724
   17.175    7.7620
   17.190    7.8041
   17.205    7.4460
   17.220    7.4671
   17.235    7.3934
   17.250    7.2670
   17.265    7.4460
   17.280    7.4776
   17.295    7.5513
   17.310    7.3091
   17.325    7.5724
   17.340    7.7199
   17.355    7.5303
   17.370    7.4671
   17.385    7.9937
   17.400    8.0674
   17.415    7.5197
   17.430    7.6461
   17.445    7.5408
   17.460    7.3196
   17.475    7.3091
   17.490    7.6145
   17.505    7.6251
   17.520    7.6883
   17.535    7.3618
   17.550    7.6567
   17.565    7.6988
   17.580    7.8989
   17.595    7.4144
   17.610    7.6883
   17.625    7.8568
   17.640    7.3196
   17.655    7.5935
   17.670    7.7620
   17.685    7.4460
   17.700    7.5619
   17.715    7.7093
   17.730    7.7936
   17.745    7.4250
   17.760    7.5197
   17.775    7.2986
   17.790    7.9200
   17.805    7.5092
   17.820    7.3828
   17.835    7.6988
   17.850    7.9305
   17.865    7.8146
   17.880    7.9516
   17.895    7.2670
   17.910    7.8673
   17.925    8.0569
   17.940    7.8884
   17.955    7.7409
   17.970    7.9937
   17.985    7.9726
   18.000    7.7093
   18.015    7.6040
   18.030    8.0779
   18.045    7.6883
   18.060    7.6777
   18.075    7.7830
   18.090    7.6145
   18.105    8.0042
   18.120    7.8252
   18.135    7.4144
   18.150    7.8778
   18.165    7.9726
   18.180    7.5724
   18.195    7.7936
   18.210    7.3934
   18.225    7.5303
   18.240    7.7936
   18.255    7.4882
   18.270    7.1301
   18.285    7.8146
   18.300    7.8252
   18.315    7.4671
   18.330    7.5724
   18.345    7.4987
   18.360    7.2038
   18.375    7.0879
   18.390    7.7936
   18.405    7.1933
   18.420    7.3723
   18.435    7.6040
   18.450    8.0358
   18.465    7.9305
   18.480    7.5513
   18.495    7.8041
   18.510    7.8146
   18.525    7.7830
   18.540    7.5303
   18.555    7.6461
   18.570    7.3091
   18.585    7.6777
   18.600    7.3512
   18.615    8.0779
   18.630    7.6988
   18.645    7.3091
   18.660    7.5303
   18.675    7.6251
   18.690    7.9726
   18.705    7.7199
   18.720    7.8884
   18.735    7.9410
   18.750    7.7409
   18.765    7.7199
   18.780    7.4566
   18.795    7.6356
   18.810    7.6777
   18.825    7.3828
   18.840    7.6461
   18.855    7.6356
   18.870    7.6251
   18.885    7.8146
   18.900    8.0358
   18.915    7.8041
   18.930    7.9094
   18.945    7.6461
   18.960    7.9200
   18.975    7.6145
   18.990    7.3828
   19.005    7.3618
   19.020    7.5092
   19.035    7.4250
   19.050    7.6251
   19.065    7.8357
   19.080    7.4039
   19.095    7.7409
   19.110    7.6461
   19.125    6.9300
   19.140    7.1617
   19.155    7.6567
   19.170    7.5724
   19.185    7.7936
   19.200    7.9200
   19.215    7.9516
   19.230    7.8357
   19.245    7.6251
   19.260    7.7725
   19.275    7.8568
   19.290    7.4882
   19.305    7.5724
   19.320    7.6777
   19.335    7.7093
   19.350    8.0885
   19.365    7.7093
   19.380    7.6145
   19.395    7.3934
   19.410    7.6883
   19.425    7.7093
   19.440    7.8041
   19.455    7.8462
   19.470    8.0990
   19.485    8.0147
   19.500    7.6145
   19.515    8.1727
   19.530    8.0885
   19.545    7.6251
   19.560    7.6461
   19.575    8.0569
   19.590    7.7514
   19.605    7.5092
   19.620    7.5408
   19.635    7.8989
   19.650    7.5935
   19.665    7.3828
   19.680    7.9621
   19.695    8.0990
   19.710    7.8673
   19.725    8.0253
   19.740    7.6567
   19.755    7.7093
   19.770    8.2043
   19.785    7.6883
   19.800    7.9094
   19.815    8.1833
   19.830    7.8252
   19.845    7.5513
   19.860    7.4566
   19.875    7.6461
   19.890    7.7409
   19.905    7.5619
   19.920    7.7830
   19.935    7.7199
   19.950    7.5513
   19.965    7.3618
   19.980    7.7409
   19.995    7.6988
   20.010    7.9094
   20.025    8.2359
   20.040    7.8884
   20.055    8.0463
   20.070    7.9410
   20.085    7.7409
   20.100    7.8462
   20.115    8.2886
   20.130    7.7936
   20.145    7.4355
   20.160    7.9410
   20.175    7.6567
   20.190    7.3512
   20.205    8.0042
   20.220    8.1833
   20.235    7.9937
   20.250    7.8884
   20.265    8.2464
   20.280    7.7409
   20.295    7.7514
   20.310    7.4460
   20.325    7.9410
   20.340    7.8252
   20.355    7.8146
   20.370    7.8462
   20.385    7.9516
   20.400    7.7936
   20.415    7.5619
   20.430    7.4776
   20.445    8.1095
   20.460    7.8778
   20.475    8.0463
   20.490    7.9305
   20.505    8.1938
   20.520    8.1411
   20.535    7.9621
   20.550    7.7725
   20.565    7.7304
   20.580    7.8673
   20.595    7.9516
   20.610    8.1727
   20.625    7.6145
   20.640    7.4671
   20.655    7.4355
   20.670    7.6883
   20.685    7.5303
   20.700    8.1833
   20.715    7.8357
   20.730    7.6777
   20.745    7.5829
   20.760    7.9937
   20.775    7.9305
   20.790    8.5097
   20.805    7.8778
   20.820    8.0674
   20.835    8.0463
   20.850    7.5829
   20.865    8.1833
   20.880    7.8989
   20.895    7.7514
   20.910    7.5513
   20.925    8.0253
   20.940    7.7409
   20.955    7.8884
   20.970    7.8989
   20.985    7.8568
   21.000    7.8146
   21.015    7.5303
   21.030    7.9305
   21.045    7.5619
   21.060    7.9200
   21.075    8.5519
   21.090    8.1306
   21.105    7.8357
   21.120    7.7409
   21.135    7.4987
   21.150    7.8462
   21.165    8.1201
   21.180    7.4144
   21.195    7.4987
   21.210    7.6567
   21.225    8.0674
   21.240    7.8252
   21.255    7.8252
   21.270    8.1095
   21.285    8.0569
   21.300    8.0253
   21.315    7.7199
   21.330    8.0147
   21.345    8.1833
   21.360    8.0674
   21.375    7.8252
   21.390    7.7936
   21.405    7.8146
   21.420    7.9726
   21.435    7.9831
   21.450    7.7409
   21.465    7.7409
   21.480    7.9200
   21.495    8.0779
   21.510    8.3096
   21.525    7.9831
   21.540    8.0042
   21.555    8.0042
   21.570    7.9410
   21.585    7.8778
   21.600    7.6567
   21.615    7.9200
   21.630    8.2780
   21.645    8.3412
   21.660    7.9621
   21.675    7.6461
   21.690    8.4255
   21.705    8.1201
   21.720    7.8041
   21.735    7.8989
   21.750    7.8673
   21.765    7.8357
   21.780    7.9410
   21.795    8.0147
   21.810    8.0674
   21.825    7.8778
   21.840    7.9516
   21.855    8.1095
   21.870    7.7830
   21.885    7.8041
   21.900    7.8462
   21.915    7.7936
   21.930    7.1722
   21.945    7.5829
   21.960    7.6356
   21.975    8.1517
   21.990    8.3307
   22.005    8.1411
   22.020    7.5829
   22.035    8.0569
   22.050    8.2149
   22.065    8.0042
   22.080    7.9200
   22.095    8.4887
   22.110    7.9831
   22.125    7.9200
   22.140    8.0569
   22.155    8.1833
   22.170    8.1517
   22.185    7.9516
   22.200    7.5619
   22.215    7.8252
   22.230    7.4250
   22.245    8.0569
   22.260    8.0463
   22.275    7.8778
   22.290    7.8568
   22.305    8.1201
   22.320    8.1517
   22.335    7.3828
   22.350    7.4671
   22.365    7.6040
   22.380    7.6145
   22.395    7.6145
   22.410    7.8778
   22.425    7.6356
   22.440    8.1727
   22.455    7.9410
   22.470    7.8884
   22.485    8.1833
   22.500    7.7936
   22.515    7.7620
   22.530    7.9094
   22.545    7.8884
   22.560    8.2675
   22.575    8.1727
   22.590    7.6251
   22.605    8.2359
   22.620    7.7304
   22.635    7.8778
   22.650    8.0674
   22.665    8.0042
   22.680    7.7936
   22.695    8.1095
   22.710    8.1201
   22.725    7.3407
   22.740    7.7514
   22.755    7.8884
   22.770    7.8778
   22.785    8.0569
   22.800    7.6988
   22.815    8.1201
   22.830    7.8357
   22.845    7.8989
   22.860    7.7093
   22.875    8.2570
   22.890    7.9937
   22.905    7.5724
   22.920    7.5935
   22.935    7.5829
   22.950    8.0990
   22.965    7.9305
   22.980    7.6672
   22.995    7.9410
   23.010    8.3518
   23.025    8.2780
   23.040    8.2359
   23.055    7.7409
   23.070    7.5092
   23.085    7.6145
   23.100    7.8568
   23.115    7.7093
   23.130    7.9094
   23.145    7.8778
   23.160    7.9831
   23.175    7.6672
   23.190    7.4776
   23.205    7.6567
   23.220    8.0990
   23.235    7.9726
   23.250    7.6988
   23.265    7.8146
   23.280    8.2464
   23.295    7.7199
   23.310    7.6777
   23.325    7.7620
   23.340    7.5935
   23.355    7.6777
   23.370    7.1301
   23.385    7.5408
   23.400    7.9410
   23.415    7.7936
   23.430    8.0990
   23.445    7.7409
   23.460    8.0042
   23.475    7.7725
   23.490    8.1201
   23.505    7.5724
   23.520    7.7936
   23.535    8.0253
   23.550    8.0674
   23.565    7.9516
   23.580    7.5829
   23.595    7.4776
   23.610    7.8778
   23.625    7.8462
   23.640    7.4460
   23.655    8.0358
   23.670    8.0147
   23.685    7.8989
   23.700    7.7936
   23.715    7.6567
   23.730    8.3096
   23.745    8.0885
   23.760    7.8357
   23.775    7.7830
   23.790    7.7936
   23.805    8.1833
   23.820    7.4566
   23.835    7.5197
   23.850    7.9200
   23.865    7.8673
   23.880    7.5408
   23.895    7.3091
   23.910    7.8884
   23.925    7.7409
   23.940    7.7093
   23.955    7.9726
   23.970    7.9200
   23.985    8.1411
   24.000    7.9937
   24.015    7.8568
   24.030    7.8989
   24.045    7.9094
   24.060    7.3091
   24.075    7.6567
   24.090    7.6356
   24.105    7.5513
   24.120    7.5829
   24.135    7.2143
   24.150    7.4460
   24.165    7.5829
   24.180    8.0042
   24.195    7.9831
   24.210    7.7199
   24.225    7.8041
   24.240    7.6145
   24.255    7.6988
   24.270    7.8146
   24.285    7.2565
   24.300    7.3828
   24.315    7.4460
   24.330    7.9305
   24.345    7.8462
   24.360    7.5829
   24.375    7.3934
   24.390    7.9410
   24.405    7.7620
   24.420    7.6356
   24.435    7.6145
   24.450    7.8146
   24.465    7.6356
   24.480    7.4882
   24.495    7.7199
   24.510    7.4776
   24.525    7.3934
   24.540    7.5092
   24.555    7.9621
   24.570    7.8778
   24.585    8.1727
   24.600    7.7304
   24.615    7.8568
   24.630    8.0674
   24.645    7.9200
   24.660    7.6356
   24.675    7.0563
   24.690    7.2565
   24.705    7.1511
   24.720    7.3618
   24.735    7.5619
   24.750    7.6672
   24.765    7.2880
   24.780    7.4671
   24.795    7.5092
   24.810    7.6672
   24.825    7.6356
   24.840    7.1722
   24.855    7.4144
   24.870    7.2986
   24.885    7.6988
   24.900    7.5829
   24.915    7.9094
   24.930    8.2149
   24.945    7.5408
   24.960    7.7093
   24.975    8.0674
   24.990    7.8462
   25.005    7.2775
   25.020    7.8252
   25.035    7.5513
   25.050    7.6040
   25.065    7.4355
   25.080    7.6356
   25.095    7.6461
   25.110    7.6145
   25.125    7.8778
   25.140    7.6040
   25.155    7.6356
   25.170    7.3723
   25.185    7.6251
   25.200    7.4776
   25.215    7.8462
   25.230    6.8773
   25.245    7.3091
   25.260    7.2775
   25.275    7.1827
   25.290    7.5408
   25.305    7.9305
   25.320    7.2459
   25.335    7.5935
   25.350    7.6988
   25.365    7.9305
   25.380    7.6040
   25.395    7.4144
   25.410    7.7093
   25.425    7.7830
   25.440    7.9621
   25.455    7.9516
   25.470    7.5829
   25.485    7.6988
   25.500    7.6672
   25.515    7.7936
   25.530    7.5303
   25.545    7.4460
   25.560    7.1090
   25.575    7.1195
   25.590    7.0985
   25.605    7.6145
   25.620    7.4671
   25.635    7.2775
   25.650    7.2986
   25.665    7.3618
   25.680    7.3091
   25.695    7.4776
   25.710    7.6251
   25.725    7.5724
   25.740    7.4039
   25.755    7.1827
   25.770    7.3828
   25.785    7.7830
   25.800    7.6672
   25.815    7.4460
   25.830    7.3828
   25.845    7.1406
   25.860    7.3723
   25.875    7.4039
   25.890    7.3828
   25.905    7.0563
   25.920    6.9300
   25.935    7.4460
   25.950    7.6251
   25.965    7.4039
   25.980    7.2986
   25.995    7.3934
   26.010    7.0774
   26.025    6.9616
   26.040    7.2775
   26.055    7.8462
   26.070    7.5303
   26.085    7.5935
   26.100    7.4671
   26.115    7.5303
   26.130    7.2880
   26.145    7.0563
   26.160    6.9194
   26.175    7.0142
   26.190    7.4776
   26.205    7.2354
   26.220    7.3512
   26.235    7.0458
   26.250    7.0774
   26.265    7.5935
   26.280    7.3512
   26.295    7.2775
   26.310    7.1617
   26.325    7.3196
   26.340    7.0563
   26.355    7.6040
   26.370    7.2038
   26.385    7.3196
   26.400    7.2249
   26.415    7.1827
   26.430    7.0353
   26.445    7.0563
   26.460    7.2038
   26.475    6.9932
   26.490    7.0563
   26.505    7.4566
   26.520    7.0563
   26.535    7.2354
   26.550    7.1511
   26.565    7.0037
   26.580    7.4671
   26.595    7.4987
   26.610    7.2775
   26.625    6.9826
   26.640    7.4671
   26.655    7.5408
   26.670    7.4039
   26.685    7.2670
   26.700    7.6040
   26.715    7.1195
   26.730    7.4355
   26.745    7.3302
   26.760    7.2038
   26.775    7.4250
   26.790    6.8352
   26.805    6.9721
   26.820    7.3407
   26.835    7.3723
   26.850    7.2459
   26.865    7.5408
   26.880    7.4776
   26.895    6.9194
   26.910    6.8878
   26.925    7.4776
   26.940    7.2880
   26.955    6.9089
   26.970    6.8562
   26.985    6.7509
   27.000    7.0879
   27.015    6.7088
   27.030    6.7825
   27.045    6.9932
   27.060    6.5087
   27.075    6.8984
   27.090    7.0458
   27.105    7.2565
   27.120    6.9300
   27.135    6.9300
   27.150    7.2143
   27.165    6.8352
   27.180    6.8457
   27.195    7.2143
   27.210    6.8984
   27.225    7.3618
   27.240    6.9616
   27.255    6.7615
   27.270    7.0037
   27.285    6.8457
   27.300    7.1511
   27.315    7.1511
   27.330    7.1827
   27.345    6.7088
   27.360    6.8352
   27.375    7.0879
   27.390    6.8457
   27.405    6.5719
   27.420    6.3928
   27.435    6.3928
   27.450    6.4455
   27.465    7.0563
   27.480    6.9510
   27.495    6.8141
   27.510    6.8036
   27.525    7.2038
   27.540    7.4250
   27.555    6.9089
   27.570    6.6983
   27.585    6.7299
   27.600    6.9405
   27.615    6.9405
   27.630    7.4144
   27.645    7.2143
   27.660    7.1511
   27.675    6.7825
   27.690    7.0669
   27.705    7.3934
   27.720    7.2986
   27.735    7.0985
   27.750    7.0037
   27.765    6.8984
   27.780    7.0142
   27.795    6.8773
   27.810    6.8773
   27.825    6.6351
   27.840    7.1933
   27.855    7.3196
   27.870    7.1933
   27.885    7.0563
   27.900    6.4244
   27.915    7.0458
   27.930    7.2038
   27.945    6.6667
   27.960    6.6877
   27.975    6.9194
   27.990    6.6140
   28.005    6.8562
   28.020    6.7615
   28.035    7.0563
   28.050    6.5508
   28.065    6.9405
   28.080    7.1195
   28.095    6.7825
   28.110    6.6140
   28.125    6.7930
   28.140    7.2670
   28.155    7.5619
   28.170    6.8668
   28.185    6.6561
   28.200    7.2249
   28.215    7.2459
   28.230    7.0458
   28.245    6.6877
   28.260    6.9300
   28.275    6.8352
   28.290    6.8036
   28.305    6.8773
   28.320    6.8036
   28.335    6.7720
   28.350    6.6983
   28.365    7.3828
   28.380    6.8457
   28.395    6.9721
   28.410    6.6245
   28.425    6.6351
   28.440    6.8668
   28.455    6.9089
   28.470    7.2143
   28.485    6.9089
   28.500    6.9510
   28.515    7.2986
   28.530    6.3718
   28.545    6.7930
   28.560    6.5719
   28.575    6.8562
   28.590    6.8984
   28.605    6.5192
   28.620    6.7404
   28.635    6.9405
   28.650    6.7825
   28.665    7.0563
   28.680    6.8562
   28.695    6.8457
   28.710    6.8668
   28.725    6.7509
   28.740    6.9194
   28.755    6.6561
   28.770    6.7720
   28.785    6.9405
   28.800    6.9826
   28.815    6.8036
   28.830    6.9826
   28.845    6.8878
   28.860    6.7720
   28.875    6.5929
   28.890    6.5508
   28.905    6.9616
   28.920    6.8773
   28.935    6.5403
   28.950    6.4350
   28.965    6.5508
   28.980    6.2875
   28.995    6.6351
   29.010    7.0458
   29.025    7.1933
   29.040    6.9194
   29.055    6.5929
   29.070    6.6667
   29.085    6.4666
   29.100    6.6245
   29.115    6.7825
   29.130    6.8036
   29.145    6.9932
   29.160    6.8141
   29.175    6.6667
   29.190    6.3612
   29.205    6.7509
   29.220    6.4982
   29.235    6.4244
   29.250    6.7930
   29.265    6.7825
   29.280    6.6561
   29.295    6.5613
   29.310    7.0037
   29.325    6.7088
   29.340    6.8141
   29.355    6.8352
   29.370    6.5403
   29.385    6.6877
   29.400    6.7720
   29.415    6.5508
   29.430    6.5613
   29.445    6.2665
   29.460    6.7299
   29.475    6.8562
   29.490    6.6772
   29.505    6.5824
   29.520    6.4560
   29.535    6.5087
   29.550    6.5192
   29.565    6.6667
   29.580    6.3296
   29.595    6.4350
   29.610    6.8984
   29.625    6.6456
   29.640    6.7088
   29.655    6.4244
   29.670    6.6035
   29.685    6.6667
   29.700    6.5298
   29.715    6.5719
   29.730    6.3296
   29.745    6.8141
   29.760    6.7720
   29.775    6.7088
   29.790    6.4560
   29.805    6.3823
   29.820    6.6351
   29.835    6.5192
   29.850    6.6772
   29.865    6.5613
   29.880    6.4139
   29.895    6.9616
   29.910    6.7193
   29.925    6.9194
   29.940    6.7930
   29.955    6.4455
   29.970    6.4034
   29.985    6.7193
   30.000    6.2770
   30.015    6.2559
   30.030    6.3928
   30.045    6.2454
   30.060    6.4244
   30.075    6.4666
   30.090    6.3402
   30.105    6.4876
   30.120    6.6245
   30.135    6.1401
   30.150    6.3823
   30.165    6.0664
   30.180    6.1611
   30.195    5.9505
   30.210    6.6140
   30.225    6.4666
   30.240    6.6456
   30.255    6.2665
   30.270    6.1506
   30.285    6.6140
   30.300    6.6351
   30.315    6.4666
   30.330    6.4455
   30.345    6.3928
   30.360    6.4350
   30.375    6.5403
   30.390    6.1401
   30.405    6.1401
   30.420    6.4666
   30.435    6.3507
   30.450    6.5192
   30.465    6.2981
   30.480    6.3507
   30.495    6.2243
   30.510    6.3928
   30.525    6.1717
   30.540    6.4982
   30.555    6.5929
   30.570    6.4139
   30.585    6.5403
   30.600    6.8036
   30.615    6.6667
   30.630    6.6351
   30.645    6.2559
   30.660    6.1822
   30.675    6.2243
   30.690    6.1717
   30.705    6.6035
   30.720    6.3086
   30.735    6.1401
   30.750    5.9610
   30.765    6.6877
   30.780    6.4560
   30.795    6.3402
   30.810    6.4244
   30.825    6.1927
   30.840    6.1295
   30.855    6.3402
   30.870    6.1085
   30.885    6.3402
   30.900    6.3402
   30.915    6.2559
   30.930    6.3086
   30.945    6.5298
   30.960    6.4771
   30.975    6.1611
   30.990    6.1295
   31.005    6.2981
   31.020    6.5403
   31.035    6.3402
   31.050    6.3191
   31.065    6.1717
   31.080    6.6245
   31.095    6.2138
   31.110    6.4876
   31.125    6.6035
   31.140    6.5613
   31.155    6.2243
   31.170    6.5087
   31.185    5.8873
   31.200    6.0137
   31.215    6.0137
   31.230    6.7615
   31.245    6.1717
   31.260    6.3402
   31.275    6.1401
   31.290    6.4350
   31.305    6.2138
   31.320    5.8557
   31.335    5.9610
   31.350    6.4455
   31.365    6.2559
   31.380    6.6140
   31.395    6.1611
   31.410    6.0558
   31.425    6.1611
   31.440    5.8662
   31.455    6.0874
   31.470    6.0453
   31.485    6.3823
   31.500    6.0453
   31.515    6.7088
   31.530    6.2559
   31.545    6.5613
   31.560    6.5298
   31.575    6.2454
   31.590    6.1822
   31.605    6.2138
   31.620    6.0979
   31.635    6.1190
   31.650    6.4034
   31.665    6.2665
   31.680    6.3086
   31.695    6.3507
   31.710    6.1822
   31.725    5.9189
   31.740    6.5824
   31.755    6.3402
   31.770    6.2349
   31.785    6.4666
   31.800    6.2981
   31.815    6.0979
   31.830    6.3086
   31.845    6.1401
   31.860    6.0032
   31.875    6.0137
   31.890    5.9505
   31.905    5.9505
   31.920    5.7504
   31.935    6.2138
   31.950    5.9821
   31.965    6.0664
   31.980    6.0769
   31.995    6.3296
   32.010    5.9716
   32.025    6.2454
   32.040    5.7925
   32.055    6.0242
   32.070    6.3823
   32.085    6.3086
   32.100    6.1717
   32.115    6.1717
   32.130    6.3402
   32.145    6.3191
   32.160    5.9189
   32.175    6.0769
   32.190    6.0769
   32.205    5.9505
   32.220    5.7293
   32.235    5.6767
   32.250    5.7715
   32.265    6.1295
   32.280    6.1190
   32.295    6.0453
   32.310    6.4139
   32.325    5.8241
   32.340    5.7504
   32.355    5.8662
   32.370    5.8452
   32.385    5.9505
   32.400    6.0348
   32.415    6.1295
   32.430    6.0348
   32.445    6.0979
   32.460    5.9610
   32.475    6.0032
   32.490    6.0664
   32.505    5.9505
   32.520    5.6767
   32.535    5.7715
   32.550    6.0032
   32.565    6.1085
   32.580    6.2243
   32.595    6.0874
   32.610    5.9084
   32.625    5.7188
   32.640    5.9400
   32.655    6.2559
   32.670    6.0137
   32.685    5.8768
   32.700    5.9294
   32.715    6.0032
   32.730    5.9505
   32.745    5.7609
   32.760    5.8347
   32.775    5.8347
   32.790    5.8662
   32.805    5.8873
   32.820    6.1506
   32.835    6.0348
   32.850    6.2033
   32.865    5.9610
   32.880    5.6767
   32.895    6.2559
   32.910    5.8031
   32.925    5.5714
   32.940    5.6029
   32.955    5.6767
   32.970    6.1506
   32.985    5.9821
   33.000    5.7504
   33.015    5.8662
   33.030    5.9505
   33.045    6.0137
   33.060    6.2454
   33.075    5.7504
   33.090    5.6872
   33.105    6.0558
   33.120    5.8136
   33.135    6.0242
   33.150    6.1295
   33.165    5.7293
   33.180    5.6767
   33.195    5.7504
   33.210    6.2559
   33.225    5.7609
   33.240    5.4660
   33.255    5.7083
   33.270    5.7504
   33.285    5.4450
   33.300    5.7609
   33.315    5.8031
   33.330    5.6661
   33.345    5.6661
   33.360    5.4134
   33.375    5.6767
   33.390    5.6240
   33.405    5.6345
   33.420    5.6872
   33.435    5.9294
   33.450    5.6872
   33.465    5.6029
   33.480    5.8768
   33.495    5.8557
   33.510    5.8452
   33.525    6.0769
   33.540    6.2033
   33.555    6.0558
   33.570    5.3712
   33.585    5.7609
   33.600    6.0137
   33.615    5.9716
   33.630    5.7925
   33.645    5.9084
   33.660    5.9926
   33.675    5.7293
   33.690    5.2554
   33.705    5.7925
   33.720    5.9400
   33.735    5.6872
   33.750    6.1401
   33.765    5.8031
   33.780    5.4871
   33.795    5.7715
   33.810    5.6240
   33.825    5.5819
   33.840    5.5503
   33.855    5.4555
   33.870    6.0032
   33.885    5.9610
   33.900    5.9610
   33.915    5.4660
   33.930    5.6661
   33.945    5.8241
   33.960    5.9084
   33.975    5.9926
   33.990    5.7925
   34.005    5.5608
   34.020    5.8662
   34.035    5.8978
   34.050    5.8768
   34.065    5.7293
   34.080    5.9505
   34.095    5.7188
   34.110    5.7188
   34.125    5.7820
   34.140    5.9189
   34.155    5.5503
   34.170    6.0242
   34.185    5.5292
   34.200    5.6872
   34.215    5.6135
   34.230    5.3291
   34.245    5.5503
   34.260    5.6240
   34.275    5.5082
   34.290    5.5714
   34.305    5.5082
   34.320    5.4555
   34.335    5.6767
   34.350    5.9716
   34.365    5.6029
   34.380    5.7820
   34.395    5.5819
   34.410    5.2027
   34.425    6.0558
   34.440    5.8978
   34.455    5.7083
   34.470    5.6661
   34.485    5.6345
   34.500    5.3923
   34.515    5.6029
   34.530    5.4239
   34.545    5.5503
   34.560    5.7188
   34.575    5.4134
   34.590    5.6451
   34.605    5.8452
   34.620    5.7715
   34.635    5.5503
   34.650    5.5714
   34.665    5.5819
   34.680    5.6872
   34.695    5.9505
   34.710    5.6872
   34.725    5.6767
   34.740    5.8241
   34.755    5.6556
   34.770    5.8873
   34.785    5.9294
   34.800    5.7820
   34.815    5.9821
   34.830    5.8241
   34.845    5.7925
   34.860    5.8768
   34.875    5.6872
   34.890    5.9610
   34.905    5.4134
   34.920    5.5292
   34.935    5.2238
   34.950    5.4344
   34.965    5.7188
   34.980    5.5398
   34.995    5.2765
   35.010    5.4239
   35.025    6.0874
   35.040    5.5819
   35.055    5.5398
   35.070    5.5503
   35.085    5.3607
   35.100    5.4976
   35.115    5.5714
   35.130    5.4871
   35.145    5.4555
   35.160    5.3291
   35.175    5.3186
   35.190    5.5924
   35.205    5.4134
   35.220    5.1711
   35.235    5.5398
   35.250    5.6767
   35.265    5.6240
   35.280    5.0448
   35.295    5.4028
   35.310    5.4239
   35.325    5.3291
   35.340    5.5398
   35.355    5.6451
   35.370    5.2133
   35.385    5.1606
   35.400    5.3397
   35.415    5.4871
   35.430    5.3291
   35.445    5.2765
   35.460    5.7293
   35.475    5.2449
   35.490    5.1817
   35.505    5.3712
   35.520    5.4134
   35.535    5.5398
   35.550    5.7188
   35.565    5.4344
   35.580    5.1606
   35.595    5.6135
   35.610    5.6556
   35.625    5.7293
   35.640    5.1290
   35.655    5.4450
   35.670    5.4239
   35.685    5.4239
   35.700    5.3291
   35.715    5.5819
   35.730    5.6872
   35.745    5.0553
   35.760    5.2659
   35.775    5.5503
   35.790    5.8031
   35.805    5.3502
   35.820    5.4450
   35.835    5.6345
   35.850    5.7820
   35.865    5.5503
   35.880    5.4134
   35.895    5.9926
   35.910    5.4450
   35.925    5.1711
   35.940    5.0448
   35.955    5.3818
   35.970    5.5292
   35.985    5.5503
   36.000    5.7399
   36.015    5.7188
   36.030    5.4871
   36.045    5.1606
   36.060    5.3291
   36.075    5.3291
   36.090    5.5714
   36.105    5.3712
   36.120    5.3186
   36.135    5.2133
   36.150    5.4555
   36.165    5.6029
   36.180    5.6135
   36.195    5.3502
   36.210    5.4134
   36.225    5.1606
   36.240    5.3291
   36.255    5.2765
   36.270    5.4239
   36.285    5.3712
   36.300    5.4028
   36.315    5.2238
   36.330    5.1185
   36.345    5.3818
   36.360    5.3291
   36.375    5.2975
   36.390    5.3607
   36.405    5.2659
   36.420    4.9921
   36.435    5.3923
   36.450    5.5608
   36.465    5.3081
   36.480    5.4239
   36.495    5.3186
   36.510    5.1395
   36.525    5.3397
   36.540    5.2027
   36.555    4.8131
   36.570    5.2133
   36.585    5.3502
   36.600    5.2133
   36.615    5.2975
   36.630    5.5924
   36.645    5.3291
   36.660    5.3186
   36.675    5.4450
   36.690    5.4344
   36.705    5.2870
   36.720    5.2449
   36.735    5.3186
   36.750    5.2765
   36.765    5.4344
   36.780    5.3923
   36.795    5.4134
   36.810    5.4871
   36.825    5.0869
   36.840    5.4239
   36.855    5.4134
   36.870    5.2975
   36.885    5.3186
   36.900    5.4450
   36.915    4.8341
   36.930    5.4450
   36.945    5.2343
   36.960    4.9921
   36.975    5.4134
   36.990    5.2238
   37.005    5.4555
   37.020    5.6451
   37.035    5.2449
   37.050    5.0448
   37.065    5.1395
   37.080    5.1395
   37.095    5.3818
   37.110    5.0448
   37.125    5.2238
   37.140    5.1817
   37.155    5.0974
   37.170    5.1290
   37.185    5.2027
   37.200    5.2133
   37.215    5.4450
   37.230    5.3923
   37.245    5.2238
   37.260    5.3607
   37.275    5.2449
   37.290    5.4344
   37.305    5.4976
   37.320    5.4134
   37.335    5.0237
   37.350    5.2765
   37.365    5.4134
   37.380    5.4239
   37.395    5.3291
   37.410    5.2870
   37.425    5.0658
   37.440    5.3081
   37.455    5.4344
   37.470    5.4344
   37.485    5.5819
   37.500    5.2765
   37.515    5.1395
   37.530    5.0974
   37.545    5.4660
   37.560    5.4555
   37.575    5.4976
   37.590    5.6661
   37.605    5.1395
   37.620    5.2133
   37.635    5.3397
   37.650    5.6345
   37.665    5.4239
   37.680    5.4239
   37.695    5.2238
   37.710    5.2975
   37.725    5.0764
   37.740    5.0658
   37.755    4.9184
   37.770    5.0553
   37.785    5.4028
   37.800    5.4028
   37.815    4.9921
   37.830    5.3081
   37.845    5.0974
   37.860    5.1080
   37.875    5.4660
   37.890    5.2343
   37.905    5.4344
   37.920    5.3397
   37.935    5.6135
   37.950    5.4555
   37.965    5.2027
   37.980    5.2659
   37.995    5.5924
   38.010    5.4976
   38.025    5.2870
   38.040    5.2343
   38.055    5.1501
   38.070    5.3186
   38.085    5.4766
   38.100    5.1817
   38.115    5.0658
   38.130    5.0553
   38.145    5.3923
   38.160    5.2870
   38.175    5.6240
   38.190    5.6451
   38.205    5.2870
   38.220    5.0974
   38.235    5.1711
   38.250    5.4871
   38.265    5.3712
   38.280    5.4976
   38.295    5.6977
   38.310    5.0658
   38.325    5.4766
   38.340    5.1922
   38.355    5.2343
   38.370    5.5082
   38.385    4.9816
   38.400    5.3291
   38.415    5.2975
   38.430    5.3502
   38.445    5.4134
   38.460    5.3502
   38.475    5.3712
   38.490    5.5714
   38.505    5.0764
   38.520    5.2765
   38.535    5.5714
   38.550    5.1080
   38.565    5.2449
   38.580    4.8763
   38.595    5.4450
   38.610    5.2554
   38.625    5.0869
   38.640    5.2659
   38.655    5.0342
   38.670    5.1501
   38.685    5.0026
   38.700    4.9605
   38.715    5.3923
   38.730    5.5714
   38.745    5.3818
   38.760    4.9289
   38.775    5.4028
   38.790    5.0026
   38.805    5.1606
   38.820    5.0869
   38.835    5.0869
   38.850    5.0658
   38.865    5.3607
   38.880    5.3186
   38.895    5.3502
   38.910    5.4555
   38.925    5.0448
   38.940    5.6029
   38.955    5.0869
   38.970    5.0764
   38.985    5.0342
   39.000    5.0869
   39.015    5.0342
   39.030    5.6661
   39.045    5.2449
   39.060    5.0553
   39.075    5.4555
   39.090    5.4134
   39.105    5.1817
   39.120    5.3502
   39.135    5.3607
   39.150    5.1185
   39.165    4.9921
   39.180    5.1185
   39.195    5.0869
   39.210    5.1501
   39.225    5.2133
   39.240    4.8657
   39.255    5.0658
   39.270    5.1290
   39.285    5.1711
   39.300    5.6135
   39.315    5.4660
   39.330    5.4660
   39.345    5.0869
   39.360    5.4766
   39.375    5.1606
   39.390    5.0658
   39.405    5.2765
   39.420    5.3607
   39.435    5.4134
   39.450    4.8868
   39.465    5.1817
   39.480    5.4766
   39.495    5.3818
   39.510    5.0132
   39.525    4.7815
   39.540    5.1395
   39.555    5.2554
   39.570    4.8763
   39.585    4.9184
   39.600    5.1080
   39.615    5.1501
   39.630    5.0869
   39.645    5.2870
   39.660    5.0658
   39.675    5.2238
   39.690    5.2975
   39.705    5.1606
   39.720    5.3502
   39.735    4.9184
   39.750    5.4028
   39.765    4.9289
   39.780    5.2659
   39.795    5.2659
   39.810    5.0026
   39.825    4.8025
   39.840    4.8868
   39.855    4.8657
   39.870    5.5714
   39.885    5.2238
   39.900    5.0342
   39.915    5.3712
   39.930    5.2554
   39.945    5.3397
   39.960    5.2765
   39.975    5.2449
   39.990    5.2449
