    1.500   14.4602
    1.515   14.2075
    1.530   14.7130
    1.545   14.7025
    1.560   14.5445
    1.575   14.7235
    1.590   14.3128
    1.605   13.8705
    1.620   14.4076
    1.635   14.0284
    1.650   13.7862
    1.665   13.4071
    1.680   13.5124
    1.695   13.6177
    1.710   13.5861
    1.725   13.0806
    1.740   13.3860
    1.755   12.9226
    1.770   13.0279
    1.785   12.9963
    1.800   12.7436
    1.815   12.7120
    1.830   12.6066
    1.845   11.5956
    1.860   11.7536
    1.875   12.0800
    1.890   11.9431
    1.905   12.2486
    1.920   11.9642
    1.935   12.3855
    1.950   12.1643
    1.965   12.2696
    1.980   11.8378
    1.995   12.2591
    2.010   12.8594
    2.025   11.9747
    2.040   11.7641
    2.055   11.2480
    2.070   11.6904
    2.085   11.8167
    2.100   11.7957
    2.115   11.5324
    2.130   11.5956
    2.145   11.7746
    2.160   12.2275
    2.175   10.9953
    2.190   11.1111
    2.205   11.3217
    2.220   11.3849
    2.235   11.5429
    2.250   11.5324
    2.265   11.5113
    2.280   10.9531
    2.295   11.2586
    2.310   11.1322
    2.325   11.1322
    2.340   10.9637
    2.355   11.1216
    2.370   11.0795
    2.385   11.4165
    2.400   10.9110
    2.415   11.0585
    2.430   11.5640
    2.445   11.0058
    2.460   11.4903
    2.475   11.5850
    2.490   11.2375
    2.505   11.4376
    2.520   11.8167
    2.535   12.1327
    2.550   11.6693
    2.565   11.6377
    2.580   12.1854
    2.595   12.3749
    2.610   12.0695
    2.625   12.0800
    2.640   12.2907
    2.655   12.2696
    2.670   12.5645
    2.685   12.6909
    2.700   12.5013
    2.715   12.4908
    2.730   12.9542
    2.745   12.8594
    2.760   12.5750
    2.775   12.8805
    2.790   13.2491
    2.805   13.6072
    2.820   13.5861
    2.835   14.0706
    2.850   14.0284
    2.865   13.8810
    2.880   14.5024
    2.895   14.5445
    2.910   14.6498
    2.925   14.7235
    2.940   15.2185
    2.955   15.1343
    2.970   16.0821
    2.985   15.7767
    3.000   15.7135
    3.015   16.2612
    3.030   16.8088
    3.045   16.5245
    3.060   16.9352
    3.075   17.1985
    3.090   17.3460
    3.105   17.7988
    3.120   18.4518
    3.135   18.8520
    3.150   18.9995
    3.165   19.6946
    3.180   19.1048
    3.195   20.3370
    3.210   20.8636
    3.225   21.0532
    3.240   21.6430
    3.255   22.4223
    3.270   23.0964
    3.285   23.7809
    3.300   24.1180
    3.315   24.9184
    3.330   25.4976
    3.345   26.8141
    3.360   26.8352
    3.375   28.1727
    3.390   28.7520
    3.405   30.1316
    3.420   31.1427
    3.435   32.0169
    3.450   32.6593
    3.465   33.2701
    3.480   34.5445
    3.495   36.7351
    3.510   36.5561
    3.525   37.6725
    3.540   39.3997
    3.555   41.5798
    3.570   42.7278
    3.585   43.1069
    3.600   45.9610
    3.615   48.6151
    3.630   49.8684
    3.645   52.9753
    3.660   54.4497
    3.675   56.7773
    3.690   60.0527
    3.705   63.3281
    3.720   67.5513
    3.735   72.8489
    3.750   75.8820
    3.765   81.0216
    3.780   87.7304
    3.795   93.9652
    3.810  101.2112
    3.825  111.9431
    3.840  125.8452
    3.855  144.6761
    3.870  169.6367
    3.885  197.0195
    3.900  212.0906
    3.915  210.5003
    3.930  191.5113
    3.945  150.1738
    3.960   93.0911
    3.975   40.8004
    3.990   16.4297
    4.005   10.4581
    4.020    8.6361
    4.035    8.1306
    4.050    7.8778
    4.065    7.5303
    4.080    7.3196
    4.095    7.1511
    4.110    7.0458
    4.125    6.9510
    4.140    6.8246
    4.155    6.3402
    4.170    6.6140
    4.185    6.5298
    4.200    6.6983
    4.215    6.3612
    4.230    6.4982
    4.245    6.5403
    4.260    6.4876
    4.275    6.4666
    4.290    6.5929
    4.305    6.4139
    4.320    6.4666
    4.335    6.0874
    4.350    6.4666
    4.365    6.5192
    4.380    6.4350
    4.395    6.4244
    4.410    6.4139
    4.425    6.7930
    4.440    6.1822
    4.455    6.2770
    4.470    6.4666
    4.485    6.3928
    4.500    6.1085
    4.515    6.3402
    4.530    6.6035
    4.545    6.5719
    4.560    6.7193
    4.575    6.6877
    4.590    6.3296
    4.605    6.8878
    4.620    6.9616
    4.635    7.3618
    4.650    7.1617
    4.665    7.0458
    4.680    7.0985
    4.695    7.2986
    4.710    7.0774
    4.725    6.8562
    4.740    7.4250
    4.755    7.6988
    4.770    7.7093
    4.785    7.6251
    4.800    7.5619
    4.815    7.8778
    4.830    7.7830
    4.845    8.1938
    4.860    7.8778
    4.875    7.8673
    4.890    7.8462
    4.905    8.5308
    4.920    8.8678
    4.935    9.0679
    4.950    9.0047
    4.965    8.9837
    4.980    9.4365
    4.995    9.5945
    5.010    9.3102
    5.025   10.0158
    5.040   10.4265
    5.055   10.0685
    5.070   10.8162
    5.085   10.8373
    5.100   11.2059
    5.115   11.4692
    5.130   12.1222
    5.145   12.2275
    5.160   13.0806
    5.175   13.2596
    5.190   13.9863
    5.205   14.5129
    5.220   14.3971
    5.235   15.3449
    5.250   16.0400
    5.265   16.7983
    5.280   17.6830
    5.295   18.3360
    5.310   19.6103
    5.325   20.7372
    5.340   22.1169
    5.355   22.0958
    5.370   23.0542
    5.385   25.3081
    5.400   27.7199
    5.415   29.8999
    5.430   32.0800
    5.445   36.3876
    5.460   40.7478
    5.475   45.3291
    5.490   53.2280
    5.505   60.7056
    5.520   66.7615
    5.535   67.1617
    5.550   60.9689
    5.565   49.9105
    5.580   33.3228
    5.595   17.9568
    5.610    9.8052
    5.625    7.0353
    5.640    6.2665
    5.655    5.8768
    5.670    5.9926
    5.685    5.4555
    5.700    4.9605
    5.715    5.4766
    5.730    5.7504
    5.745    5.6661
    5.760    5.2238
    5.775    5.2659
    5.790    5.5398
    5.805    5.8557
    5.820    5.7925
    5.835    5.6345
    5.850    5.3081
    5.865    5.1606
    5.880    5.3081
    5.895    5.5398
    5.910    5.3712
    5.925    5.3712
    5.940    5.7188
    5.955    5.3607
    5.970    5.6767
    5.985    5.4660
    6.000    5.7715
    6.015    5.7504
    6.030    5.6451
    6.045    5.9084
    6.060    5.6872
    6.075    5.8557
    6.090    6.1085
    6.105    5.7925
    6.120    6.0769
    6.135    5.8662
    6.150    6.0453
    6.165    6.1506
    6.180    5.8557
    6.195    5.8136
    6.210    6.0558
    6.225    5.7609
    6.240    5.8873
    6.255    5.8347
    6.270    6.1611
    6.285    6.5719
    6.300    6.5087
    6.315    6.5298
    6.330    6.3612
    6.345    6.7720
    6.360    6.8246
    6.375    6.6667
    6.390    6.8562
    6.405    6.9510
    6.420    7.0669
    6.435    7.1301
    6.450    7.5303
    6.465    7.5619
    6.480    7.7409
    6.495    8.1727
    6.510    7.3512
    6.525    8.1622
    6.540    8.5097
    6.555    8.6361
    6.570    8.8678
    6.585    9.3628
    6.600    9.3944
    6.615    9.6577
    6.630   10.3423
    6.645   11.1322
    6.660   11.4271
    6.675   12.3433
    6.690   13.4913
    6.705   14.4497
    6.720   16.3244
    6.735   18.5677
    6.750   20.9057
    6.765   22.3697
    6.780   22.5698
    6.795   21.0427
    6.810   17.8410
    6.825   13.0174
    6.840    8.6993
    6.855    6.3928
    6.870    5.5714
    6.885    5.3502
    6.900    5.6661
    6.915    5.3291
    6.930    5.1501
    6.945    5.0026
    6.960    5.3607
    6.975    5.0448
    6.990    5.0974
    7.005    5.1922
    7.020    5.0026
    7.035    5.5082
    7.050    5.4450
    7.065    5.2449
    7.080    5.5292
    7.095    5.3502
    7.110    5.4239
    7.125    5.5292
    7.140    5.2449
    7.155    5.4871
    7.170    5.5608
    7.185    5.5608
    7.200    5.5608
    7.215    5.6345
    7.230    5.4871
    7.245    4.9710
    7.260    5.4344
    7.275    5.0132
    7.290    5.3502
    7.305    5.3502
    7.320    5.6135
    7.335    5.7188
    7.350    5.9294
    7.365    5.4766
    7.380    5.7083
    7.395    6.0874
    7.410    5.8768
    7.425    6.2349
    7.440    6.1085
    7.455    5.9505
    7.470    6.2981
    7.485    6.1822
    7.500    6.1190
    7.515    6.2138
    7.530    6.4982
    7.545    6.8457
    7.560    6.9089
    7.575    6.9616
    7.590    6.9721
    7.605    6.9194
    7.620    6.8984
    7.635    7.7830
    7.650    8.2780
    7.665    8.5097
    7.680    8.8468
    7.695    9.2575
    7.710    9.5103
    7.725   10.1211
    7.740   11.1532
    7.755   11.7114
    7.770   12.9647
    7.785   14.4181
    7.800   16.3876
    7.815   17.3038
    7.830   17.9674
    7.845   16.3876
    7.860   14.2601
    7.875   10.5319
    7.890    7.5197
    7.905    5.7504
    7.920    5.5187
    7.935    5.5503
    7.950    5.3712
    7.965    5.1080
    7.980    5.0869
    7.995    5.2554
    8.010    5.0974
    8.025    5.1711
    8.040    5.0869
    8.055    4.9078
    8.070    5.0342
    8.085    5.4344
    8.100    5.2975
    8.115    5.0448
    8.130    5.0658
    8.145    5.2133
    8.160    5.2449
    8.175    5.2554
    8.190    4.8236
    8.205    4.8973
    8.220    5.1922
    8.235    5.0026
    8.250    5.1185
    8.265    5.3291
    8.280    5.2870
    8.295    4.7077
    8.310    4.9710
    8.325    5.1290
    8.340    5.1290
    8.355    5.0974
    8.370    5.1922
    8.385    5.1290
    8.400    4.9289
    8.415    4.9710
    8.430    5.0658
    8.445    5.3081
    8.460    5.0237
    8.475    5.0553
    8.490    4.8236
    8.505    4.9289
    8.520    5.2765
    8.535    4.9921
    8.550    5.3081
    8.565    5.1922
    8.580    5.5608
    8.595    5.5608
    8.610    5.3397
    8.625    5.3502
    8.640    5.5608
    8.655    5.8241
    8.670    5.7399
    8.685    5.6977
    8.700    6.1717
    8.715    6.3718
    8.730    6.6983
    8.745    7.0037
    8.760    6.3296
    8.775    6.2349
    8.790    5.7925
    8.805    5.5292
    8.820    5.4976
    8.835    4.9394
    8.850    4.9710
    8.865    4.8025
    8.880    4.7499
    8.895    4.9184
    8.910    4.9078
    8.925    4.7288
    8.940    5.0869
    8.955    5.0764
    8.970    5.2554
    8.985    4.9816
    9.000    5.0974
    9.015    5.2027
    9.030    5.5924
    9.045    5.7504
    9.060    5.5608
    9.075    5.3818
    9.090    5.4976
    9.105    5.8136
    9.120    5.4555
    9.135    5.7293
    9.150    5.8557
    9.165    6.1611
    9.180    6.0348
    9.195    6.1401
    9.210    6.0979
    9.225    6.4244
    9.240    6.3402
    9.255    6.6983
    9.270    6.7404
    9.285    6.8668
    9.300    7.3934
    9.315    7.5197
    9.330    7.7514
    9.345    8.1833
    9.360    8.3518
    9.375    8.4676
    9.390    9.2996
    9.405    9.8789
    9.420   10.1632
    9.435   10.9110
    9.450   12.1643
    9.465   12.8910
    9.480   14.0390
    9.495   15.7978
    9.510   17.2828
    9.525   19.2838
    9.540   22.4645
    9.555   26.7615
    9.570   30.2159
    9.585   31.4060
    9.600   30.3949
    9.615   26.8878
    9.630   21.7378
    9.645   14.7025
    9.660    9.6577
    9.675    6.3402
    9.690    5.2659
    9.705    5.2765
    9.720    5.2343
    9.735    4.8868
    9.750    4.9078
    9.765    4.7815
    9.780    4.8763
    9.795    5.0132
    9.810    4.7499
    9.825    4.9816
    9.840    4.8657
    9.855    4.9394
    9.870    4.9605
    9.885    4.7815
    9.900    5.2238
    9.915    5.5082
    9.930    5.2343
    9.945    5.5082
    9.960    5.1290
    9.975    4.9289
    9.990    5.3712
   10.005    5.4555
   10.020    5.3186
   10.035    5.4344
   10.050    5.4239
   10.065    5.2975
   10.080    5.9610
   10.095    5.7504
   10.110    5.8347
   10.125    5.6345
   10.140    6.3402
   10.155    6.4244
   10.170    6.0558
   10.185    6.5403
   10.200    6.6140
   10.215    7.1406
   10.230    7.5303
   10.245    7.7199
   10.260    7.9937
   10.275    8.5624
   10.290    9.6998
   10.305   10.7952
   10.320   12.0169
   10.335   13.5229
   10.350   13.7757
   10.365   13.6282
   10.380   12.8278
   10.395   11.3744
   10.410    8.9626
   10.425    7.2459
   10.440    5.9610
   10.455    5.2765
   10.470    5.2975
   10.485    4.7920
   10.500    4.6656
   10.515    4.8131
   10.530    5.2449
   10.545    4.7920
   10.560    4.5919
   10.575    4.7604
   10.590    4.9184
   10.605    5.2343
   10.620    5.0553
   10.635    4.8973
   10.650    4.8973
   10.665    5.2343
   10.680    4.8236
   10.695    5.0974
   10.710    5.0658
   10.725    4.9394
   10.740    5.2133
   10.755    5.3502
   10.770    5.2765
   10.785    5.3291
   10.800    5.5082
   10.815    5.2449
   10.830    5.2659
   10.845    5.6240
   10.860    5.9294
   10.875    5.5608
   10.890    6.0348
   10.905    6.1611
   10.920    6.1927
   10.935    6.7299
   10.950    6.3823
   10.965    6.9616
   10.980    7.6356
   10.995    8.1095
   11.010    8.8046
   11.025    9.1522
   11.040   10.4476
   11.055   11.6588
   11.070   11.7536
   11.085   11.6061
   11.100   11.4165
   11.115    9.9842
   11.130    8.4150
   11.145    6.2875
   11.160    5.3923
   11.175    4.7604
   11.190    4.8657
   11.205    4.8552
   11.220    4.7077
   11.235    4.8236
   11.250    4.5603
   11.265    4.8868
   11.280    5.1080
   11.295    4.8763
   11.310    4.9184
   11.325    4.8973
   11.340    4.9710
   11.355    4.7183
   11.370    5.0026
   11.385    4.8447
   11.400    4.9500
   11.415    5.1395
   11.430    4.9500
   11.445    4.8868
   11.460    5.2554
   11.475    5.1185
   11.490    5.4134
   11.505    5.1817
   11.520    5.5082
   11.535    5.7609
   11.550    5.8347
   11.565    5.9610
   11.580    5.9400
   11.595    6.2559
   11.610    6.6877
   11.625    7.5935
   11.640    7.3723
   11.655    7.4882
   11.670    8.4887
   11.685    9.1943
   11.700   10.4160
   11.715   11.9326
   11.730   12.3960
   11.745   13.1016
   11.760   13.5861
   11.775   12.6382
   11.790    9.9526
   11.805    8.1622
   11.820    6.5613
   11.835    5.4239
   11.850    4.7499
   11.865    4.8341
   11.880    4.7709
   11.895    4.4444
   11.910    4.7920
   11.925    4.7499
   11.940    4.5182
   11.955    4.8236
   11.970    4.4550
   11.985    4.6867
   12.000    4.6761
   12.015    4.8447
   12.030    4.6972
   12.045    4.6130
   12.060    4.8025
   12.075    4.5392
   12.090    4.6235
   12.105    4.5392
   12.120    4.6867
   12.135    4.8657
   12.150    4.7709
   12.165    4.8657
   12.180    4.4866
   12.195    4.6867
   12.210    4.4866
   12.225    4.5919
   12.240    4.6867
   12.255    4.9500
   12.270    5.1711
   12.285    5.1080
   12.300    5.0658
   12.315    5.1501
   12.330    5.4239
   12.345    5.2765
   12.360    5.4660
   12.375    6.0453
   12.390    5.8241
   12.405    5.6029
   12.420    5.5082
   12.435    5.0448
   12.450    5.2870
   12.465    5.0553
   12.480    4.8025
   12.495    4.6656
   12.510    4.8341
   12.525    4.6551
   12.540    4.5392
   12.555    4.7288
   12.570    4.6656
   12.585    4.8763
   12.600    4.6656
   12.615    4.4339
   12.630    4.5603
   12.645    4.8131
   12.660    4.4760
   12.675    4.9078
   12.690    4.9605
   12.705    4.8236
   12.720    4.9184
   12.735    5.0974
   12.750    4.8025
   12.765    5.3818
   12.780    4.7183
   12.795    5.3291
   12.810    5.2554
   12.825    5.3081
   12.840    5.7399
   12.855    5.9189
   12.870    6.0348
   12.885    5.9610
   12.900    6.6456
   12.915    6.7404
   12.930    6.9300
   12.945    7.9831
   12.960    8.8994
   12.975    9.2470
   12.990    9.8262
   13.005    9.2680
   13.020    8.9837
   13.035    7.8146
   13.050    7.2670
   13.065    6.1190
   13.080    5.2765
   13.095    4.8341
   13.110    4.6340
   13.125    4.5603
   13.140    4.2022
   13.155    4.6551
   13.170    4.5392
   13.185    4.6551
   13.200    4.4234
   13.215    4.5708
   13.230    4.6656
   13.245    4.8763
   13.260    5.0026
   13.275    4.8973
   13.290    4.8552
   13.305    4.6551
   13.320    4.9921
   13.335    4.7815
   13.350    4.6867
   13.365    4.8131
   13.380    5.0553
   13.395    4.6972
   13.410    5.1395
   13.425    5.1395
   13.440    5.4450
   13.455    5.3818
   13.470    5.0974
   13.485    5.1922
   13.500    6.2243
   13.515    6.3612
   13.530    6.5824
   13.545    6.8984
   13.560    6.8878
   13.575    7.3196
   13.590    7.2143
   13.605    6.7193
   13.620    6.5508
   13.635    5.9294
   13.650    5.0448
   13.665    5.1922
   13.680    4.9605
   13.695    4.5603
   13.710    4.7920
   13.725    4.4234
   13.740    4.7604
   13.755    4.6340
   13.770    4.5076
   13.785    4.5392
   13.800    4.6972
   13.815    4.5498
   13.830    4.8341
   13.845    4.9816
   13.860    4.8447
   13.875    4.8025
   13.890    4.8868
   13.905    4.9394
   13.920    5.1711
   13.935    5.4871
   13.950    5.1817
   13.965    5.5714
   13.980    5.1711
   13.995    5.2659
   14.010    5.9610
   14.025    5.8768
   14.040    6.1611
   14.055    6.5192
   14.070    7.3828
   14.085    8.1517
   14.100    8.8362
   14.115    9.0574
   14.130    9.3839
   14.145    8.9731
   14.160    8.6256
   14.175    8.0147
   14.190    7.1933
   14.205    6.2243
   14.220    5.0869
   14.235    4.5603
   14.250    4.8236
   14.265    4.5498
   14.280    4.3497
   14.295    4.6867
   14.310    4.6656
   14.325    4.5498
   14.340    4.6340
   14.355    4.3813
   14.370    4.1706
   14.385    4.4339
   14.400    4.5287
   14.415    4.4444
   14.430    4.7920
   14.445    4.3813
   14.460    4.4128
   14.475    4.6340
   14.490    4.7183
   14.505    4.4128
   14.520    4.4234
   14.535    4.6972
   14.550    4.4655
   14.565    4.9710
   14.580    4.7499
   14.595    4.8341
   14.610    4.7288
   14.625    4.6340
   14.640    4.5603
   14.655    4.2865
   14.670    4.3707
   14.685    4.3391
   14.700    4.3813
   14.715    4.4760
   14.730    4.0758
   14.745    4.5919
   14.760    4.5392
   14.775    4.5603
   14.790    4.4760
   14.805    4.9394
   14.820    4.6130
   14.835    4.2338
   14.850    4.4444
   14.865    4.8868
   14.880    4.4128
   14.895    4.2865
   14.910    4.5708
   14.925    4.4339
   14.940    4.6656
   14.955    4.5498
   14.970    5.0132
   14.985    4.7709
   15.000    4.6130
   15.015    4.6551
   15.030    4.7183
   15.045    4.8973
   15.060    4.9078
   15.075    4.9710
   15.090    5.1501
   15.105    4.9500
   15.120    5.1817
   15.135    5.4450
   15.150    5.3186
   15.165    5.6661
   15.180    5.5714
   15.195    5.4660
   15.210    5.5292
   15.225    5.2133
   15.240    5.2554
   15.255    4.7077
   15.270    4.3075
   15.285    4.6445
   15.300    4.9289
   15.315    4.8236
   15.330    4.5182
   15.345    4.4550
   15.360    4.0442
   15.375    4.4444
   15.390    4.5708
   15.405    4.5287
   15.420    4.4444
   15.435    4.6551
   15.450    4.4444
   15.465    4.0653
   15.480    4.5708
   15.495    4.4444
   15.510    4.0653
   15.525    4.5498
   15.540    4.4655
   15.555    4.6972
   15.570    4.6551
   15.585    4.6551
   15.600    4.4128
   15.615    4.5814
   15.630    4.6972
   15.645    4.6867
   15.660    4.7709
   15.675    4.7920
   15.690    4.5919
   15.705    4.7393
   15.720    4.6130
   15.735    4.3813
   15.750    4.4444
   15.765    4.3602
   15.780    4.1496
   15.795    4.6340
   15.810    4.3391
   15.825    4.3918
   15.840    4.6024
   15.855    4.7288
   15.870    4.3707
   15.885    4.5708
   15.900    4.5182
   15.915    4.5708
   15.930    4.3813
   15.945    4.6445
   15.960    4.5392
   15.975    4.8236
   15.990    4.6340
   16.005    4.7499
   16.020    4.9710
   16.035    4.6551
   16.050    4.8236
   16.065    4.9921
   16.080    5.2554
   16.095    5.0764
   16.110    4.8236
   16.125    5.0132
   16.140    5.7083
   16.155    5.6767
   16.170    5.3186
   16.185    5.1501
   16.200    5.0764
   16.215    5.0658
   16.230    5.1922
   16.245    4.7815
   16.260    4.6445
   16.275    4.8025
   16.290    4.6761
   16.305    4.9605
   16.320    4.6130
   16.335    4.3286
   16.350    4.5287
   16.365    4.5182
   16.380    4.5919
   16.395    4.6551
   16.410    4.6130
   16.425    4.6656
   16.440    4.6656
   16.455    4.3497
   16.470    4.6761
   16.485    4.6551
   16.500    4.6972
   16.515    4.9710
   16.530    4.9289
   16.545    5.1817
   16.560    4.9710
   16.575    5.5398
   16.590    5.2975
   16.605    5.0764
   16.620    5.6451
   16.635    5.6767
   16.650    6.0558
   16.665    5.6451
   16.680    5.7820
   16.695    5.4976
   16.710    5.1922
   16.725    4.9816
   16.740    4.6656
   16.755    4.6235
   16.770    4.8131
   16.785    5.0553
   16.800    5.0237
   16.815    4.4655
   16.830    4.6024
   16.845    4.6761
   16.860    4.8025
   16.875    4.7815
   16.890    4.5498
   16.905    4.7393
   16.920    5.2659
   16.935    5.3712
   16.950    5.2238
   16.965    5.1817
   16.980    5.7715
   16.995    5.7504
   17.010    6.3296
   17.025    6.6140
   17.040    6.7088
   17.055    7.1827
   17.070    8.1201
   17.085    8.5835
   17.100    8.4466
   17.115    8.7309
   17.130    8.2043
   17.145    7.6777
   17.160    7.0774
   17.175    6.3507
   17.190    5.3712
   17.205    5.3923
   17.220    5.1185
   17.235    4.9605
   17.250    4.9605
   17.265    4.6235
   17.280    4.6130
   17.295    4.3707
   17.310    4.4971
   17.325    4.8025
   17.340    4.8447
   17.355    4.8657
   17.370    4.7815
   17.385    4.7815
   17.400    4.7183
   17.415    4.7604
   17.430    4.7077
   17.445    4.5287
   17.460    4.7604
   17.475    5.2659
   17.490    5.0237
   17.505    5.1817
   17.520    5.4450
   17.535    5.3712
   17.550    5.4134
   17.565    5.7925
   17.580    5.9084
   17.595    5.2343
   17.610    5.0132
   17.625    5.4766
   17.640    4.7077
   17.655    4.6024
   17.670    4.6235
   17.685    4.4866
   17.700    4.9816
   17.715    4.8447
   17.730    4.4655
   17.745    4.4550
   17.760    4.7499
   17.775    4.6340
   17.790    4.3918
   17.805    4.4866
   17.820    5.0237
   17.835    4.5814
   17.850    4.8973
   17.865    4.9394
   17.880    4.8973
   17.895    4.7815
   17.910    4.9816
   17.925    5.1606
   17.940    5.2449
   17.955    5.2765
   17.970    5.2975
   17.985    5.2870
   18.000    5.4344
   18.015    5.3291
   18.030    5.4976
   18.045    5.1080
   18.060    5.0448
   18.075    5.0658
   18.090    4.6867
   18.105    4.8236
   18.120    4.6761
   18.135    4.6761
   18.150    4.6972
   18.165    4.3181
   18.180    4.4128
   18.195    4.5076
   18.210    4.3707
   18.225    4.3497
   18.240    4.5392
   18.255    4.6761
   18.270    4.5814
   18.285    5.0026
   18.300    4.7077
   18.315    4.6867
   18.330    4.8447
   18.345    5.3502
   18.360    5.4976
   18.375    5.4028
   18.390    5.6872
   18.405    5.5608
   18.420    6.0032
   18.435    5.6556
   18.450    5.1711
   18.465    5.3607
   18.480    5.2975
   18.495    4.9710
   18.510    4.5708
   18.525    4.2338
   18.540    4.7077
   18.555    4.4971
   18.570    4.9605
   18.585    4.6867
   18.600    4.4128
   18.615    4.7920
   18.630    4.5182
   18.645    4.5603
   18.660    4.7815
   18.675    4.5498
   18.690    5.0237
   18.705    4.7499
   18.720    4.6972
   18.735    4.8868
   18.750    4.7499
   18.765    5.0448
   18.780    5.2133
   18.795    5.0658
   18.810    4.8657
   18.825    4.8973
   18.840    5.2870
   18.855    5.3712
   18.870    5.3081
   18.885    5.3291
   18.900    5.1501
   18.915    5.5082
   18.930    5.2659
   18.945    5.4450
   18.960    5.1501
   18.975    5.3291
   18.990    5.6661
   19.005    5.8978
   19.020    5.9294
   19.035    5.9926
   19.050    5.4976
   19.065    5.6767
   19.080    5.4344
   19.095    5.1711
   19.110    5.0342
   19.125    4.5603
   19.140    4.7815
   19.155    4.8236
   19.170    4.7077
   19.185    4.6972
   19.200    4.6445
   19.215    4.6972
   19.230    5.1606
   19.245    5.1501
   19.260    5.0237
   19.275    4.9078
   19.290    4.4866
   19.305    4.7077
   19.320    4.6130
   19.335    4.8341
   19.350    4.7393
   19.365    4.5814
   19.380    4.9816
   19.395    4.7499
   19.410    4.5919
   19.425    4.4971
   19.440    4.5919
   19.455    4.8131
   19.470    4.9816
   19.485    4.8552
   19.500    4.8657
   19.515    4.8447
   19.530    5.1606
   19.545    4.8763
   19.560    4.9289
   19.575    5.2343
   19.590    5.3712
   19.605    5.5819
   19.620    5.8873
   19.635    6.0874
   19.650    6.2349
   19.665    5.8873
   19.680    5.5292
   19.695    5.7188
   19.710    5.2133
   19.725    5.1606
   19.740    5.0448
   19.755    4.7709
   19.770    5.0132
   19.785    4.7499
   19.800    4.6656
   19.815    4.8657
   19.830    4.6972
   19.845    4.9078
   19.860    4.7815
   19.875    4.7183
   19.890    4.6130
   19.905    4.4339
   19.920    4.8973
   19.935    4.5708
   19.950    4.6340
   19.965    4.6235
   19.980    4.6867
   19.995    4.4128
   20.010    4.8131
   20.025    4.9921
   20.040    4.7288
   20.055    4.9394
   20.070    4.5498
   20.085    4.4971
   20.100    4.8657
   20.115    4.7920
   20.130    4.8552
   20.145    4.9184
   20.160    4.7288
   20.175    4.7604
   20.190    4.6867
   20.205    4.8657
   20.220    5.0974
   20.235    4.9710
   20.250    5.1395
   20.265    4.9921
   20.280    4.8131
   20.295    5.1922
   20.310    5.5292
   20.325    6.0664
   20.340    5.7715
   20.355    6.2559
   20.370    6.8668
   20.385    7.3302
   20.400    7.4460
   20.415    7.8884
   20.430    8.1095
   20.445    7.3407
   20.460    7.0458
   20.475    6.6456
   20.490    6.4455
   20.505    5.9926
   20.520    5.3186
   20.535    4.5814
   20.550    4.4444
   20.565    4.6130
   20.580    4.8763
   20.595    4.7183
   20.610    5.0026
   20.625    4.8868
   20.640    4.6972
   20.655    4.6972
   20.670    4.7920
   20.685    4.9816
   20.700    4.7393
   20.715    4.8552
   20.730    4.8236
   20.745    4.6551
   20.760    4.6656
   20.775    4.8131
   20.790    4.7709
   20.805    5.1606
   20.820    4.7288
   20.835    4.8236
   20.850    4.4971
   20.865    4.5708
   20.880    4.7077
   20.895    4.7288
   20.910    4.5919
   20.925    4.7604
   20.940    4.6761
   20.955    4.7183
   20.970    4.4444
   20.985    4.6656
   21.000    4.6656
   21.015    4.5919
   21.030    4.5708
   21.045    4.5919
   21.060    4.8236
   21.075    4.7709
   21.090    4.8236
   21.105    4.9184
   21.120    4.8973
   21.135    4.7499
   21.150    4.9078
   21.165    4.8341
   21.180    4.8868
   21.195    4.8763
   21.210    4.9289
   21.225    4.8763
   21.240    4.7077
   21.255    4.7393
   21.270    4.8973
   21.285    4.6656
   21.300    4.7815
   21.315    4.5603
   21.330    4.8552
   21.345    4.6235
   21.360    4.5498
   21.375    4.5603
   21.390    4.7288
   21.405    4.7815
   21.420    4.9078
   21.435    4.8447
   21.450    4.7604
   21.465    4.5182
   21.480    5.0553
   21.495    4.6761
   21.510    4.7288
   21.525    4.8763
   21.540    4.8025
   21.555    4.8868
   21.570    4.7288
   21.585    4.5919
   21.600    4.9816
   21.615    4.8236
   21.630    5.2343
   21.645    5.0974
   21.660    4.8236
   21.675    4.6445
   21.690    4.8868
   21.705    5.1606
   21.720    4.7709
   21.735    4.7604
   21.750    4.8131
   21.765    5.2870
   21.780    5.1501
   21.795    4.9184
   21.810    5.1501
   21.825    5.1817
   21.840    5.2343
   21.855    5.3081
   21.870    5.4660
   21.885    5.6345
   21.900    5.5082
   21.915    5.9400
   21.930    5.8347
   21.945    5.8873
   21.960    5.9189
   21.975    5.0764
   21.990    4.8763
   22.005    4.9816
   22.020    4.9289
   22.035    4.8131
   22.050    4.8447
   22.065    4.7183
   22.080    4.6867
   22.095    4.9184
   22.110    5.1922
   22.125    5.1606
   22.140    5.0764
   22.155    5.1290
   22.170    5.0342
   22.185    5.2870
   22.200    5.2027
   22.215    5.1817
   22.230    5.4766
   22.245    5.4239
   22.260    5.6556
   22.275    5.4766
   22.290    5.6872
   22.305    5.4555
   22.320    4.9710
   22.335    4.9078
   22.350    4.8552
   22.365    4.8868
   22.380    5.0132
   22.395    4.8763
   22.410    5.1395
   22.425    4.9500
   22.440    4.9710
   22.455    5.3186
   22.470    5.3923
   22.485    5.4766
   22.500    5.9189
   22.515    6.1822
   22.530    6.3086
   22.545    6.7404
   22.560    7.3618
   22.575    7.8673
   22.590    8.3307
   22.605    8.2464
   22.620    8.1517
   22.635    7.8462
   22.650    7.0563
   22.665    6.6140
   22.680    6.2770
   22.695    5.8452
   22.710    5.5924
   22.725    5.4766
   22.740    4.8236
   22.755    4.8236
   22.770    5.0342
   22.785    4.9921
   22.800    5.2554
   22.815    5.3502
   22.830    5.6240
   22.845    5.9189
   22.860    5.9505
   22.875    6.2559
   22.890    6.9510
   22.905    7.2459
   22.920    7.3723
   22.935    7.9831
   22.950    8.0674
   22.965    8.3518
   22.980    8.0147
   22.995    7.4144
   23.010    6.9194
   23.025    6.4666
   23.040    5.9926
   23.055    5.7083
   23.070    5.5608
   23.085    5.0764
   23.100    5.2133
   23.115    5.2449
   23.130    5.1290
   23.145    5.3291
   23.160    5.0132
   23.175    5.2343
   23.190    5.4766
   23.205    5.5187
   23.220    5.4976
   23.235    5.4239
   23.250    5.4976
   23.265    5.8662
   23.280    5.8978
   23.295    5.8031
   23.310    6.1295
   23.325    5.8557
   23.340    5.7504
   23.355    5.4344
   23.370    5.3291
   23.385    5.3397
   23.400    5.1290
   23.415    4.7815
   23.430    4.8236
   23.445    4.5919
   23.460    4.8131
   23.475    4.7393
   23.490    4.9078
   23.505    5.2765
   23.520    4.9921
   23.535    4.9921
   23.550    4.7288
   23.565    4.7288
   23.580    4.7499
   23.595    4.5814
   23.610    4.8868
   23.625    4.9078
   23.640    5.1290
   23.655    5.1817
   23.670    5.2975
   23.685    4.6340
   23.700    4.9500
   23.715    4.8341
   23.730    4.8236
   23.745    4.8341
   23.760    4.5814
   23.775    4.7077
   23.790    4.8447
   23.805    4.7709
   23.820    4.9078
   23.835    5.0658
   23.850    4.9394
   23.865    4.9500
   23.880    5.2343
   23.895    5.3081
   23.910    5.7715
   23.925    5.5503
   23.940    5.8031
   23.955    5.8347
   23.970    6.0979
   23.985    5.7925
   24.000    5.6451
   24.015    6.0769
   24.030    5.3502
   24.045    5.2554
   24.060    5.1395
   24.075    4.9710
   24.090    5.1185
   24.105    4.7077
   24.120    4.6972
   24.135    4.8025
   24.150    5.0132
   24.165    4.8973
   24.180    4.8552
   24.195    4.9710
   24.210    4.6867
   24.225    4.6972
   24.240    4.7920
   24.255    4.7604
   24.270    4.8236
   24.285    4.7815
   24.300    4.8025
   24.315    4.7604
   24.330    4.8552
   24.345    5.0132
   24.360    4.9184
   24.375    4.9710
   24.390    4.6972
   24.405    4.6972
   24.420    4.8447
   24.435    4.6656
   24.450    4.6867
   24.465    4.8236
   24.480    4.7183
   24.495    4.5708
   24.510    4.7920
   24.525    4.5814
   24.540    4.8868
   24.555    4.8236
   24.570    4.9500
   24.585    5.2554
   24.600    5.0869
   24.615    4.7077
   24.630    4.6761
   24.645    5.0448
   24.660    4.6551
   24.675    4.7499
   24.690    4.7183
   24.705    4.7815
   24.720    5.0342
   24.735    5.1185
   24.750    5.0026
   24.765    4.7393
   24.780    4.9184
   24.795    4.9184
   24.810    4.7288
   24.825    4.7393
   24.840    4.8447
   24.855    4.7920
   24.870    4.6867
   24.885    4.8025
   24.900    4.9394
   24.915    4.8236
   24.930    5.0553
   24.945    4.7393
   24.960    4.5919
   24.975    4.8447
   24.990    4.8025
   25.005    4.8341
   25.020    4.6235
   25.035    4.7499
   25.050    4.7288
   25.065    4.7393
   25.080    4.8341
   25.095    4.6235
   25.110    4.6551
   25.125    4.9394
   25.140    4.9605
   25.155    4.9816
   25.170    5.1080
   25.185    4.8236
   25.200    4.8552
   25.215    4.8763
   25.230    5.0553
   25.245    4.9710
   25.260    5.1080
   25.275    5.0764
   25.290    4.9078
   25.305    5.1290
   25.320    5.1922
   25.335    4.7393
   25.350    4.9394
   25.365    4.8868
   25.380    4.8763
   25.395    4.6340
   25.410    4.6972
   25.425    4.6972
   25.440    4.9289
   25.455    4.9184
   25.470    4.9500
   25.485    4.7288
   25.500    4.7183
   25.515    4.7393
   25.530    4.9816
   25.545    4.9605
   25.560    5.4450
   25.575    5.5608
   25.590    5.1290
   25.605    5.0448
   25.620    5.1501
   25.635    4.9500
   25.650    4.6340
   25.665    4.6972
   25.680    4.6761
   25.695    4.9289
   25.710    4.7393
   25.725    4.8657
   25.740    5.2975
   25.755    5.3397
   25.770    5.5398
   25.785    6.2033
   25.800    6.4244
   25.815    6.2770
   25.830    6.3296
   25.845    7.0985
   25.860    7.3618
   25.875    6.9089
   25.890    6.7720
   25.905    6.2349
   25.920    6.0453
   25.935    5.9505
   25.950    5.6135
   25.965    5.1711
   25.980    4.7077
   25.995    4.7815
   26.010    4.8552
   26.025    4.5392
   26.040    4.5392
   26.055    4.5814
   26.070    4.9500
   26.085    4.8868
   26.100    4.4760
   26.115    4.8236
   26.130    4.7499
   26.145    4.6445
   26.160    4.6761
   26.175    4.7077
   26.190    4.7183
   26.205    4.9078
   26.220    4.9605
   26.235    4.7604
   26.250    4.6445
   26.265    4.4339
   26.280    4.5708
   26.295    4.5814
   26.310    4.5076
   26.325    4.4444
   26.340    4.5182
   26.355    4.5814
   26.370    4.9500
   26.385    5.1080
   26.400    4.7604
   26.415    5.0869
   26.430    4.9710
   26.445    5.0132
   26.460    5.1922
   26.475    5.3712
   26.490    5.1395
   26.505    5.1606
   26.520    4.9605
   26.535    4.9500
   26.550    5.0026
   26.565    4.9289
   26.580    4.6024
   26.595    4.3707
   26.610    4.4655
   26.625    4.5603
   26.640    4.9184
   26.655    4.7077
   26.670    4.3707
   26.685    4.6340
   26.700    4.4971
   26.715    4.2759
   26.730    4.4339
   26.745    4.1706
   26.760    4.4444
   26.775    4.4550
   26.790    4.4971
   26.805    4.8552
   26.820    4.2654
   26.835    4.6130
   26.850    4.4655
   26.865    4.3181
   26.880    4.5498
   26.895    4.2654
   26.910    4.6761
   26.925    4.5708
   26.940    4.4339
   26.955    4.5287
   26.970    4.8868
   26.985    5.2027
   27.000    5.3607
   27.015    5.3081
   27.030    5.4344
   27.045    5.5082
   27.060    5.4344
   27.075    5.2765
   27.090    5.3923
   27.105    5.1817
   27.120    5.3291
   27.135    5.0764
   27.150    4.9605
   27.165    4.6761
   27.180    4.4760
   27.195    4.6445
   27.210    4.8763
   27.225    4.7499
   27.240    4.4655
   27.255    4.5708
   27.270    4.6445
   27.285    4.5392
   27.300    4.3813
   27.315    4.2338
   27.330    4.3602
   27.345    4.4550
   27.360    4.3391
   27.375    4.2759
   27.390    4.5603
   27.405    4.3918
   27.420    4.1811
   27.435    4.0021
   27.450    4.4866
   27.465    4.6551
   27.480    4.6761
   27.495    4.4971
   27.510    4.8236
   27.525    4.6761
   27.540    4.4339
   27.555    4.5392
   27.570    4.8552
   27.585    4.7183
   27.600    4.7183
   27.615    4.7604
   27.630    5.0448
   27.645    5.2975
   27.660    5.3923
   27.675    5.0764
   27.690    5.0658
   27.705    5.1185
   27.720    5.0342
   27.735    4.7815
   27.750    4.5076
   27.765    4.6445
   27.780    4.6024
   27.795    4.3602
   27.810    4.4866
   27.825    4.2970
   27.840    4.4655
   27.855    4.6340
   27.870    4.8236
   27.885    4.9500
   27.900    4.5498
   27.915    4.9710
   27.930    4.8868
   27.945    4.8447
   27.960    5.0869
   27.975    4.9710
   27.990    5.3712
   28.005    5.4766
   28.020    5.4450
   28.035    5.1501
   28.050    5.2238
   28.065    4.8447
   28.080    5.1606
   28.095    5.1290
   28.110    5.4976
   28.125    5.2870
   28.140    5.0132
   28.155    4.9605
   28.170    5.1501
   28.185    5.3186
   28.200    5.3712
   28.215    5.2975
   28.230    5.2870
   28.245    5.5292
   28.260    5.1501
   28.275    4.9500
   28.290    4.9605
   28.305    4.9816
   28.320    4.7709
   28.335    4.4339
   28.350    4.3391
   28.365    4.7077
   28.380    4.6235
   28.395    4.5919
   28.410    4.9710
   28.425    4.7815
   28.440    4.9500
   28.455    5.0764
   28.470    5.5924
   28.485    5.1711
   28.500    5.4028
   28.515    5.6661
   28.530    5.2343
   28.545    4.8973
   28.560    4.6867
   28.575    4.7183
   28.590    4.8552
   28.605    4.5076
   28.620    4.6445
   28.635    4.3813
   28.650    4.5603
   28.665    4.6130
   28.680    4.4971
   28.695    4.4550
   28.710    4.5182
   28.725    4.4128
   28.740    4.1601
   28.755    4.2970
   28.770    4.5076
   28.785    4.4339
   28.800    4.2865
   28.815    4.2759
   28.830    4.4234
   28.845    4.6761
   28.860    4.3181
   28.875    4.2970
   28.890    4.5814
   28.905    4.6024
   28.920    4.8341
   28.935    5.0974
   28.950    5.3081
   28.965    5.4450
   28.980    5.0342
   28.995    4.9710
   29.010    4.9710
   29.025    5.0448
   29.040    5.3186
   29.055    4.8552
   29.070    4.7183
   29.085    4.7288
   29.100    4.6024
   29.115    4.5182
   29.130    4.5182
   29.145    4.2759
   29.160    4.6551
   29.175    4.7815
   29.190    4.3707
   29.205    4.3707
   29.220    4.5182
   29.235    4.8868
   29.250    4.7077
   29.265    4.6130
   29.280    4.7920
   29.295    4.8763
   29.310    4.8236
   29.325    5.0974
   29.340    5.4344
   29.355    4.8552
   29.370    4.9289
   29.385    5.0658
   29.400    4.9184
   29.415    4.5708
   29.430    4.6340
   29.445    4.4234
   29.460    4.4444
   29.475    4.5076
   29.490    4.3707
   29.505    4.2022
   29.520    4.1496
   29.535    4.5076
   29.550    4.6867
   29.565    4.4655
   29.580    4.3918
   29.595    3.9916
   29.610    4.0864
   29.625    4.2127
   29.640    4.2022
   29.655    4.2970
   29.670    4.1706
   29.685    4.3391
   29.700    4.0232
   29.715    4.3181
   29.730    4.2022
   29.745    4.6024
   29.760    4.1811
   29.775    4.5603
   29.790    4.5076
   29.805    4.3813
   29.820    4.3918
   29.835    4.4655
   29.850    4.9500
   29.865    4.5919
   29.880    4.5603
   29.895    4.6972
   29.910    4.5076
   29.925    4.4444
   29.940    4.3391
   29.955    4.5392
   29.970    4.5287
   29.985    4.6445
   30.000    4.6551
   30.015    4.4444
   30.030    4.1285
   30.045    4.3181
   30.060    4.3286
   30.075    4.4339
   30.090    4.1917
   30.105    4.5287
   30.120    4.4234
   30.135    4.2338
   30.150    4.2654
   30.165    4.2127
   30.180    4.2233
   30.195    4.4444
   30.210    4.2443
   30.225    4.4444
   30.240    4.1390
   30.255    4.0758
   30.270    3.9494
   30.285    4.1601
   30.300    4.2233
   30.315    4.2022
   30.330    4.3497
   30.345    4.2654
   30.360    4.2233
   30.375    4.3497
   30.390    4.5603
   30.405    4.3075
   30.420    4.2338
   30.435    3.9810
   30.450    4.0969
   30.465    4.0864
   30.480    4.2654
   30.495    4.4444
   30.510    4.1180
   30.525    3.9600
   30.540    3.9389
   30.555    4.1074
   30.570    4.4760
   30.585    4.4971
   30.600    4.4971
   30.615    4.0758
   30.630    4.1285
   30.645    4.4023
   30.660    4.2022
   30.675    4.3497
   30.690    4.3286
   30.705    4.5603
   30.720    4.5919
   30.735    4.4234
   30.750    3.8652
   30.765    4.0969
   30.780    4.1285
   30.795    4.0864
   30.810    4.2022
   30.825    4.2654
   30.840    4.0126
   30.855    4.0232
   30.870    4.3602
   30.885    4.3391
   30.900    4.2865
   30.915    4.0548
   30.930    4.3813
   30.945    4.6761
   30.960    4.2443
   30.975    4.3181
   30.990    4.0232
   31.005    4.0653
   31.020    3.9916
   31.035    4.3918
   31.050    4.4866
   31.065    4.2127
   31.080    4.3602
   31.095    4.2127
   31.110    3.8652
   31.125    3.9810
   31.140    4.1601
   31.155    4.0232
   31.170    4.2865
   31.185    4.3497
   31.200    4.3181
   31.215    3.9916
   31.230    3.9705
   31.245    4.0442
   31.260    4.1917
   31.275    4.0442
   31.290    3.9179
   31.305    4.1601
   31.320    4.3813
   31.335    4.0758
   31.350    4.0021
   31.365    4.1811
   31.380    4.5182
   31.395    4.4655
   31.410    4.5392
   31.425    4.2443
   31.440    4.1706
   31.455    4.6445
   31.470    4.5708
   31.485    4.2338
   31.500    4.2022
   31.515    4.2022
   31.530    4.2865
   31.545    4.4866
   31.560    4.1496
   31.575    4.0232
   31.590    3.9705
   31.605    4.2022
   31.620    4.0864
   31.635    4.2338
   31.650    4.0969
   31.665    4.3813
   31.680    4.0126
   31.695    3.9179
   31.710    4.0126
   31.725    4.0969
   31.740    4.1074
   31.755    4.0969
   31.770    4.2443
   31.785    4.0021
   31.800    4.2233
   31.815    4.0126
   31.830    4.0442
   31.845    4.1601
   31.860    4.4655
   31.875    4.3707
   31.890    4.5287
   31.905    4.3181
   31.920    4.1601
   31.935    4.2022
   31.950    4.1496
   31.965    4.3181
   31.980    4.6340
   31.995    4.4444
   32.010    4.4866
   32.025    4.6551
   32.040    4.8447
   32.055    4.9289
   32.070    5.2870
   32.085    5.9189
   32.100    6.2243
   32.115    5.7925
   32.130    5.4239
   32.145    5.5924
   32.160    5.4555
   32.175    5.5082
   32.190    5.4976
   32.205    5.2554
   32.220    5.1080
   32.235    4.6761
   32.250    4.4023
   32.265    4.1917
   32.280    4.0758
   32.295    3.8863
   32.310    4.0021
   32.325    4.1706
   32.340    4.0442
   32.355    4.0337
   32.370    3.6967
   32.385    3.6967
   32.400    3.7493
   32.415    3.9073
   32.430    4.0126
   32.445    4.3813
   32.460    3.9600
   32.475    3.7072
   32.490    3.5703
   32.505    3.7704
   32.520    3.8231
   32.535    3.8125
   32.550    3.7072
   32.565    3.7177
   32.580    4.1074
   32.595    3.9179
   32.610    4.0126
   32.625    3.7599
   32.640    4.2127
   32.655    4.0758
   32.670    3.8125
   32.685    3.8231
   32.700    3.9600
   32.715    4.0126
   32.730    3.7915
   32.745    3.8336
   32.760    3.9810
   32.775    3.8125
   32.790    3.9916
   32.805    3.8652
   32.820    3.9073
   32.835    3.9389
   32.850    3.7072
   32.865    3.9810
   32.880    4.1074
   32.895    3.9810
   32.910    4.3391
   32.925    4.3602
   32.940    3.8652
   32.955    4.0548
   32.970    4.2549
   32.985    3.7493
   33.000    4.1285
   33.015    4.0232
   33.030    4.0548
   33.045    4.2654
   33.060    4.0442
   33.075    3.7388
   33.090    3.8020
   33.105    3.6651
   33.120    3.5914
   33.135    3.8863
   33.150    3.8968
   33.165    3.9810
   33.180    3.6440
   33.195    3.6756
   33.210    3.6756
   33.225    3.5071
   33.240    3.7283
   33.255    4.0442
   33.270    3.5071
   33.285    3.8757
   33.300    3.9705
   33.315    3.8125
   33.330    4.0232
   33.345    4.0653
   33.360    3.9284
   33.375    3.4966
   33.390    3.8125
   33.405    3.6651
   33.420    3.5914
   33.435    3.8231
   33.450    3.7599
   33.465    3.7599
   33.480    3.6124
   33.495    3.9916
   33.510    3.8336
   33.525    3.9073
   33.540    3.6335
   33.555    4.0232
   33.570    3.9600
   33.585    3.8863
   33.600    3.8757
   33.615    4.0232
   33.630    3.7809
   33.645    3.7177
   33.660    4.0758
   33.675    4.2338
   33.690    4.0126
   33.705    4.1074
   33.720    4.0969
   33.735    4.2233
   33.750    4.2443
   33.765    4.1180
   33.780    4.1285
   33.795    4.4760
   33.810    4.8236
   33.825    4.8552
   33.840    4.8341
   33.855    5.0553
   33.870    4.6551
   33.885    4.6867
   33.900    4.6867
   33.915    4.6867
   33.930    4.5708
   33.945    4.7815
   33.960    4.5603
   33.975    4.3286
   33.990    4.4971
   34.005    4.2338
   34.020    3.9810
   34.035    3.8652
   34.050    3.4860
   34.065    3.8231
   34.080    3.7809
   34.095    3.6862
   34.110    3.1174
   34.125    3.8336
   34.140    3.6651
   34.155    3.8336
   34.170    3.6651
   34.185    3.6862
   34.200    3.6756
   34.215    3.6440
   34.230    3.6124
   34.245    3.7283
   34.260    3.5282
   34.275    3.3281
   34.290    3.7283
   34.305    3.7493
   34.320    3.4334
   34.335    3.6967
   34.350    3.5808
   34.365    3.7072
   34.380    3.8757
   34.395    3.8020
   34.410    3.6756
   34.425    3.8020
   34.440    3.4650
   34.455    3.6440
   34.470    4.0864
   34.485    4.0653
   34.500    3.7283
   34.515    3.6546
   34.530    3.5492
   34.545    3.5176
   34.560    3.4334
   34.575    3.5492
   34.590    3.8968
   34.605    3.5492
   34.620    3.5282
   34.635    3.5387
   34.650    3.4966
   34.665    3.9179
   34.680    3.6124
   34.695    3.5598
   34.710    3.4123
   34.725    3.7388
   34.740    3.5387
   34.755    3.8231
   34.770    3.5492
   34.785    3.6967
   34.800    4.0021
   34.815    3.4123
   34.830    3.7809
   34.845    3.6440
   34.860    3.7493
   34.875    3.5914
   34.890    3.8652
   34.905    3.8020
   34.920    3.7493
   34.935    3.5071
   34.950    3.6756
   34.965    3.8547
   34.980    3.8125
   34.995    3.8336
   35.010    3.5914
   35.025    3.5598
   35.040    3.5071
   35.055    3.6019
   35.070    3.5071
   35.085    3.3386
   35.100    3.3702
   35.115    3.2965
   35.130    3.5598
   35.145    3.4860
   35.160    3.4229
   35.175    3.3281
   35.190    3.5703
   35.205    3.4544
   35.220    3.3807
   35.235    3.6230
   35.250    3.6124
   35.265    3.6335
   35.280    3.6230
   35.295    3.8125
   35.310    3.5914
   35.325    3.5598
   35.340    3.5703
   35.355    3.5176
   35.370    3.4334
   35.385    3.3281
   35.400    3.5071
   35.415    3.6230
   35.430    3.3281
   35.445    3.0542
   35.460    3.2227
   35.475    3.5492
   35.490    3.3807
   35.505    3.3702
   35.520    3.3913
   35.535    3.3807
   35.550    3.2438
   35.565    3.6230
   35.580    3.2754
   35.595    3.4334
   35.610    3.8125
   35.625    3.4860
   35.640    3.3913
   35.655    3.5492
   35.670    3.4018
   35.685    3.4334
   35.700    3.5176
   35.715    3.5176
   35.730    3.6230
   35.745    3.6230
   35.760    3.3281
   35.775    3.4755
   35.790    3.6124
   35.805    3.4544
   35.820    3.5914
   35.835    3.7599
   35.850    3.8863
   35.865    3.2649
   35.880    3.4334
   35.895    3.2649
   35.910    3.5703
   35.925    3.6862
   35.940    3.7809
   35.955    3.5071
   35.970    3.4544
   35.985    3.6335
   36.000    3.3913
   36.015    3.5282
   36.030    3.2543
   36.045    3.4650
   36.060    3.4439
   36.075    3.3175
   36.090    3.6756
   36.105    3.4544
   36.120    3.1806
   36.135    3.5387
   36.150    3.5808
   36.165    3.1701
   36.180    3.5808
   36.195    3.4650
   36.210    3.4966
   36.225    3.5808
   36.240    3.3702
   36.255    3.1806
   36.270    3.3386
   36.285    3.8968
   36.300    3.7177
   36.315    3.6124
   36.330    3.6019
   36.345    3.4123
   36.360    3.4439
   36.375    3.1280
   36.390    3.3702
   36.405    3.4966
   36.420    3.4650
   36.435    3.2965
   36.450    3.2543
   36.465    3.2859
   36.480    3.4123
   36.495    3.6335
   36.510    3.1385
   36.525    3.3702
   36.540    3.4966
   36.555    3.5282
   36.570    3.6440
   36.585    3.7809
   36.600    3.6756
   36.615    3.6230
   36.630    3.5176
   36.645    3.7177
   36.660    3.6546
   36.675    3.4755
   36.690    3.4650
   36.705    3.5492
   36.720    3.6124
   36.735    3.5071
   36.750    3.6230
   36.765    3.7493
   36.780    3.6019
   36.795    3.3175
   36.810    3.2965
   36.825    3.1174
   36.840    3.2965
   36.855    3.2859
   36.870    3.3175
   36.885    3.3913
   36.900    3.4966
   36.915    3.3175
   36.930    3.4123
   36.945    3.2543
   36.960    3.5387
   36.975    3.2965
   36.990    3.1280
   37.005    3.2754
   37.020    3.6756
   37.035    3.7072
   37.050    3.6124
   37.065    3.7072
   37.080    3.7283
   37.095    3.6967
   37.110    3.4650
   37.125    3.6967
   37.140    3.7388
   37.155    3.6335
   37.170    3.6335
   37.185    3.5703
   37.200    3.8336
   37.215    3.6651
   37.230    3.6019
   37.245    3.4755
   37.260    3.3175
   37.275    3.5071
   37.290    3.1280
   37.305    3.0964
   37.320    3.0226
   37.335    3.2649
   37.350    3.1701
   37.365    3.1596
   37.380    3.5387
   37.395    3.4544
   37.410    3.3807
   37.425    3.3281
   37.440    3.4860
   37.455    3.4123
   37.470    3.2017
   37.485    3.2333
   37.500    3.5071
   37.515    3.4334
   37.530    3.2438
   37.545    3.2017
   37.560    3.6651
   37.575    3.4334
   37.590    3.3597
   37.605    3.4860
   37.620    3.4860
   37.635    3.5387
   37.650    3.4439
   37.665    3.5387
   37.680    3.4966
   37.695    3.5492
   37.710    3.3597
   37.725    3.2859
   37.740    3.1385
   37.755    3.5808
   37.770    3.4755
   37.785    3.3281
   37.800    3.2438
   37.815    3.3807
   37.830    3.8020
   37.845    3.3386
   37.860    3.3491
   37.875    3.8336
   37.890    3.7809
   37.905    3.5176
   37.920    3.5808
   37.935    3.6124
   37.950    3.1280
   37.965    3.2754
   37.980    3.4439
   37.995    3.4755
   38.010    3.4123
   38.025    3.2122
   38.040    3.1174
   38.055    3.2965
   38.070    3.2122
   38.085    3.3491
   38.100    3.2543
   38.115    3.3386
   38.130    3.4229
   38.145    3.1069
   38.160    3.4229
   38.175    3.2859
   38.190    3.3175
   38.205    3.4018
   38.220    3.1174
   38.235    3.2227
   38.250    3.1806
   38.265    3.2965
   38.280    3.2543
   38.295    2.8647
   38.310    3.2017
   38.325    3.6019
   38.340    3.2859
   38.355    3.6019
   38.370    3.3702
   38.385    3.2227
   38.400    3.1806
   38.415    3.3175
   38.430    3.7072
   38.445    3.4860
   38.460    3.3070
   38.475    3.4123
   38.490    3.2438
   38.505    3.0121
   38.520    3.7915
   38.535    3.5808
   38.550    3.5598
   38.565    3.6546
   38.580    3.7283
   38.595    3.3913
   38.610    3.4334
   38.625    3.5387
   38.640    3.5282
   38.655    3.5492
   38.670    3.5387
   38.685    3.4544
   38.700    3.4018
   38.715    3.5598
   38.730    3.5282
   38.745    3.6335
   38.760    3.2438
   38.775    3.0753
   38.790    3.1385
   38.805    3.2965
   38.820    3.3070
   38.835    3.1174
   38.850    3.1596
   38.865    3.1490
   38.880    3.1490
   38.895    3.0753
   38.910    3.2543
   38.925    3.1069
   38.940    3.3386
   38.955    3.2333
   38.970    3.2017
   38.985    3.5703
   39.000    3.4966
   39.015    3.3386
   39.030    3.1806
   39.045    3.4229
   39.060    3.2754
   39.075    3.2438
   39.090    3.0858
   39.105    3.1701
   39.120    3.2754
   39.135    3.2017
   39.150    3.0964
   39.165    3.4755
   39.180    3.3807
   39.195    3.2754
   39.210    3.1701
   39.225    3.3913
   39.240    3.2543
   39.255    3.5387
   39.270    3.3491
   39.285    3.1385
   39.300    3.0858
   39.315    3.4650
   39.330    3.1490
   39.345    3.3597
   39.360    3.4860
   39.375    3.2227
   39.390    3.4018
   39.405    3.1385
   39.420    2.9068
   39.435    3.2859
   39.450    3.2859
   39.465    3.4439
   39.480    3.1490
   39.495    3.3070
   39.510    3.4123
   39.525    3.0121
   39.540    3.1069
   39.555    3.3386
   39.570    3.0648
   39.585    3.3070
   39.600    3.2227
   39.615    3.4018
   39.630    3.2543
   39.645    3.1806
   39.660    3.1174
   39.675    3.4123
   39.690    3.3913
   39.705    3.4544
   39.720    3.3807
   39.735    3.2649
   39.750    3.3913
   39.765    3.3913
   39.780    3.4860
   39.795    3.1280
   39.810    3.2227
   39.825    3.1596
   39.840    3.2438
   39.855    3.3175
   39.870    3.4755
   39.885    3.3175
   39.900    3.2649
   39.915    3.1701
   39.930    3.0437
   39.945    3.2017
   39.960    3.3175
   39.975    3.2543
   39.990    3.5598
