    1.500   13.6177
    1.515   13.2491
    1.530   13.9863
    1.545   13.4071
    1.560   13.0174
    1.575   12.8278
    1.590   12.5434
    1.605   11.7220
    1.620   11.9115
    1.635   11.6166
    1.650   11.3428
    1.665   11.7746
    1.680   11.1638
    1.695   10.8268
    1.710   10.9531
    1.725   10.9321
    1.740   10.3423
    1.755   10.2264
    1.770   10.2264
    1.785   10.2370
    1.800   10.1632
    1.815   10.1001
    1.830    9.4365
    1.845   10.0369
    1.860    9.6472
    1.875    9.7841
    1.890    9.1943
    1.905    9.4155
    1.920    9.3944
    1.935    8.7204
    1.950    8.6783
    1.965    8.6045
    1.980    8.6151
    1.995    8.9415
    2.010    8.7309
    2.025    8.6783
    2.040    8.5203
    2.055    8.7414
    2.070    8.4992
    2.085    8.5413
    2.100    8.3202
    2.115    7.8778
    2.130    7.9200
    2.145    7.9305
    2.160    8.1306
    2.175    8.3412
    2.190    8.0042
    2.205    7.9831
    2.220    8.1727
    2.235    8.3307
    2.250    7.8778
    2.265    7.6040
    2.280    7.3618
    2.295    7.5513
    2.310    7.7304
    2.325    7.8462
    2.340    7.3512
    2.355    7.6145
    2.370    7.5513
    2.385    7.1722
    2.400    7.3723
    2.415    7.1090
    2.430    7.0879
    2.445    7.0563
    2.460    7.2143
    2.475    7.0879
    2.490    6.8246
    2.505    6.9616
    2.520    6.9932
    2.535    7.3407
    2.550    7.0142
    2.565    6.9932
    2.580    7.0037
    2.595    6.7615
    2.610    6.8246
    2.625    6.9721
    2.640    7.1933
    2.655    6.9300
    2.670    6.6245
    2.685    6.5719
    2.700    6.9510
    2.715    7.3091
    2.730    7.0563
    2.745    6.8246
    2.760    6.5192
    2.775    6.8457
    2.790    6.6245
    2.805    6.7088
    2.820    6.6035
    2.835    6.5824
    2.850    6.7930
    2.865    6.6772
    2.880    6.6245
    2.895    6.7615
    2.910    6.4560
    2.925    6.4455
    2.940    6.8562
    2.955    6.5613
    2.970    6.6456
    2.985    6.5929
    3.000    6.6561
    3.015    6.6456
    3.030    6.5403
    3.045    6.6877
    3.060    6.3402
    3.075    6.4771
    3.090    6.2770
    3.105    6.2875
    3.120    6.4982
    3.135    6.4350
    3.150    6.5403
    3.165    6.6561
    3.180    6.5824
    3.195    6.2770
    3.210    6.1611
    3.225    6.2665
    3.240    6.6456
    3.255    6.8773
    3.270    6.5613
    3.285    6.4560
    3.300    6.3823
    3.315    6.4244
    3.330    6.5298
    3.345    6.3191
    3.360    6.3507
    3.375    7.0037
    3.390    6.5298
    3.405    6.6561
    3.420    6.4666
    3.435    6.4139
    3.450    6.4350
    3.465    6.4034
    3.480    6.3928
    3.495    6.6667
    3.510    6.1611
    3.525    6.5719
    3.540    6.5824
    3.555    6.8984
    3.570    6.5403
    3.585    6.5613
    3.600    6.2243
    3.615    6.1295
    3.630    6.2349
    3.645    6.3718
    3.660    6.5403
    3.675    6.5087
    3.690    6.5508
    3.705    6.8352
    3.720    6.8352
    3.735    6.8246
    3.750    7.0037
    3.765    6.6772
    3.780    6.9721
    3.795    6.6351
    3.810    6.2981
    3.825    6.4139
    3.840    7.2038
    3.855    7.4460
    3.870    7.1617
    3.885    7.3723
    3.900    7.3512
    3.915    6.8562
    3.930    6.8668
    3.945    6.3823
    3.960    6.1295
    3.975    6.1401
    3.990    5.8768
    4.005    5.8452
    4.020    5.8452
    4.035    5.8557
    4.050    6.1717
    4.065    6.2665
    4.080    6.3086
    4.095    6.0032
    4.110    5.7609
    4.125    5.9189
    4.140    6.1927
    4.155    5.9084
    4.170    5.9926
    4.185    5.7399
    4.200    5.9610
    4.215    5.8452
    4.230    5.9821
    4.245    6.0558
    4.260    6.2138
    4.275    6.0558
    4.290    6.1611
    4.305    6.1190
    4.320    6.2559
    4.335    6.2875
    4.350    6.3507
    4.365    5.9610
    4.380    6.2033
    4.395    5.9926
    4.410    6.0874
    4.425    6.0137
    4.440    6.0453
    4.455    6.3612
    4.470    6.2349
    4.485    6.1085
    4.500    5.8768
    4.515    5.4555
    4.530    5.7504
    4.545    6.0032
    4.560    5.9400
    4.575    6.0979
    4.590    6.2138
    4.605    5.9610
    4.620    5.9716
    4.635    6.1927
    4.650    6.1085
    4.665    5.8557
    4.680    5.9716
    4.695    6.1717
    4.710    6.0979
    4.725    6.0453
    4.740    5.9400
    4.755    5.8557
    4.770    5.7925
    4.785    5.9084
    4.800    6.0664
    4.815    5.9610
    4.830    5.8452
    4.845    5.9400
    4.860    5.8768
    4.875    5.7504
    4.890    5.8978
    4.905    6.0664
    4.920    5.5924
    4.935    5.9400
    4.950    6.0979
    4.965    5.8662
    4.980    6.0242
    4.995    5.8136
    5.010    5.5924
    5.025    6.0874
    5.040    5.8136
    5.055    5.8031
    5.070    5.9400
    5.085    5.6661
    5.100    6.1506
    5.115    6.0664
    5.130    5.9400
    5.145    5.9926
    5.160    5.9294
    5.175    5.9084
    5.190    6.0558
    5.205    5.7925
    5.220    6.0453
    5.235    6.1927
    5.250    5.9821
    5.265    6.0769
    5.280    5.9294
    5.295    5.8241
    5.310    6.0979
    5.325    5.9084
    5.340    5.5714
    5.355    5.5292
    5.370    5.5398
    5.385    5.4450
    5.400    6.0664
    5.415    6.1927
    5.430    6.2243
    5.445    6.4455
    5.460    6.4982
    5.475    6.0874
    5.490    5.7188
    5.505    6.0769
    5.520    6.0874
    5.535    5.7504
    5.550    5.8452
    5.565    5.7083
    5.580    5.5187
    5.595    5.7293
    5.610    6.4876
    5.625    5.8978
    5.640    5.8873
    5.655    6.0979
    5.670    6.1295
    5.685    5.6977
    5.700    5.8768
    5.715    5.6977
    5.730    5.7083
    5.745    6.3296
    5.760    5.8768
    5.775    5.7083
    5.790    5.9821
    5.805    6.0979
    5.820    5.9505
    5.835    5.8662
    5.850    5.6135
    5.865    5.7188
    5.880    5.8978
    5.895    5.8136
    5.910    5.6767
    5.925    5.7609
    5.940    5.7715
    5.955    5.9610
    5.970    5.7188
    5.985    5.8031
    6.000    5.8452
    6.015    5.6240
    6.030    5.7399
    6.045    5.8136
    6.060    6.0874
    6.075    5.8241
    6.090    5.5187
    6.105    5.8873
    6.120    5.8873
    6.135    5.7820
    6.150    5.6451
    6.165    5.7504
    6.180    6.1085
    6.195    5.6872
    6.210    5.7293
    6.225    5.7083
    6.240    6.1190
    6.255    5.6872
    6.270    6.0453
    6.285    5.7188
    6.300    5.9400
    6.315    6.0558
    6.330    5.8873
    6.345    5.8768
    6.360    5.9610
    6.375    5.8873
    6.390    5.7609
    6.405    5.8241
    6.420    5.9610
    6.435    6.0874
    6.450    5.9716
    6.465    5.9189
    6.480    5.9294
    6.495    5.6977
    6.510    6.0769
    6.525    5.9400
    6.540    5.7925
    6.555    6.0558
    6.570    6.0348
    6.585    6.2770
    6.600    5.8452
    6.615    5.6451
    6.630    5.5608
    6.645    5.9294
    6.660    5.9505
    6.675    5.8031
    6.690    5.7715
    6.705    5.6556
    6.720    5.4450
    6.735    6.0453
    6.750    6.0979
    6.765    5.7609
    6.780    6.0979
    6.795    5.9716
    6.810    6.0453
    6.825    5.8768
    6.840    5.7504
    6.855    5.6451
    6.870    5.9821
    6.885    5.8241
    6.900    5.7083
    6.915    5.8347
    6.930    6.0979
    6.945    5.9716
    6.960    5.6451
    6.975    6.3507
    6.990    5.9294
    7.005    5.8768
    7.020    6.1085
    7.035    6.1401
    7.050    6.0558
    7.065    6.2033
    7.080    6.5929
    7.095    5.7609
    7.110    5.8241
    7.125    6.0769
    7.140    6.2665
    7.155    5.9400
    7.170    5.8452
    7.185    5.8873
    7.200    6.0453
    7.215    5.9610
    7.230    6.1506
    7.245    5.7609
    7.260    5.8136
    7.275    5.8452
    7.290    5.7083
    7.305    6.0242
    7.320    6.1506
    7.335    5.9926
    7.350    6.1611
    7.365    6.2665
    7.380    6.0558
    7.395    6.0874
    7.410    6.1506
    7.425    5.9821
    7.440    6.0558
    7.455    6.0558
    7.470    6.4034
    7.485    5.8452
    7.500    5.9400
    7.515    5.9610
    7.530    6.3928
    7.545    6.1085
    7.560    6.2559
    7.575    6.0137
    7.590    5.8768
    7.605    6.0453
    7.620    6.0558
    7.635    5.6661
    7.650    5.9716
    7.665    6.2770
    7.680    6.4771
    7.695    6.2243
    7.710    6.3402
    7.725    6.0032
    7.740    5.9716
    7.755    6.2033
    7.770    6.2349
    7.785    6.2033
    7.800    6.1190
    7.815    6.3718
    7.830    6.2770
    7.845    6.0137
    7.860    6.0979
    7.875    6.4350
    7.890    6.1506
    7.905    6.5508
    7.920    6.5613
    7.935    6.6456
    7.950    6.3928
    7.965    6.2875
    7.980    6.2349
    7.995    6.3402
    8.010    6.2138
    8.025    6.3191
    8.040    5.9926
    8.055    6.0558
    8.070    6.1927
    8.085    6.3086
    8.100    6.5298
    8.115    6.1611
    8.130    6.2138
    8.145    6.3086
    8.160    6.3296
    8.175    6.0032
    8.190    6.3191
    8.205    6.2349
    8.220    6.0874
    8.235    6.3718
    8.250    5.8978
    8.265    6.4982
    8.280    6.6035
    8.295    6.2243
    8.310    5.9821
    8.325    6.1927
    8.340    6.5824
    8.355    6.5298
    8.370    6.1401
    8.385    5.8662
    8.400    6.3191
    8.415    6.3296
    8.430    6.1717
    8.445    6.0453
    8.460    6.2981
    8.475    6.4139
    8.490    6.4139
    8.505    6.3823
    8.520    6.4244
    8.535    6.2981
    8.550    6.1611
    8.565    6.2770
    8.580    6.4560
    8.595    6.2875
    8.610    6.2981
    8.625    6.4771
    8.640    6.1401
    8.655    6.4139
    8.670    6.2349
    8.685    6.6351
    8.700    6.5087
    8.715    6.3718
    8.730    6.6667
    8.745    6.5508
    8.760    6.8457
    8.775    7.1406
    8.790    6.0979
    8.805    6.4982
    8.820    6.9721
    8.835    6.3507
    8.850    6.4876
    8.865    6.5403
    8.880    6.8773
    8.895    6.9405
    8.910    6.6877
    8.925    6.6772
    8.940    6.6561
    8.955    6.8984
    8.970    6.5087
    8.985    6.4350
    9.000    6.6561
    9.015    6.4244
    9.030    6.7088
    9.045    6.6140
    9.060    6.7825
    9.075    6.6561
    9.090    6.7615
    9.105    6.6561
    9.120    6.4666
    9.135    6.5613
    9.150    6.3191
    9.165    6.6245
    9.180    6.5508
    9.195    6.4139
    9.210    6.6561
    9.225    6.6456
    9.240    6.6667
    9.255    7.0353
    9.270    6.9089
    9.285    7.0248
    9.300    6.6667
    9.315    6.6245
    9.330    6.5929
    9.345    6.6877
    9.360    7.0142
    9.375    6.7615
    9.390    6.8352
    9.405    6.8878
    9.420    6.5613
    9.435    6.3296
    9.450    6.3823
    9.465    6.4771
    9.480    6.8773
    9.495    6.8352
    9.510    7.1617
    9.525    6.9510
    9.540    7.0774
    9.555    6.8352
    9.570    6.6667
    9.585    6.8984
    9.600    7.1090
    9.615    6.8562
    9.630    6.9932
    9.645    6.8773
    9.660    6.4666
    9.675    6.7930
    9.690    6.6351
    9.705    6.7193
    9.720    6.6456
    9.735    7.1617
    9.750    6.9826
    9.765    6.9721
    9.780    7.0458
    9.795    7.0669
    9.810    6.6772
    9.825    6.7615
    9.840    7.1827
    9.855    7.1827
    9.870    6.8141
    9.885    7.3723
    9.900    6.9826
    9.915    6.9616
    9.930    6.8352
    9.945    6.9932
    9.960    7.0353
    9.975    6.8878
    9.990    6.7615
   10.005    7.3934
   10.020    7.0669
   10.035    6.8984
   10.050    6.9721
   10.065    6.8878
   10.080    7.0985
   10.095    7.2459
   10.110    6.9405
   10.125    7.2038
   10.140    7.1722
   10.155    6.9510
   10.170    6.9089
   10.185    7.0353
   10.200    7.2459
   10.215    7.1090
   10.230    6.9405
   10.245    7.0142
   10.260    7.2565
   10.275    7.0669
   10.290    7.3407
   10.305    7.4250
   10.320    7.3302
   10.335    6.7088
   10.350    6.9089
   10.365    7.1406
   10.380    6.7088
   10.395    6.8246
   10.410    6.8668
   10.425    7.1090
   10.440    6.7720
   10.455    6.7825
   10.470    7.2459
   10.485    7.0248
   10.500    7.0248
   10.515    6.8457
   10.530    7.0142
   10.545    6.9616
   10.560    6.7299
   10.575    6.7615
   10.590    6.4982
   10.605    6.7299
   10.620    6.8141
   10.635    7.0669
   10.650    6.8457
   10.665    6.9510
   10.680    6.8036
   10.695    6.7825
   10.710    6.8036
   10.725    6.9405
   10.740    6.8878
   10.755    6.6772
   10.770    6.8668
   10.785    6.9932
   10.800    7.0563
   10.815    7.0879
   10.830    6.8562
   10.845    6.5929
   10.860    6.8246
   10.875    6.6983
   10.890    7.0985
   10.905    6.6877
   10.920    6.3507
   10.935    6.6667
   10.950    6.7720
   10.965    6.6245
   10.980    6.7193
   10.995    7.1090
   11.010    6.9194
   11.025    6.9510
   11.040    7.0563
   11.055    6.9616
   11.070    6.8668
   11.085    7.0248
   11.100    6.7404
   11.115    6.6140
   11.130    6.7509
   11.145    6.7404
   11.160    6.5613
   11.175    6.4771
   11.190    6.3507
   11.205    6.9194
   11.220    6.5824
   11.235    6.8246
   11.250    6.6245
   11.265    6.7088
   11.280    6.2138
   11.295    6.2033
   11.310    6.4455
   11.325    6.1717
   11.340    6.6351
   11.355    6.8668
   11.370    6.6245
   11.385    6.4034
   11.400    6.3086
   11.415    6.5298
   11.430    6.6351
   11.445    6.3928
   11.460    6.7720
   11.475    6.3612
   11.490    6.0242
   11.505    6.3823
   11.520    6.4350
   11.535    6.6245
   11.550    6.6456
   11.565    6.2033
   11.580    6.3402
   11.595    6.1927
   11.610    6.2243
   11.625    6.1085
   11.640    6.4560
   11.655    6.5192
   11.670    6.4982
   11.685    6.3086
   11.700    6.0453
   11.715    5.9400
   11.730    6.4034
   11.745    6.4350
   11.760    6.4139
   11.775    6.3296
   11.790    6.1927
   11.805    6.2770
   11.820    6.0242
   11.835    6.2770
   11.850    6.3718
   11.865    6.3928
   11.880    6.5298
   11.895    6.2454
   11.910    6.6140
   11.925    6.2981
   11.940    6.2559
   11.955    6.2243
   11.970    6.0769
   11.985    6.3507
   12.000    6.0769
   12.015    6.0979
   12.030    6.2349
   12.045    6.0032
   12.060    6.1295
   12.075    6.1295
   12.090    5.8347
   12.105    6.1927
   12.120    6.2875
   12.135    6.3296
   12.150    6.2875
   12.165    5.9821
   12.180    6.0348
   12.195    5.9610
   12.210    5.7820
   12.225    5.9716
   12.240    6.1611
   12.255    5.9610
   12.270    6.1717
   12.285    6.2559
   12.300    5.9400
   12.315    5.9189
   12.330    6.0137
   12.345    6.0453
   12.360    5.9716
   12.375    6.1295
   12.390    5.9400
   12.405    5.9716
   12.420    6.1611
   12.435    5.8241
   12.450    6.2454
   12.465    6.3612
   12.480    5.9400
   12.495    5.6345
   12.510    6.0769
   12.525    6.0558
   12.540    6.2349
   12.555    6.0558
   12.570    5.7504
   12.585    5.9400
   12.600    5.9294
   12.615    5.8031
   12.630    6.0242
   12.645    6.2138
   12.660    5.9084
   12.675    5.9716
   12.690    5.9716
   12.705    5.9294
   12.720    5.6029
   12.735    6.2033
   12.750    5.8031
   12.765    5.8557
   12.780    6.0769
   12.795    6.1085
   12.810    6.1295
   12.825    5.4660
   12.840    5.6661
   12.855    5.6345
   12.870    5.6767
   12.885    5.8452
   12.900    6.0979
   12.915    5.9821
   12.930    5.7188
   12.945    5.5608
   12.960    5.5714
   12.975    5.8768
   12.990    5.8557
   13.005    5.4766
   13.020    5.5398
   13.035    5.6029
   13.050    5.8557
   13.065    5.7083
   13.080    5.8978
   13.095    5.8347
   13.110    5.8557
   13.125    5.6661
   13.140    5.8768
   13.155    6.0664
   13.170    5.9716
   13.185    5.5819
   13.200    5.6556
   13.215    5.6451
   13.230    5.5398
   13.245    5.7504
   13.260    5.6029
   13.275    5.6872
   13.290    5.4976
   13.305    5.8662
   13.320    5.6556
   13.335    5.5503
   13.350    5.5082
   13.365    5.5292
   13.380    5.8662
   13.395    5.7820
   13.410    5.3923
   13.425    5.4555
   13.440    5.7399
   13.455    5.7293
   13.470    5.4766
   13.485    5.7399
   13.500    5.7820
   13.515    5.6451
   13.530    5.4239
   13.545    5.5503
   13.560    5.8662
   13.575    5.5819
   13.590    5.4871
   13.605    5.4660
   13.620    5.7293
   13.635    5.8452
   13.650    5.4028
   13.665    5.4134
   13.680    5.8031
   13.695    5.6767
   13.710    5.6872
   13.725    5.6451
   13.740    5.6661
   13.755    5.6767
   13.770    5.5924
   13.785    5.3291
   13.800    6.0137
   13.815    5.4766
   13.830    5.8031
   13.845    5.8241
   13.860    5.8241
   13.875    5.7820
   13.890    5.3081
   13.905    5.2765
   13.920    5.4976
   13.935    5.4344
   13.950    5.6556
   13.965    5.4976
   13.980    5.6451
   13.995    5.6029
   14.010    5.8136
   14.025    5.6661
   14.040    5.5924
   14.055    5.1395
   14.070    5.0237
   14.085    5.5187
   14.100    5.2449
   14.115    5.3291
   14.130    5.6135
   14.145    5.7609
   14.160    5.3818
   14.175    5.2343
   14.190    5.3712
   14.205    5.3818
   14.220    5.4766
   14.235    5.2133
   14.250    5.5714
   14.265    5.3186
   14.280    5.4555
   14.295    5.8873
   14.310    5.5503
   14.325    5.6451
   14.340    5.8347
   14.355    5.4134
   14.370    5.8873
   14.385    5.7820
   14.400    5.5187
   14.415    5.4766
   14.430    5.6029
   14.445    5.6451
   14.460    5.3923
   14.475    5.5924
   14.490    5.4450
   14.505    5.7925
   14.520    5.8452
   14.535    5.6135
   14.550    5.3502
   14.565    5.7188
   14.580    5.6451
   14.595    5.4450
   14.610    5.2659
   14.625    5.6451
   14.640    5.5819
   14.655    5.6240
   14.670    5.9084
   14.685    5.5082
   14.700    5.9505
   14.715    5.3397
   14.730    5.4450
   14.745    5.8241
   14.760    6.0979
   14.775    5.5924
   14.790    5.2554
   14.805    5.6029
   14.820    5.2870
   14.835    5.5292
   14.850    5.2449
   14.865    5.7399
   14.880    5.8768
   14.895    5.6240
   14.910    5.5082
   14.925    5.4028
   14.940    5.5187
   14.955    5.7293
   14.970    5.7925
   14.985    5.5187
   15.000    5.7504
   15.015    6.0769
   15.030    5.3818
   15.045    5.4555
   15.060    5.2870
   15.075    5.6556
   15.090    5.7925
   15.105    5.5398
   15.120    5.7188
   15.135    5.5608
   15.150    5.3291
   15.165    5.5292
   15.180    5.5819
   15.195    5.5398
   15.210    5.3818
   15.225    5.8347
   15.240    5.5714
   15.255    5.6977
   15.270    5.5819
   15.285    5.6661
   15.300    5.5187
   15.315    5.7609
   15.330    5.7083
   15.345    5.5503
   15.360    5.6872
   15.375    5.3923
   15.390    5.1606
   15.405    5.3397
   15.420    5.5819
   15.435    5.6240
   15.450    5.5503
   15.465    5.0658
   15.480    5.5398
   15.495    5.5924
   15.510    5.6345
   15.525    5.5292
   15.540    5.4660
   15.555    5.5398
   15.570    5.6451
   15.585    5.6029
   15.600    5.5187
   15.615    5.6029
   15.630    5.6556
   15.645    5.4028
   15.660    5.7399
   15.675    5.6345
   15.690    5.6029
   15.705    5.5082
   15.720    5.2343
   15.735    5.3081
   15.750    5.4344
   15.765    5.8557
   15.780    5.2027
   15.795    5.2133
   15.810    5.6451
   15.825    5.8241
   15.840    5.4660
   15.855    5.5503
   15.870    5.5292
   15.885    5.5608
   15.900    5.5503
   15.915    5.6661
   15.930    5.1606
   15.945    5.3502
   15.960    5.7399
   15.975    5.5503
   15.990    5.8452
   16.005    5.5608
   16.020    5.4134
   16.035    5.4028
   16.050    5.5292
   16.065    5.5082
   16.080    5.7820
   16.095    5.3081
   16.110    5.4871
   16.125    5.6240
   16.140    5.6345
   16.155    5.7504
   16.170    5.4660
   16.185    5.5503
   16.200    5.7083
   16.215    5.4871
   16.230    5.6240
   16.245    5.5082
   16.260    5.7504
   16.275    5.4766
   16.290    5.5292
   16.305    5.4766
   16.320    5.4450
   16.335    5.6977
   16.350    5.6029
   16.365    5.5082
   16.380    5.5503
   16.395    5.4976
   16.410    5.7083
   16.425    5.4555
   16.440    5.6345
   16.455    5.5924
   16.470    5.7293
   16.485    5.3081
   16.500    5.2870
   16.515    5.6240
   16.530    5.5503
   16.545    5.5292
   16.560    5.6977
   16.575    5.4344
   16.590    5.7504
   16.605    5.9084
   16.620    5.6556
   16.635    5.7609
   16.650    5.5503
   16.665    5.3081
   16.680    5.5714
   16.695    5.5187
   16.710    5.6345
   16.725    5.4344
   16.740    5.8031
   16.755    5.5398
   16.770    5.7083
   16.785    5.2238
   16.800    5.1501
   16.815    5.2870
   16.830    5.8241
   16.845    5.7820
   16.860    5.1922
   16.875    5.3291
   16.890    5.4344
   16.905    5.9716
   16.920    5.6872
   16.935    5.6029
   16.950    5.5503
   16.965    5.4555
   16.980    5.5398
   16.995    5.5924
   17.010    5.4239
   17.025    5.7188
   17.040    5.6556
   17.055    5.1080
   17.070    5.3818
   17.085    5.5714
   17.100    5.6029
   17.115    5.3607
   17.130    5.4134
   17.145    5.8347
   17.160    5.6556
   17.175    5.7399
   17.190    5.5714
   17.205    5.6240
   17.220    6.1085
   17.235    5.8136
   17.250    5.6767
   17.265    5.5503
   17.280    5.7925
   17.295    5.3923
   17.310    5.4134
   17.325    5.0342
   17.340    5.2659
   17.355    5.8241
   17.370    5.7188
   17.385    5.6556
   17.400    5.8557
   17.415    5.4660
   17.430    5.4660
   17.445    5.6872
   17.460    5.7083
   17.475    5.3291
   17.490    5.4239
   17.505    5.6767
   17.520    5.8031
   17.535    5.8136
   17.550    5.7504
   17.565    5.6135
   17.580    5.3291
   17.595    5.4766
   17.610    5.7925
   17.625    5.6977
   17.640    5.8768
   17.655    6.0769
   17.670    5.5608
   17.685    5.6977
   17.700    5.8452
   17.715    5.7083
   17.730    5.8768
   17.745    5.6661
   17.760    5.5714
   17.775    5.4344
   17.790    5.5398
   17.805    5.5082
   17.820    5.5924
   17.835    5.3923
   17.850    5.2133
   17.865    5.4239
   17.880    5.2870
   17.895    5.6767
   17.910    5.5714
   17.925    5.0237
   17.940    5.3186
   17.955    5.8136
   17.970    5.5608
   17.985    5.2659
   18.000    5.2659
   18.015    5.4555
   18.030    5.6661
   18.045    5.4450
   18.060    5.8031
   18.075    5.4766
   18.090    5.2343
   18.105    5.2343
   18.120    5.1711
   18.135    5.7188
   18.150    5.7188
   18.165    5.2659
   18.180    5.2765
   18.195    5.5608
   18.210    5.5398
   18.225    5.7293
   18.240    5.9716
   18.255    5.7083
   18.270    5.6240
   18.285    5.6451
   18.300    5.6767
   18.315    5.7399
   18.330    5.9294
   18.345    5.5714
   18.360    5.1185
   18.375    5.4766
   18.390    5.4976
   18.405    5.6240
   18.420    5.6135
   18.435    5.6872
   18.450    5.6872
   18.465    5.7188
   18.480    5.8347
   18.495    5.8873
   18.510    5.7715
   18.525    5.9084
   18.540    5.7188
   18.555    5.7399
   18.570    5.4660
   18.585    5.6240
   18.600    5.5819
   18.615    5.4766
   18.630    5.4871
   18.645    5.6661
   18.660    5.7083
   18.675    5.6661
   18.690    5.5292
   18.705    5.2975
   18.720    5.4239
   18.735    5.4450
   18.750    5.6029
   18.765    6.0453
   18.780    5.8241
   18.795    5.7609
   18.810    5.8241
   18.825    5.9294
   18.840    5.6029
   18.855    5.5714
   18.870    5.7715
   18.885    5.4871
   18.900    5.4555
   18.915    5.5714
   18.930    5.6556
   18.945    5.9400
   18.960    5.7820
   18.975    5.6451
   18.990    6.0874
   19.005    5.8768
   19.020    6.0558
   19.035    6.0137
   19.050    5.8452
   19.065    5.2870
   19.080    5.6451
   19.095    5.4766
   19.110    5.7188
   19.125    6.0348
   19.140    5.9505
   19.155    5.8452
   19.170    5.8031
   19.185    5.6872
   19.200    5.6872
   19.215    5.5714
   19.230    6.0242
   19.245    6.2559
   19.260    5.8452
   19.275    5.6661
   19.290    5.5608
   19.305    6.0137
   19.320    6.0137
   19.335    6.2875
   19.350    5.9294
   19.365    6.0242
   19.380    5.8768
   19.395    5.8031
   19.410    5.6977
   19.425    5.6029
   19.440    5.6977
   19.455    5.8557
   19.470    5.8031
   19.485    6.0558
   19.500    5.9294
   19.515    6.0979
   19.530    6.1506
   19.545    6.0664
   19.560    5.7293
   19.575    5.6451
   19.590    5.5924
   19.605    5.5608
   19.620    6.0242
   19.635    5.6240
   19.650    5.4344
   19.665    5.7188
   19.680    5.7609
   19.695    5.6556
   19.710    5.5292
   19.725    5.6345
   19.740    5.6451
   19.755    5.9084
   19.770    6.0242
   19.785    5.9610
   19.800    6.2033
   19.815    6.2138
   19.830    5.9294
   19.845    5.4976
   19.860    5.6872
   19.875    5.6451
   19.890    5.7188
   19.905    5.7820
   19.920    6.1401
   19.935    6.0242
   19.950    5.9505
   19.965    5.8347
   19.980    5.8136
   19.995    5.5924
   20.010    5.7188
   20.025    5.7925
   20.040    5.8136
   20.055    5.7399
   20.070    5.7820
   20.085    6.3296
   20.100    5.9505
   20.115    5.5082
   20.130    5.5503
   20.145    5.6661
   20.160    6.0032
   20.175    6.0769
   20.190    5.9821
   20.205    5.7925
   20.220    5.8768
   20.235    5.9294
   20.250    6.2033
   20.265    5.7399
   20.280    5.7925
   20.295    6.0348
   20.310    5.6661
   20.325    6.2770
   20.340    5.9821
   20.355    6.0558
   20.370    6.1190
   20.385    6.0137
   20.400    6.2875
   20.415    6.1927
   20.430    6.0032
   20.445    5.9821
   20.460    6.2454
   20.475    6.0032
   20.490    5.8978
   20.505    6.0558
   20.520    5.8978
   20.535    5.5398
   20.550    5.8241
   20.565    6.0769
   20.580    5.9400
   20.595    5.8241
   20.610    6.0453
   20.625    5.9189
   20.640    5.8452
   20.655    5.9294
   20.670    5.5924
   20.685    5.9926
   20.700    6.0664
   20.715    5.8873
   20.730    6.0032
   20.745    5.6872
   20.760    5.9189
   20.775    5.8873
   20.790    5.9505
   20.805    6.0558
   20.820    5.7925
   20.835    5.9716
   20.850    6.0242
   20.865    5.8031
   20.880    5.6977
   20.895    5.8873
   20.910    5.9716
   20.925    5.8136
   20.940    5.9400
   20.955    6.2559
   20.970    6.4034
   20.985    6.1401
   21.000    5.8768
   21.015    5.8873
   21.030    5.9926
   21.045    6.5824
   21.060    5.8662
   21.075    6.0453
   21.090    6.0032
   21.105    6.0769
   21.120    6.0558
   21.135    6.0874
   21.150    6.2033
   21.165    6.0874
   21.180    6.3296
   21.195    6.0769
   21.210    6.1611
   21.225    5.6977
   21.240    5.6556
   21.255    6.1085
   21.270    5.7399
   21.285    5.7715
   21.300    6.2033
   21.315    6.2981
   21.330    5.7293
   21.345    5.8241
   21.360    6.0664
   21.375    5.7293
   21.390    5.9084
   21.405    6.0137
   21.420    6.0874
   21.435    6.6772
   21.450    6.1506
   21.465    6.0874
   21.480    6.1190
   21.495    6.0874
   21.510    6.2770
   21.525    6.1717
   21.540    5.8662
   21.555    6.2981
   21.570    6.2770
   21.585    6.1190
   21.600    5.9716
   21.615    5.9926
   21.630    5.9400
   21.645    6.1085
   21.660    6.1506
   21.675    6.0979
   21.690    6.0874
   21.705    6.0769
   21.720    6.0558
   21.735    6.1295
   21.750    6.0032
   21.765    6.0137
   21.780    6.6140
   21.795    6.0032
   21.810    6.1401
   21.825    5.6977
   21.840    5.3712
   21.855    5.7820
   21.870    5.7925
   21.885    6.0874
   21.900    6.0769
   21.915    5.7715
   21.930    6.1717
   21.945    6.1927
   21.960    6.0558
   21.975    6.2559
   21.990    6.4244
   22.005    5.9189
   22.020    6.0558
   22.035    5.9189
   22.050    6.0769
   22.065    6.3191
   22.080    6.4771
   22.095    6.2665
   22.110    6.0769
   22.125    5.6872
   22.140    5.8557
   22.155    6.3402
   22.170    6.3086
   22.185    6.5192
   22.200    6.1085
   22.215    6.0874
   22.230    6.1401
   22.245    6.1506
   22.260    6.1717
   22.275    6.2770
   22.290    6.3718
   22.305    6.3086
   22.320    6.3191
   22.335    6.0558
   22.350    6.2770
   22.365    6.0137
   22.380    6.3507
   22.395    6.5613
   22.410    5.9505
   22.425    5.9610
   22.440    6.2770
   22.455    6.3402
   22.470    5.9505
   22.485    5.9505
   22.500    5.8136
   22.515    6.2454
   22.530    6.1611
   22.545    6.4455
   22.560    6.4350
   22.575    6.0664
   22.590    6.3612
   22.605    6.2559
   22.620    6.1717
   22.635    6.0769
   22.650    6.0558
   22.665    6.3612
   22.680    6.3191
   22.695    6.3402
   22.710    6.0874
   22.725    6.0664
   22.740    6.5719
   22.755    6.3823
   22.770    5.9294
   22.785    6.0979
   22.800    6.1506
   22.815    6.5719
   22.830    6.1190
   22.845    6.1822
   22.860    6.1717
   22.875    6.1717
   22.890    6.1611
   22.905    5.9294
   22.920    5.6345
   22.935    5.9821
   22.950    6.1717
   22.965    6.2559
   22.980    6.4876
   22.995    6.3507
   23.010    6.2349
   23.025    6.2349
   23.040    6.2875
   23.055    6.4244
   23.070    6.1506
   23.085    6.1401
   23.100    6.2454
   23.115    6.1295
   23.130    6.1717
   23.145    6.3612
   23.160    6.4139
   23.175    6.3296
   23.190    6.3823
   23.205    5.9084
   23.220    6.3823
   23.235    6.2875
   23.250    6.0453
   23.265    5.8768
   23.280    6.0558
   23.295    5.9294
   23.310    5.7925
   23.325    6.2454
   23.340    5.9716
   23.355    5.9821
   23.370    6.4876
   23.385    6.1822
   23.400    6.0032
   23.415    6.1401
   23.430    6.0558
   23.445    6.1611
   23.460    6.2349
   23.475    6.1190
   23.490    5.9505
   23.505    6.2033
   23.520    6.4244
   23.535    6.0453
   23.550    6.2559
   23.565    5.6977
   23.580    6.2454
   23.595    6.2875
   23.610    5.8241
   23.625    6.0348
   23.640    6.0348
   23.655    5.9084
   23.670    6.2875
   23.685    6.0664
   23.700    5.9505
   23.715    6.0979
   23.730    5.8031
   23.745    6.1717
   23.760    6.0453
   23.775    6.1717
   23.790    6.2454
   23.805    6.1611
   23.820    6.1190
   23.835    6.0874
   23.850    6.1506
   23.865    5.9926
   23.880    6.3507
   23.895    6.5298
   23.910    5.9821
   23.925    5.9505
   23.940    6.0558
   23.955    6.2454
   23.970    5.6556
   23.985    5.6345
   24.000    5.8031
   24.015    5.8031
   24.030    5.9821
   24.045    6.2138
   24.060    5.9821
   24.075    6.2770
   24.090    6.2559
   24.105    6.0979
   24.120    6.1717
   24.135    5.8031
   24.150    6.2243
   24.165    6.2454
   24.180    6.1401
   24.195    6.4350
   24.210    6.0558
   24.225    6.1611
   24.240    6.5192
   24.255    6.6877
   24.270    6.2875
   24.285    5.9821
   24.300    5.9926
   24.315    6.2349
   24.330    5.9610
   24.345    6.0032
   24.360    6.4244
   24.375    6.3507
   24.390    6.0558
   24.405    5.9084
   24.420    6.0137
   24.435    6.2770
   24.450    6.0769
   24.465    6.0242
   24.480    6.0242
   24.495    5.9926
   24.510    5.6872
   24.525    5.9400
   24.540    6.0664
   24.555    5.9505
   24.570    6.1190
   24.585    6.1927
   24.600    6.1085
   24.615    5.8873
   24.630    6.1611
   24.645    6.2454
   24.660    5.9610
   24.675    5.6451
   24.690    6.0032
   24.705    6.0769
   24.720    6.2243
   24.735    6.0137
   24.750    5.9505
   24.765    5.7504
   24.780    5.9189
   24.795    5.6661
   24.810    5.7083
   24.825    5.7399
   24.840    6.3612
   24.855    6.1085
   24.870    5.8978
   24.885    5.7293
   24.900    5.5398
   24.915    6.2665
   24.930    6.1927
   24.945    5.9926
   24.960    5.9084
   24.975    5.5924
   24.990    6.0242
   25.005    6.1822
   25.020    5.7820
   25.035    6.1190
   25.050    6.1927
   25.065    6.0874
   25.080    6.1401
   25.095    5.8241
   25.110    5.8452
   25.125    5.6661
   25.140    5.9400
   25.155    6.1611
   25.170    5.9400
   25.185    5.8347
   25.200    5.8557
   25.215    6.0348
   25.230    6.2138
   25.245    6.0137
   25.260    6.2243
   25.275    6.0137
   25.290    6.3296
   25.305    5.7188
   25.320    6.1401
   25.335    5.7609
   25.350    5.4344
   25.365    5.8978
   25.380    5.7504
   25.395    5.8662
   25.410    5.9926
   25.425    5.9294
   25.440    5.9821
   25.455    5.6345
   25.470    6.0137
   25.485    6.1927
   25.500    5.9716
   25.515    6.3928
   25.530    5.6029
   25.545    5.6240
   25.560    6.1190
   25.575    6.0348
   25.590    5.8873
   25.605    6.2243
   25.620    6.2138
   25.635    6.3086
   25.650    5.8452
   25.665    6.0348
   25.680    5.8978
   25.695    6.0453
   25.710    5.2975
   25.725    6.0137
   25.740    6.1611
   25.755    5.9716
   25.770    5.6451
   25.785    6.1611
   25.800    5.8031
   25.815    5.9716
   25.830    5.9610
   25.845    6.0558
   25.860    5.8136
   25.875    6.0032
   25.890    6.0874
   25.905    5.9716
   25.920    5.7715
   25.935    5.8978
   25.950    5.5503
   25.965    5.7820
   25.980    6.0032
   25.995    5.7820
   26.010    5.8241
   26.025    6.0664
   26.040    5.9926
   26.055    5.7083
   26.070    5.8241
   26.085    5.9716
   26.100    5.8241
   26.115    5.7925
   26.130    5.6345
   26.145    5.6661
   26.160    5.7609
   26.175    5.7293
   26.190    5.5082
   26.205    5.8347
   26.220    5.8136
   26.235    5.7715
   26.250    5.7188
   26.265    5.5608
   26.280    5.8452
   26.295    5.6767
   26.310    5.7925
   26.325    5.3186
   26.340    5.8452
   26.355    5.4344
   26.370    5.9189
   26.385    5.6872
   26.400    5.9189
   26.415    5.8662
   26.430    5.6661
   26.445    5.9505
   26.460    5.4555
   26.475    5.6872
   26.490    5.8452
   26.505    5.7715
   26.520    5.9084
   26.535    6.2033
   26.550    5.7399
   26.565    5.6029
   26.580    5.7399
   26.595    5.8557
   26.610    5.7504
   26.625    5.4871
   26.640    5.7925
   26.655    5.9505
   26.670    5.5608
   26.685    5.8768
   26.700    5.7188
   26.715    5.6135
   26.730    5.6661
   26.745    5.8662
   26.760    6.1401
   26.775    5.7609
   26.790    5.8662
   26.805    5.8557
   26.820    5.5714
   26.835    5.5503
   26.850    5.5398
   26.865    5.6661
   26.880    5.5819
   26.895    5.7083
   26.910    5.8873
   26.925    6.0137
   26.940    5.9926
   26.955    5.5608
   26.970    5.5819
   26.985    5.5714
   27.000    5.6872
   27.015    5.4660
   27.030    5.5292
   27.045    5.4028
   27.060    5.3397
   27.075    5.4134
   27.090    5.8768
   27.105    5.6451
   27.120    5.7925
   27.135    5.6029
   27.150    5.7504
   27.165    5.7293
   27.180    5.8241
   27.195    5.4028
   27.210    5.6029
   27.225    5.5187
   27.240    5.7399
   27.255    5.8452
   27.270    5.5398
   27.285    5.4344
   27.300    5.5503
   27.315    5.7715
   27.330    5.9400
   27.345    5.4134
   27.360    5.3923
   27.375    5.6135
   27.390    5.7504
   27.405    5.7820
   27.420    5.5819
   27.435    5.4239
   27.450    5.5608
   27.465    5.4976
   27.480    5.8031
   27.495    5.8031
   27.510    5.4766
   27.525    5.1606
   27.540    5.6345
   27.555    5.2765
   27.570    5.7820
   27.585    5.4239
   27.600    5.0237
   27.615    5.4344
   27.630    5.4976
   27.645    5.7399
   27.660    5.7293
   27.675    5.7399
   27.690    5.4450
   27.705    5.2870
   27.720    5.5503
   27.735    5.6345
   27.750    5.6029
   27.765    5.7925
   27.780    5.6872
   27.795    5.3397
   27.810    5.4555
   27.825    5.3291
   27.840    5.4134
   27.855    5.5819
   27.870    5.6029
   27.885    5.1711
   27.900    5.1395
   27.915    5.3186
   27.930    5.8136
   27.945    5.4976
   27.960    5.4344
   27.975    5.5082
   27.990    5.3818
   28.005    5.5819
   28.020    5.6661
   28.035    5.5714
   28.050    5.4450
   28.065    5.2238
   28.080    5.6345
   28.095    5.2238
   28.110    5.2238
   28.125    5.0869
   28.140    5.2343
   28.155    5.0658
   28.170    5.5924
   28.185    5.3923
   28.200    5.5503
   28.215    5.6451
   28.230    5.4555
   28.245    5.5398
   28.260    5.7083
   28.275    5.6872
   28.290    5.3607
   28.305    5.4028
   28.320    5.5714
   28.335    5.7925
   28.350    5.4134
   28.365    6.0242
   28.380    5.8557
   28.395    5.6135
   28.410    5.3186
   28.425    5.5924
   28.440    5.4555
   28.455    5.6661
   28.470    5.4660
   28.485    5.4660
   28.500    5.2343
   28.515    5.2449
   28.530    5.0553
   28.545    5.0974
   28.560    5.2870
   28.575    5.4344
   28.590    5.6451
   28.605    5.2975
   28.620    5.3081
   28.635    5.1290
   28.650    5.3923
   28.665    5.2449
   28.680    5.1711
   28.695    5.4976
   28.710    5.5503
   28.725    5.4871
   28.740    5.5503
   28.755    5.5292
   28.770    5.4766
   28.785    5.3818
   28.800    5.2870
   28.815    5.2133
   28.830    5.4028
   28.845    5.3291
   28.860    5.1711
   28.875    4.9921
   28.890    5.0869
   28.905    5.3291
   28.920    5.3607
   28.935    5.3186
   28.950    5.6029
   28.965    5.3291
   28.980    5.2343
   28.995    5.2659
   29.010    5.3712
   29.025    5.7609
   29.040    5.3291
   29.055    5.1922
   29.070    5.1711
   29.085    5.2659
   29.100    5.1501
   29.115    5.1711
   29.130    5.1080
   29.145    5.3081
   29.160    5.5503
   29.175    5.0342
   29.190    5.1395
   29.205    5.5187
   29.220    5.1080
   29.235    5.1817
   29.250    5.1711
   29.265    5.0869
   29.280    5.2238
   29.295    5.3291
   29.310    5.3607
   29.325    5.0974
   29.340    5.0448
   29.355    4.9078
   29.370    5.0658
   29.385    5.4555
   29.400    5.2449
   29.415    5.1501
   29.430    5.1606
   29.445    5.2554
   29.460    5.2870
   29.475    5.3081
   29.490    5.6029
   29.505    5.5398
   29.520    5.1606
   29.535    5.3291
   29.550    5.5187
   29.565    5.0658
   29.580    5.1080
   29.595    5.5503
   29.610    5.1817
   29.625    5.0869
   29.640    5.1080
   29.655    4.7077
   29.670    5.0342
   29.685    5.1290
   29.700    5.2027
   29.715    5.1501
   29.730    5.4239
   29.745    5.3923
   29.760    5.2449
   29.775    5.4450
   29.790    5.0026
   29.805    5.1501
   29.820    4.6656
   29.835    4.9394
   29.850    5.1606
   29.865    5.2343
   29.880    5.5608
   29.895    5.5398
   29.910    5.2343
   29.925    5.2133
   29.940    5.3397
   29.955    5.6135
   29.970    5.1395
   29.985    5.0658
   30.000    5.4028
   30.015    4.8447
   30.030    5.0658
   30.045    5.3607
   30.060    5.2554
   30.075    5.0869
   30.090    4.9289
   30.105    4.9500
   30.120    4.9921
   30.135    5.0342
   30.150    5.2343
   30.165    5.1922
   30.180    5.2870
   30.195    5.1080
   30.210    4.8025
   30.225    5.1501
   30.240    4.9816
   30.255    4.9394
   30.270    5.0658
   30.285    5.1185
   30.300    5.2554
   30.315    5.1817
   30.330    4.8657
   30.345    4.5814
   30.360    5.3712
   30.375    5.0026
   30.390    5.2343
   30.405    5.1395
   30.420    5.2343
   30.435    5.3081
   30.450    5.2975
   30.465    5.2133
   30.480    4.8763
   30.495    4.8868
   30.510    5.0553
   30.525    5.0764
   30.540    5.0026
   30.555    4.9184
   30.570    5.0026
   30.585    4.8973
   30.600    4.7077
   30.615    4.6867
   30.630    4.7604
   30.645    4.8025
   30.660    4.6340
   30.675    4.8763
   30.690    4.6761
   30.705    4.8025
   30.720    5.0974
   30.735    4.7604
   30.750    4.9078
   30.765    4.7499
   30.780    5.1080
   30.795    5.0764
   30.810    4.7920
   30.825    4.7077
   30.840    4.7709
   30.855    4.9289
   30.870    4.8447
   30.885    4.7393
   30.900    5.0448
   30.915    4.9605
   30.930    5.2765
   30.945    5.1290
   30.960    4.7183
   30.975    4.8131
   30.990    4.8341
   31.005    5.0869
   31.020    4.9921
   31.035    4.6761
   31.050    4.4550
   31.065    4.8868
   31.080    5.2659
   31.095    4.9500
   31.110    4.8657
   31.125    5.0553
   31.140    4.8447
   31.155    5.1185
   31.170    4.9605
   31.185    5.0237
   31.200    4.7183
   31.215    4.9816
   31.230    4.8236
   31.245    4.6024
   31.260    4.5708
   31.275    5.0026
   31.290    4.9605
   31.305    4.8657
   31.320    4.6867
   31.335    4.7288
   31.350    4.8657
   31.365    4.7077
   31.380    4.8447
   31.395    4.8131
   31.410    4.7604
   31.425    5.0342
   31.440    4.7499
   31.455    4.9710
   31.470    4.6656
   31.485    5.0342
   31.500    4.7709
   31.515    4.8657
   31.530    5.2765
   31.545    4.9500
   31.560    5.0342
   31.575    4.8447
   31.590    4.7183
   31.605    4.7077
   31.620    4.8973
   31.635    4.6130
   31.650    4.7499
   31.665    4.7288
   31.680    4.8868
   31.695    5.2659
   31.710    5.0869
   31.725    5.0026
   31.740    4.6761
   31.755    4.8657
   31.770    4.6656
   31.785    4.2549
   31.800    4.7077
   31.815    4.6867
   31.830    4.7499
   31.845    4.8341
   31.860    4.9816
   31.875    4.8236
   31.890    4.7815
   31.905    4.7077
   31.920    4.7815
   31.935    4.6972
   31.950    4.7815
   31.965    4.5919
   31.980    4.9605
   31.995    4.6024
   32.010    4.7183
   32.025    4.6235
   32.040    4.8552
   32.055    5.0026
   32.070    4.8341
   32.085    5.0974
   32.100    5.0342
   32.115    4.8131
   32.130    4.8657
   32.145    4.7183
   32.160    4.8973
   32.175    4.8552
   32.190    4.8236
   32.205    4.7920
   32.220    4.9605
   32.235    5.0553
   32.250    4.7604
   32.265    4.5708
   32.280    4.4866
   32.295    4.7499
   32.310    4.7183
   32.325    4.3813
   32.340    4.6551
   32.355    4.8341
   32.370    4.7183
   32.385    4.9394
   32.400    5.0237
   32.415    4.6656
   32.430    4.6130
   32.445    4.6445
   32.460    4.7393
   32.475    4.8025
   32.490    4.5919
   32.505    4.9184
   32.520    4.6445
   32.535    4.9710
   32.550    4.7920
   32.565    4.7709
   32.580    4.6551
   32.595    4.5814
   32.610    4.6235
   32.625    4.7288
   32.640    4.6972
   32.655    4.7815
   32.670    4.9921
   32.685    4.7393
   32.700    4.7709
   32.715    4.5919
   32.730    4.6024
   32.745    4.7288
   32.760    4.9078
   32.775    4.8657
   32.790    4.7499
   32.805    4.5814
   32.820    4.6024
   32.835    4.5919
   32.850    4.6656
   32.865    4.7920
   32.880    4.8657
   32.895    4.6235
   32.910    4.3497
   32.925    4.1601
   32.940    4.7709
   32.955    4.8763
   32.970    4.7920
   32.985    4.4550
   33.000    4.4234
   33.015    4.4971
   33.030    4.6972
   33.045    4.4760
   33.060    4.7920
   33.075    4.7604
   33.090    4.5919
   33.105    4.9500
   33.120    4.7288
   33.135    4.7604
   33.150    4.6656
   33.165    4.4128
   33.180    4.2549
   33.195    4.4234
   33.210    4.5919
   33.225    4.2654
   33.240    4.5182
   33.255    4.6867
   33.270    4.4550
   33.285    4.4550
   33.300    4.5708
   33.315    4.4234
   33.330    4.1390
   33.345    4.4339
   33.360    4.5392
   33.375    4.2443
   33.390    4.4234
   33.405    4.6867
   33.420    4.2759
   33.435    4.3918
   33.450    4.3918
   33.465    4.6235
   33.480    4.4866
   33.495    4.3286
   33.510    4.6130
   33.525    4.4760
   33.540    4.1811
   33.555    4.3918
   33.570    4.7709
   33.585    4.7393
   33.600    4.6340
   33.615    4.7709
   33.630    4.4971
   33.645    4.3918
   33.660    4.4128
   33.675    4.7920
   33.690    4.4971
   33.705    4.4444
   33.720    4.5603
   33.735    4.4760
   33.750    4.1285
   33.765    4.4655
   33.780    4.8552
   33.795    4.9289
   33.810    4.4234
   33.825    4.5498
   33.840    4.4760
   33.855    4.6024
   33.870    4.5287
   33.885    4.4339
   33.900    4.6235
   33.915    4.2549
   33.930    4.8657
   33.945    4.8447
   33.960    4.5603
   33.975    4.8973
   33.990    4.5814
   34.005    4.4760
   34.020    4.5392
   34.035    4.6656
   34.050    4.7604
   34.065    4.6761
   34.080    4.2654
   34.095    4.6340
   34.110    4.5708
   34.125    4.2970
   34.140    4.5392
   34.155    4.6235
   34.170    4.6761
   34.185    4.8657
   34.200    4.6235
   34.215    4.3181
   34.230    4.3707
   34.245    4.4550
   34.260    4.3391
   34.275    4.6340
   34.290    4.4655
   34.305    4.4234
   34.320    4.5498
   34.335    4.5708
   34.350    4.5708
   34.365    4.5182
   34.380    4.2022
   34.395    4.6551
   34.410    4.6340
   34.425    4.4234
   34.440    4.5814
   34.455    4.4971
   34.470    4.3391
   34.485    4.5708
   34.500    4.4655
   34.515    4.7288
   34.530    4.6235
   34.545    4.2654
   34.560    4.5076
   34.575    4.4339
   34.590    4.4866
   34.605    4.5392
   34.620    4.6340
   34.635    4.6130
   34.650    4.6340
   34.665    4.3075
   34.680    4.1496
   34.695    4.2654
   34.710    4.4971
   34.725    4.4971
   34.740    4.5708
   34.755    4.1496
   34.770    4.2022
   34.785    4.6972
   34.800    4.3286
   34.815    4.1180
   34.830    4.2338
   34.845    4.3497
   34.860    4.4234
   34.875    4.5603
   34.890    4.7920
   34.905    4.6024
   34.920    4.4444
   34.935    4.2865
   34.950    4.3707
   34.965    3.9389
   34.980    3.9705
   34.995    4.2443
   35.010    4.1811
   35.025    4.4444
   35.040    4.3602
   35.055    4.6656
   35.070    4.4128
   35.085    4.6445
   35.100    4.5708
   35.115    4.1601
   35.130    4.8131
   35.145    4.3181
   35.160    4.2759
   35.175    4.5708
   35.190    4.4866
   35.205    4.3181
   35.220    4.1601
   35.235    4.4023
   35.250    4.5392
   35.265    4.6761
   35.280    4.3391
   35.295    4.7499
   35.310    4.3918
   35.325    4.2970
   35.340    4.4234
   35.355    4.2233
   35.370    4.1074
   35.385    4.2127
   35.400    4.3813
   35.415    4.4128
   35.430    4.2549
   35.445    4.2865
   35.460    4.3075
   35.475    4.4760
   35.490    4.2970
   35.505    4.5076
   35.520    4.4023
   35.535    4.2443
   35.550    4.2970
   35.565    4.4866
   35.580    4.3918
   35.595    4.2654
   35.610    4.1390
   35.625    4.2127
   35.640    4.2654
   35.655    4.4760
   35.670    4.2022
   35.685    4.3075
   35.700    3.9705
   35.715    4.1496
   35.730    4.7077
   35.745    4.1601
   35.760    4.0653
   35.775    4.1601
   35.790    4.1496
   35.805    3.9810
   35.820    3.8757
   35.835    4.2022
   35.850    4.4655
   35.865    4.5287
   35.880    4.6340
   35.895    4.2865
   35.910    4.4655
   35.925    4.5498
   35.940    4.2549
   35.955    4.3602
   35.970    4.3707
   35.985    4.2022
   36.000    4.2233
   36.015    4.1706
   36.030    4.0864
   36.045    4.1285
   36.060    4.0969
   36.075    4.3181
   36.090    4.4971
   36.105    4.2970
   36.120    4.2865
   36.135    4.2022
   36.150    4.4971
   36.165    4.4866
   36.180    4.2338
   36.195    4.1180
   36.210    4.0653
   36.225    4.1390
   36.240    4.4550
   36.255    4.2338
   36.270    4.3918
   36.285    4.5392
   36.300    4.1917
   36.315    4.1811
   36.330    4.0864
   36.345    4.2233
   36.360    4.2654
   36.375    4.3813
   36.390    4.1180
   36.405    4.1390
   36.420    4.1601
   36.435    4.2022
   36.450    4.2338
   36.465    4.3918
   36.480    4.0126
   36.495    4.1285
   36.510    4.3602
   36.525    4.2233
   36.540    4.1074
   36.555    4.0969
   36.570    4.2443
   36.585    4.0653
   36.600    4.4128
   36.615    4.4866
   36.630    4.4760
   36.645    4.2022
   36.660    3.9600
   36.675    4.0337
   36.690    4.2970
   36.705    4.1811
   36.720    4.0442
   36.735    4.0548
   36.750    4.2865
   36.765    4.2127
   36.780    4.2233
   36.795    4.1917
   36.810    4.2127
   36.825    4.2549
   36.840    4.4339
   36.855    4.1706
   36.870    4.0232
   36.885    4.1390
   36.900    4.0126
   36.915    4.1285
   36.930    4.3075
   36.945    4.0232
   36.960    4.1180
   36.975    4.2549
   36.990    4.0864
   37.005    4.3075
   37.020    3.8125
   37.035    4.0969
   37.050    4.0021
   37.065    4.2338
   37.080    4.3602
   37.095    4.1390
   37.110    4.0021
   37.125    3.9916
   37.140    4.1811
   37.155    4.1074
   37.170    4.4023
   37.185    4.0548
   37.200    4.1601
   37.215    4.2865
   37.230    4.1706
   37.245    4.3391
   37.260    4.1496
   37.275    4.2549
   37.290    4.1180
   37.305    4.1496
   37.320    4.0548
   37.335    4.2549
   37.350    4.1917
   37.365    4.5392
   37.380    4.2022
   37.395    4.0653
   37.410    3.9810
   37.425    4.1811
   37.440    4.1811
   37.455    4.1811
   37.470    3.9705
   37.485    4.1917
   37.500    4.3602
   37.515    4.1180
   37.530    4.2865
   37.545    4.1180
   37.560    4.5076
   37.575    4.2022
   37.590    3.9600
   37.605    4.0232
   37.620    4.1180
   37.635    4.1601
   37.650    4.3286
   37.665    4.2233
   37.680    3.9600
   37.695    4.0126
   37.710    4.3075
   37.725    4.0969
   37.740    4.2970
   37.755    4.0337
   37.770    3.9073
   37.785    4.0969
   37.800    3.9916
   37.815    4.1917
   37.830    4.3286
   37.845    3.9600
   37.860    3.8968
   37.875    4.1811
   37.890    4.2233
   37.905    4.3181
   37.920    4.2233
   37.935    4.3075
   37.950    4.4128
   37.965    4.1601
   37.980    4.0442
   37.995    4.0126
   38.010    4.1601
   38.025    4.3918
   38.040    4.2654
   38.055    4.2022
   38.070    4.1074
   38.085    3.8441
   38.100    3.7704
   38.115    3.9284
   38.130    3.9179
   38.145    4.2443
   38.160    4.2127
   38.175    3.8757
   38.190    4.1706
   38.205    4.3075
   38.220    4.3602
   38.235    4.2233
   38.250    4.3707
   38.265    4.2549
   38.280    4.0653
   38.295    4.0232
   38.310    4.2233
   38.325    4.3707
   38.340    4.5603
   38.355    4.3918
   38.370    4.1917
   38.385    3.9284
   38.400    4.0548
   38.415    3.7599
   38.430    4.0337
   38.445    3.9179
   38.460    4.1285
   38.475    4.1180
   38.490    4.0548
   38.505    4.3286
   38.520    4.1390
   38.535    4.1811
   38.550    4.0864
   38.565    3.6651
   38.580    3.8968
   38.595    4.0758
   38.610    4.1074
   38.625    4.3286
   38.640    4.2233
   38.655    4.4234
   38.670    3.9810
   38.685    3.9600
   38.700    4.1811
   38.715    4.0758
   38.730    4.0548
   38.745    3.8757
   38.760    4.1917
   38.775    4.1285
   38.790    4.1180
   38.805    4.0442
   38.820    3.8336
   38.835    3.9705
   38.850    3.8441
   38.865    4.0126
   38.880    3.9284
   38.895    3.9705
   38.910    3.8441
   38.925    3.9073
   38.940    3.8231
   38.955    4.0758
   38.970    4.2338
   38.985    4.1180
   39.000    3.9179
   39.015    4.1180
   39.030    4.4234
   39.045    4.5076
   39.060    4.1390
   39.075    4.0232
   39.090    4.3181
   39.105    3.8231
   39.120    4.0021
   39.135    3.6756
   39.150    3.8757
   39.165    4.1601
   39.180    4.1917
   39.195    4.1390
   39.210    4.3181
   39.225    4.3391
   39.240    4.2127
   39.255    3.8231
   39.270    3.7599
   39.285    3.8863
   39.300    3.9494
   39.315    4.1811
   39.330    4.2022
   39.345    4.1390
   39.360    4.1496
   39.375    3.8125
   39.390    4.0864
   39.405    4.0653
   39.420    4.0864
   39.435    3.9810
   39.450    3.8968
   39.465    4.1285
   39.480    3.9916
   39.495    4.2654
   39.510    3.8968
   39.525    3.5703
   39.540    3.8336
   39.555    4.3602
   39.570    4.1811
   39.585    4.1917
   39.600    4.0548
   39.615    4.0442
   39.630    3.8968
   39.645    3.8863
   39.660    4.0337
   39.675    4.0758
   39.690    4.0442
   39.705    4.0864
   39.720    4.1074
   39.735    3.7704
   39.750    4.1601
   39.765    4.2022
   39.780    4.1496
   39.795    3.8863
   39.810    4.1074
   39.825    4.2443
   39.840    4.2127
   39.855    3.9494
   39.870    4.0969
   39.885    4.3286
   39.900    3.9179
   39.915    4.0021
   39.930    4.0442
   39.945    3.8020
   39.960    4.0232
   39.975    3.8863
   39.990    3.8652
