    1.500   10.5725
    1.515   10.7223
    1.530   10.4120
    1.545   10.5832
    1.560   10.2194
    1.575   10.2943
    1.590   10.0375
    1.605   10.0375
    1.620    9.4061
    1.635    9.4810
    1.650    9.3205
    1.665    9.3419
    1.680    9.0102
    1.695    8.8925
    1.710    8.7640
    1.725    8.7640
    1.740    8.9995
    1.755    8.7854
    1.770    8.7105
    1.785    8.3681
    1.800    8.3146
    1.815    8.4965
    1.830    8.2611
    1.845    8.4002
    1.860    8.2076
    1.875    8.0257
    1.890    7.8759
    1.905    8.1006
    1.920    8.1434
    1.935    7.1054
    1.950    7.6940
    1.965    7.3087
    1.980    7.8866
    1.995    7.3836
    2.010    7.2017
    2.025    7.1375
    2.040    6.8165
    2.055    6.4741
    2.070    7.0947
    2.085    6.8486
    2.100    7.0091
    2.115    6.7309
    2.130    6.9342
    2.145    6.6346
    2.160    6.4848
    2.175    6.6025
    2.190    6.7844
    2.205    6.4205
    2.220    6.6346
    2.235    6.6453
    2.250    6.3242
    2.265    6.5811
    2.280    6.0032
    2.295    5.9497
    2.310    6.0139
    2.325    6.0139
    2.340    5.9925
    2.355    5.7892
    2.370    5.9497
    2.385    6.1530
    2.400    6.2279
    2.415    5.6929
    2.430    5.9711
    2.445    5.8427
    2.460    5.4468
    2.475    5.5645
    2.490    5.6822
    2.505    5.5003
    2.520    5.5324
    2.535    5.5431
    2.550    5.4789
    2.565    5.6822
    2.580    5.7143
    2.595    5.7143
    2.610    5.1685
    2.625    5.1685
    2.640    5.4789
    2.655    5.2006
    2.670    5.0080
    2.685    5.2434
    2.700    5.1043
    2.715    5.3398
    2.730    5.2755
    2.745    4.9331
    2.760    5.4254
    2.775    5.4040
    2.790    5.0722
    2.805    5.0829
    2.820    4.9973
    2.835    5.1578
    2.850    5.2327
    2.865    4.9010
    2.880    4.9545
    2.895    4.8261
    2.910    4.7940
    2.925    5.2862
    2.940    5.1150
    2.955    4.9545
    2.970    5.3291
    2.985    5.2755
    3.000    4.9224
    3.015    5.6715
    3.030    5.1685
    3.045    4.8582
    3.060    4.8475
    3.075    5.4147
    3.090    4.8475
    3.105    5.3184
    3.120    5.1899
    3.135    5.1043
    3.150    5.3505
    3.165    4.8368
    3.180    5.0080
    3.195    5.2327
    3.210    5.3077
    3.225    5.5003
    3.240    5.5645
    3.255    5.5324
    3.270    5.9283
    3.285    5.7785
    3.300    5.8534
    3.315    5.4682
    3.330    5.9818
    3.345    5.9069
    3.360    5.9925
    3.375    6.0567
    3.390    6.1744
    3.405    5.9711
    3.420    6.0139
    3.435    5.9283
    3.450    6.7951
    3.465    6.7844
    3.480    6.6774
    3.495    7.0412
    3.510    7.1910
    3.525    7.3729
    3.540    7.5655
    3.555    7.3515
    3.570    7.6512
    3.585    8.2825
    3.600    8.0471
    3.615    7.6190
    3.630    8.4537
    3.645    8.9353
    3.660    9.4703
    3.675    9.2563
    3.690    9.5666
    3.705    9.8341
    3.720   10.0910
    3.735   10.1124
    3.750   10.3585
    3.765   11.1610
    3.780   11.8780
    3.795   12.0385
    3.810   12.2632
    3.825   12.7448
    3.840   13.4617
    3.855   13.6330
    3.870   14.8743
    3.885   15.3130
    3.900   15.3665
    3.915   16.9609
    3.930   17.4318
    3.945   18.8122
    3.960   19.6897
    3.975   20.8454
    3.990   22.1295
    4.005   22.8999
    4.020   23.0605
    4.035   23.2210
    4.050   22.5361
    4.065   21.9262
    4.080   21.6372
    4.095   20.2140
    4.110   19.9572
    4.125   20.2140
    4.140   19.5613
    4.155   19.4757
    4.170   20.2782
    4.185   20.0963
    4.200   20.7812
    4.215   22.3007
    4.230   23.4564
    4.245   22.8999
    4.260   24.5479
    4.275   25.1899
    4.290   27.5548
    4.305   29.5773
    4.320   32.0706
    4.335   32.7448
    4.350   34.9171
    4.365   38.2772
    4.380   40.6314
    4.395   44.4516
    4.410   47.7368
    4.425   51.6854
    4.440   57.2606
    4.455   64.4195
    4.470   72.3382
    4.485   86.0246
    4.500  106.3242
    4.515  130.6046
    4.530  136.3724
    4.545   94.7459
    4.560   39.7325
    4.575   16.0835
    4.590   10.7437
    4.605    8.6035
    4.620    8.0578
    4.635    7.0626
    4.650    6.1851
    4.665    5.5431
    4.680    5.5110
    4.695    4.9117
    4.710    4.6014
    4.725    4.2162
    4.740    4.2804
    4.755    3.8630
    4.770    3.3922
    4.785    3.0177
    4.800    3.3387
    4.815    2.9642
    4.830    2.6538
    4.845    2.6859
    4.860    3.0498
    4.875    2.8678
    4.890    2.7929
    4.905    2.3649
    4.920    2.3649
    4.935    2.2151
    4.950    2.6217
    4.965    2.3007
    4.980    2.1937
    4.995    2.1937
    5.010    2.0974
    5.025    2.1830
    5.040    2.0546
    5.055    2.0974
    5.070    1.9262
    5.085    2.0439
    5.100    2.2258
    5.115    2.0546
    5.130    2.0225
    5.145    2.1188
    5.160    2.1295
    5.175    2.1188
    5.190    2.0225
    5.205    1.8513
    5.220    1.9369
    5.235    2.0225
    5.250    1.8941
    5.265    2.1295
    5.280    2.0974
    5.295    1.9155
    5.310    2.0011
    5.325    1.8834
    5.340    2.2686
    5.355    1.8834
    5.370    2.0546
    5.385    1.8727
    5.400    2.0867
    5.415    2.1295
    5.430    2.1509
    5.445    1.9262
    5.460    1.8941
    5.475    1.8620
    5.490    1.8406
    5.505    2.0118
    5.520    2.1509
    5.535    2.0760
    5.550    2.1509
    5.565    2.1723
    5.580    2.1188
    5.595    1.9904
    5.610    2.0867
    5.625    2.4184
    5.640    2.3114
    5.655    2.2258
    5.670    2.3970
    5.685    2.3007
    5.700    2.3970
    5.715    2.5361
    5.730    2.3542
    5.745    2.5575
    5.760    2.6859
    5.775    2.7287
    5.790    2.6217
    5.805    2.5254
    5.820    2.5575
    5.835    2.7822
    5.850    2.7073
    5.865    2.8571
    5.880    3.4136
    5.895    3.4885
    5.910    3.2852
    5.925    3.3922
    5.940    3.5634
    5.955    3.6062
    5.970    3.7881
    5.985    3.7132
    6.000    4.2697
    6.015    4.4302
    6.030    5.0722
    6.045    4.9224
    6.060    5.2541
    6.075    5.4789
    6.090    5.9283
    6.105    6.1316
    6.120    6.4419
    6.135    6.5383
    6.150    7.1482
    6.165    7.8866
    6.180    8.6142
    6.195    8.8604
    6.210    9.6629
    6.225   10.5939
    6.240   10.7972
    6.255   12.7876
    6.270   13.0230
    6.285   14.5532
    6.300   16.5650
    6.315   17.9989
    6.330   20.9845
    6.345   23.9700
    6.360   27.7689
    6.375   35.0883
    6.390   44.0021
    6.405   49.8876
    6.420   44.2269
    6.435   25.3826
    6.450    9.4061
    6.465    3.7988
    6.480    2.2900
    6.495    1.8192
    6.510    1.7335
    6.525    1.7014
    6.540    1.3269
    6.555    1.5730
    6.570    1.4874
    6.585    1.6372
    6.600    1.7442
    6.615    1.4446
    6.630    1.3804
    6.645    1.5837
    6.660    1.7014
    6.675    1.4232
    6.690    1.3269
    6.705    1.3269
    6.720    1.4125
    6.735    1.4446
    6.750    1.3269
    6.765    1.4553
    6.780    1.2092
    6.795    1.3055
    6.810    1.2627
    6.825    1.4553
    6.840    1.3162
    6.855    1.3055
    6.870    1.3911
    6.885    1.3911
    6.900    1.3269
    6.915    1.2841
    6.930    1.1985
    6.945    1.3269
    6.960    1.1878
    6.975    1.1557
    6.990    1.3804
    7.005    1.4339
    7.020    1.3804
    7.035    1.3269
    7.050    1.2413
    7.065    1.2841
    7.080    1.2627
    7.095    1.3269
    7.110    1.3697
    7.125    1.3483
    7.140    1.2520
    7.155    1.4446
    7.170    1.3162
    7.185    1.4232
    7.200    1.3269
    7.215    1.3162
    7.230    1.2948
    7.245    1.4232
    7.260    1.2520
    7.275    1.3483
    7.290    1.5730
    7.305    1.3162
    7.320    1.0594
    7.335    1.4339
    7.350    1.5730
    7.365    1.6479
    7.380    1.6051
    7.395    1.5088
    7.410    1.5837
    7.425    1.6158
    7.440    1.7335
    7.455    1.5516
    7.470    1.6051
    7.485    1.7335
    7.500    1.7764
    7.515    1.8941
    7.530    1.7657
    7.545    1.9583
    7.560    2.3007
    7.575    2.1402
    7.590    2.2686
    7.605    2.1295
    7.620    2.4291
    7.635    2.5361
    7.650    2.6110
    7.665    2.9749
    7.680    3.0391
    7.695    3.4136
    7.710    3.7239
    7.725    3.8416
    7.740    4.0342
    7.755    4.6121
    7.770    5.0722
    7.785    5.4468
    7.800    6.4526
    7.815    7.8438
    7.830    9.3847
    7.845   10.7009
    7.860   11.0005
    7.875    8.2076
    7.890    4.6870
    7.905    2.6859
    7.920    2.3435
    7.935    2.1188
    7.950    2.3649
    7.965    2.3542
    7.980    2.3649
    7.995    2.5254
    8.010    2.4612
    8.025    2.7822
    8.040    3.1140
    8.055    3.0605
    8.070    2.9535
    8.085    3.1140
    8.100    2.8999
    8.115    3.0498
    8.130    2.5682
    8.145    2.5468
    8.160    2.3435
    8.175    2.1188
    8.190    2.0118
    8.205    2.0118
    8.220    1.7442
    8.235    1.4339
    8.250    1.4767
    8.265    1.5088
    8.280    1.6158
    8.295    1.3376
    8.310    1.2841
    8.325    1.3269
    8.340    1.2734
    8.355    1.2520
    8.370    1.3269
    8.385    1.3055
    8.400    1.3483
    8.415    1.4553
    8.430    1.3483
    8.445    1.2199
    8.460    1.3590
    8.475    1.3697
    8.490    1.3162
    8.505    1.3590
    8.520    1.3162
    8.535    1.1985
    8.550    1.2948
    8.565    1.5195
    8.580    1.4446
    8.595    1.3055
    8.610    1.4339
    8.625    1.5195
    8.640    1.5088
    8.655    1.6265
    8.670    1.6586
    8.685    1.6372
    8.700    1.7121
    8.715    1.8299
    8.730    2.1509
    8.745    2.1188
    8.760    2.0225
    8.775    2.2579
    8.790    2.3649
    8.805    2.4826
    8.820    2.6859
    8.835    2.6966
    8.850    2.7501
    8.865    3.0284
    8.880    3.3387
    8.895    3.4136
    8.910    3.6811
    8.925    4.0128
    8.940    4.4516
    8.955    4.5586
    8.970    5.5003
    8.985    5.9497
    9.000    6.4526
    9.015    7.6083
    9.030    8.9888
    9.045   11.4500
    9.060   13.3547
    9.075   14.2108
    9.090   11.4607
    9.105    7.6833
    9.120    4.5051
    9.135    2.7287
    9.150    2.2044
    9.165    2.0546
    9.180    2.0974
    9.195    1.8299
    9.210    1.6800
    9.225    1.9583
    9.240    1.6372
    9.255    1.7335
    9.270    1.5944
    9.285    1.4553
    9.300    1.5516
    9.315    1.5088
    9.330    1.2841
    9.345    1.3055
    9.360    1.4339
    9.375    1.3376
    9.390    1.4125
    9.405    1.4874
    9.420    1.3055
    9.435    1.2092
    9.450    1.1343
    9.465    1.0487
    9.480    1.0701
    9.495    1.1878
    9.510    1.0594
    9.525    1.1236
    9.540    1.2841
    9.555    1.2199
    9.570    1.0915
    9.585    0.9310
    9.600    1.1557
    9.615    1.1664
    9.630    1.1664
    9.645    0.9203
    9.660    1.0915
    9.675    1.1343
    9.690    1.0915
    9.705    1.0701
    9.720    1.0701
    9.735    1.0808
    9.750    1.1022
    9.765    0.9738
    9.780    1.1343
    9.795    1.2413
    9.810    1.1236
    9.825    1.0701
    9.840    1.2306
    9.855    0.9738
    9.870    1.1236
    9.885    1.1450
    9.900    1.0701
    9.915    1.1771
    9.930    1.1664
    9.945    0.9417
    9.960    1.0701
    9.975    1.0808
    9.990    1.4125
   10.005    1.3697
   10.020    1.5302
   10.035    1.3376
   10.050    1.3055
   10.065    1.5730
   10.080    1.4981
   10.095    1.8406
   10.110    1.9369
   10.125    2.4184
   10.140    2.5896
   10.155    2.4505
   10.170    2.0974
   10.185    1.6586
   10.200    1.1450
   10.215    0.9631
   10.230    0.8989
   10.245    0.9096
   10.260    0.8240
   10.275    0.8240
   10.290    0.9845
   10.305    0.7919
   10.320    0.9631
   10.335    0.9524
   10.350    0.9738
   10.365    1.1129
   10.380    1.1236
   10.395    0.9417
   10.410    0.9417
   10.425    1.0166
   10.440    0.9203
   10.455    0.9952
   10.470    1.1236
   10.485    0.9417
   10.500    0.9203
   10.515    0.8989
   10.530    0.9952
   10.545    1.0915
   10.560    0.9952
   10.575    0.8668
   10.590    1.1450
   10.605    0.9631
   10.620    0.9417
   10.635    0.9845
   10.650    1.1343
   10.665    1.1557
   10.680    1.1878
   10.695    0.9631
   10.710    1.1771
   10.725    1.4232
   10.740    1.4660
   10.755    1.3376
   10.770    1.3590
   10.785    1.6265
   10.800    1.6265
   10.815    1.8192
   10.830    1.8192
   10.845    2.1616
   10.860    2.2258
   10.875    2.5040
   10.890    2.6324
   10.905    2.8036
   10.920    2.9749
   10.935    3.1461
   10.950    3.7132
   10.965    4.2162
   10.980    4.4837
   10.995    4.9866
   11.010    5.6715
   11.025    7.1268
   11.040    7.6190
   11.055    9.6415
   11.070   11.6640
   11.085   15.3237
   11.100   19.3258
   11.115   21.5516
   11.130   20.1498
   11.145   15.4628
   11.160    8.9246
   11.175    3.9914
   11.190    1.8941
   11.205    1.3055
   11.220    1.0808
   11.235    0.8775
   11.250    0.9310
   11.265    0.8240
   11.280    0.9417
   11.295    0.8240
   11.310    0.8240
   11.325    0.7384
   11.340    0.8454
   11.355    1.0273
   11.370    0.8882
   11.385    0.8668
   11.400    0.8454
   11.415    0.9631
   11.430    0.8989
   11.445    0.8882
   11.460    0.8882
   11.475    0.9310
   11.490    0.9524
   11.505    0.8133
   11.520    0.9310
   11.535    0.9310
   11.550    0.8561
   11.565    0.9952
   11.580    0.8454
   11.595    0.9845
   11.610    0.9096
   11.625    0.8454
   11.640    0.9203
   11.655    0.9310
   11.670    0.9524
   11.685    1.1129
   11.700    1.0166
   11.715    0.9310
   11.730    0.9738
   11.745    1.0166
   11.760    1.0915
   11.775    1.1022
   11.790    1.2948
   11.805    1.4232
   11.820    1.3804
   11.835    1.3697
   11.850    1.5516
   11.865    1.6907
   11.880    1.7335
   11.895    2.0439
   11.910    1.8834
   11.925    2.2258
   11.940    2.5896
   11.955    2.6966
   11.970    3.4350
   11.985    4.2590
   12.000    5.3612
   12.015    5.3398
   12.030    4.7084
   12.045    4.0342
   12.060    2.7073
   12.075    1.3804
   12.090    0.9845
   12.105    0.9845
   12.120    1.0273
   12.135    0.9417
   12.150    0.9845
   12.165    0.9631
   12.180    0.9845
   12.195    0.7812
   12.210    0.9738
   12.225    0.9310
   12.240    0.9203
   12.255    0.9417
   12.270    0.7812
   12.285    0.7598
   12.300    0.7598
   12.315    0.7919
   12.330    0.7812
   12.345    0.9096
   12.360    1.0487
   12.375    0.7919
   12.390    0.8026
   12.405    0.7277
   12.420    0.8882
   12.435    0.9738
   12.450    0.9310
   12.465    0.9417
   12.480    0.8347
   12.495    0.9631
   12.510    1.0380
   12.525    0.9845
   12.540    1.1664
   12.555    1.0166
   12.570    1.0594
   12.585    1.1450
   12.600    1.1771
   12.615    1.1557
   12.630    1.3269
   12.645    1.4018
   12.660    1.4660
   12.675    1.6051
   12.690    1.8941
   12.705    1.9690
   12.720    2.0332
   12.735    2.2793
   12.750    2.5040
   12.765    3.1247
   12.780    3.6597
   12.795    4.3553
   12.810    5.1043
   12.825    6.0674
   12.840    7.2980
   12.855    6.9449
   12.870    5.9604
   12.885    4.2697
   12.900    2.4933
   12.915    1.2841
   12.930    0.8882
   12.945    0.8989
   12.960    0.9738
   12.975    1.0273
   12.990    0.7705
   13.005    0.8561
   13.020    0.9952
   13.035    0.8561
   13.050    0.8561
   13.065    0.7812
   13.080    0.8989
   13.095    0.7491
   13.110    0.8133
   13.125    0.8775
   13.140    0.8133
   13.155    0.7812
   13.170    0.7063
   13.185    0.9096
   13.200    0.8561
   13.215    0.8133
   13.230    0.8882
   13.245    0.8240
   13.260    0.8561
   13.275    0.9417
   13.290    0.9952
   13.305    0.8668
   13.320    0.8668
   13.335    1.1022
   13.350    0.9524
   13.365    1.0166
   13.380    1.0594
   13.395    1.0166
   13.410    1.1343
   13.425    1.3697
   13.440    1.3804
   13.455    1.4446
   13.470    1.7014
   13.485    1.8085
   13.500    1.7764
   13.515    2.1830
   13.530    2.3756
   13.545    2.4291
   13.560    2.7715
   13.575    3.4136
   13.590    4.4302
   13.605    5.5324
   13.620    6.2386
   13.635    5.9176
   13.650    5.7464
   13.665    4.3018
   13.680    2.9428
   13.695    1.7121
   13.710    1.0701
   13.725    0.9524
   13.740    0.9845
   13.755    0.8026
   13.770    0.9417
   13.785    0.8240
   13.800    0.9310
   13.815    0.7812
   13.830    0.9738
   13.845    0.9524
   13.860    0.8882
   13.875    0.9631
   13.890    0.8775
   13.905    0.9310
   13.920    0.9203
   13.935    0.8454
   13.950    0.7170
   13.965    0.7598
   13.980    0.8989
   13.995    0.7598
   14.010    0.7919
   14.025    0.9203
   14.040    0.8240
   14.055    0.8775
   14.070    0.8668
   14.085    0.7705
   14.100    0.7598
   14.115    0.7705
   14.130    0.6100
   14.145    0.7812
   14.160    0.8882
   14.175    0.8882
   14.190    0.8347
   14.205    0.8133
   14.220    0.8989
   14.235    0.8775
   14.250    0.9524
   14.265    0.9952
   14.280    1.0594
   14.295    0.8775
   14.310    0.9631
   14.325    1.0701
   14.340    1.2734
   14.355    1.2734
   14.370    1.3590
   14.385    1.4232
   14.400    1.2627
   14.415    0.9845
   14.430    1.0059
   14.445    0.8561
   14.460    0.8240
   14.475    0.6528
   14.490    0.7919
   14.505    0.7170
   14.520    0.7491
   14.535    0.7919
   14.550    0.7705
   14.565    0.8240
   14.580    0.7170
   14.595    0.6956
   14.610    0.7277
   14.625    0.6635
   14.640    0.8133
   14.655    0.6956
   14.670    0.7491
   14.685    0.8133
   14.700    0.9845
   14.715    0.7384
   14.730    0.8026
   14.745    0.7491
   14.760    0.8561
   14.775    0.7384
   14.790    0.7491
   14.805    0.8561
   14.820    0.9738
   14.835    0.9417
   14.850    0.9203
   14.865    0.8454
   14.880    0.7491
   14.895    0.9952
   14.910    0.9631
   14.925    1.1129
   14.940    1.1557
   14.955    1.4981
   14.970    1.4232
   14.985    1.5516
   15.000    1.6372
   15.015    1.9583
   15.030    2.5040
   15.045    3.1140
   15.060    3.3601
   15.075    3.3387
   15.090    3.2424
   15.105    3.1033
   15.120    1.9797
   15.135    1.7549
   15.150    1.3055
   15.165    0.8775
   15.180    0.8668
   15.195    0.8775
   15.210    0.8240
   15.225    0.9845
   15.240    0.8561
   15.255    0.6742
   15.270    0.6207
   15.285    0.7491
   15.300    0.7277
   15.315    0.8026
   15.330    0.8026
   15.345    0.5993
   15.360    0.7170
   15.375    0.8561
   15.390    0.7384
   15.405    0.7384
   15.420    0.7063
   15.435    0.6956
   15.450    0.8240
   15.465    0.8240
   15.480    0.8240
   15.495    0.7598
   15.510    0.7705
   15.525    0.8561
   15.540    0.8775
   15.555    0.8347
   15.570    0.7598
   15.585    0.8989
   15.600    0.8775
   15.615    0.8989
   15.630    0.8668
   15.645    1.2092
   15.660    1.0273
   15.675    1.3483
   15.690    1.3590
   15.705    1.3697
   15.720    1.4018
   15.735    1.8513
   15.750    1.8941
   15.765    1.3697
   15.780    1.6051
   15.795    1.6051
   15.810    1.3590
   15.825    0.9631
   15.840    0.8454
   15.855    0.8561
   15.870    0.7598
   15.885    0.7170
   15.900    0.7598
   15.915    0.8133
   15.930    0.7812
   15.945    0.6849
   15.960    0.6528
   15.975    0.7384
   15.990    0.6742
   16.005    0.8240
   16.020    0.8026
   16.035    0.6956
   16.050    0.5993
   16.065    0.6100
   16.080    0.7598
   16.095    0.7919
   16.110    0.8454
   16.125    0.7063
   16.140    0.8240
   16.155    0.8240
   16.170    0.8026
   16.185    0.8668
   16.200    1.1022
   16.215    1.0059
   16.230    0.9952
   16.245    0.9631
   16.260    1.1878
   16.275    1.2627
   16.290    1.3697
   16.305    1.4981
   16.320    1.5730
   16.335    2.0332
   16.350    2.2686
   16.365    2.8999
   16.380    3.2210
   16.395    3.6169
   16.410    3.7988
   16.425    3.2103
   16.440    2.6110
   16.455    2.0332
   16.470    1.2413
   16.485    1.1236
   16.500    0.8989
   16.515    0.8133
   16.530    0.7063
   16.545    0.8775
   16.560    0.7277
   16.575    0.6207
   16.590    0.6421
   16.605    0.7384
   16.620    0.6100
   16.635    0.7063
   16.650    0.6742
   16.665    0.6635
   16.680    0.6742
   16.695    0.7598
   16.710    0.6421
   16.725    0.5671
   16.740    0.5993
   16.755    0.7277
   16.770    0.7277
   16.785    0.6849
   16.800    0.6314
   16.815    0.6100
   16.830    0.7919
   16.845    0.7170
   16.860    0.6100
   16.875    0.6849
   16.890    0.8882
   16.905    0.7812
   16.920    0.7170
   16.935    0.7063
   16.950    0.7384
   16.965    0.6100
   16.980    0.7919
   16.995    0.7063
   17.010    0.7384
   17.025    0.6956
   17.040    0.6207
   17.055    0.6849
   17.070    0.7170
   17.085    0.7063
   17.100    0.6956
   17.115    0.7063
   17.130    0.7812
   17.145    0.7170
   17.160    0.7384
   17.175    0.7063
   17.190    0.7277
   17.205    0.7063
   17.220    0.6421
   17.235    0.7598
   17.250    0.8240
   17.265    0.6956
   17.280    0.6314
   17.295    0.5993
   17.310    0.7170
   17.325    0.7598
   17.340    0.7063
   17.355    0.6314
   17.370    0.7919
   17.385    0.7277
   17.400    0.6635
   17.415    0.6742
   17.430    0.7705
   17.445    0.7384
   17.460    0.7812
   17.475    0.9631
   17.490    0.9096
   17.505    0.8668
   17.520    0.9845
   17.535    0.8775
   17.550    0.8989
   17.565    0.8989
   17.580    1.1129
   17.595    1.4446
   17.610    1.4232
   17.625    1.6372
   17.640    1.4660
   17.655    1.4125
   17.670    1.2413
   17.685    0.9203
   17.700    0.8454
   17.715    0.7170
   17.730    0.7705
   17.745    0.8668
   17.760    0.7170
   17.775    0.7491
   17.790    0.6207
   17.805    0.6528
   17.820    0.7170
   17.835    0.6207
   17.850    0.8133
   17.865    0.6314
   17.880    0.6956
   17.895    0.8026
   17.910    0.5886
   17.925    0.6314
   17.940    0.7491
   17.955    0.7170
   17.970    0.7170
   17.985    0.7384
   18.000    0.6528
   18.015    0.7705
   18.030    0.6421
   18.045    0.6956
   18.060    0.6956
   18.075    0.7919
   18.090    0.7491
   18.105    0.6956
   18.120    0.6849
   18.135    0.6742
   18.150    0.7705
   18.165    0.7491
   18.180    0.7491
   18.195    0.8133
   18.210    0.7812
   18.225    0.6314
   18.240    0.8133
   18.255    0.8133
   18.270    0.6528
   18.285    0.7384
   18.300    0.7705
   18.315    0.7812
   18.330    0.8989
   18.345    0.6528
   18.360    0.7170
   18.375    0.8882
   18.390    0.7384
   18.405    0.6100
   18.420    0.6528
   18.435    0.6421
   18.450    0.6742
   18.465    0.7063
   18.480    0.8026
   18.495    0.6314
   18.510    0.7170
   18.525    0.6742
   18.540    0.7491
   18.555    0.7063
   18.570    0.5993
   18.585    0.7598
   18.600    0.8026
   18.615    0.7705
   18.630    0.7919
   18.645    0.7919
   18.660    1.0166
   18.675    0.8240
   18.690    0.9203
   18.705    0.9631
   18.720    1.0808
   18.735    1.1450
   18.750    1.3269
   18.765    1.5730
   18.780    1.2734
   18.795    1.4018
   18.810    1.4339
   18.825    1.2520
   18.840    0.9738
   18.855    0.8133
   18.870    0.8133
   18.885    0.8133
   18.900    0.7063
   18.915    0.7170
   18.930    0.6742
   18.945    0.7598
   18.960    0.6742
   18.975    0.6849
   18.990    0.7170
   19.005    0.8240
   19.020    0.7919
   19.035    0.7063
   19.050    0.6528
   19.065    0.6742
   19.080    0.6956
   19.095    0.6742
   19.110    0.7598
   19.125    0.8989
   19.140    0.8133
   19.155    0.7812
   19.170    0.7919
   19.185    0.7384
   19.200    0.7491
   19.215    0.6742
   19.230    0.9417
   19.245    0.9310
   19.260    1.0059
   19.275    0.9096
   19.290    1.0915
   19.305    1.2092
   19.320    1.0594
   19.335    1.1343
   19.350    1.1557
   19.365    1.0701
   19.380    0.9952
   19.395    0.9631
   19.410    0.7598
   19.425    0.8240
   19.440    0.7491
   19.455    0.6742
   19.470    0.6100
   19.485    0.8133
   19.500    0.8240
   19.515    0.7170
   19.530    0.7705
   19.545    0.7812
   19.560    0.8026
   19.575    0.7812
   19.590    0.8454
   19.605    0.8240
   19.620    0.7598
   19.635    0.8133
   19.650    0.8347
   19.665    0.8775
   19.680    0.7812
   19.695    0.9310
   19.710    0.9310
   19.725    1.0487
   19.740    1.0808
   19.755    1.2734
   19.770    1.5195
   19.785    1.5516
   19.800    1.9904
   19.815    2.6324
   19.830    3.1675
   19.845    3.2638
   19.860    3.4350
   19.875    3.1996
   19.890    3.2424
   19.905    2.5896
   19.920    2.2472
   19.935    1.4339
   19.950    1.0487
   19.965    0.9417
   19.980    0.7170
   19.995    0.7491
   20.010    0.8454
   20.025    0.7491
   20.040    0.7705
   20.055    0.8454
   20.070    0.5671
   20.085    0.7491
   20.100    0.8347
   20.115    0.7598
   20.130    0.7491
   20.145    0.7063
   20.160    0.6314
   20.175    0.6528
   20.190    0.7384
   20.205    0.6849
   20.220    0.6421
   20.235    0.7491
   20.250    0.8347
   20.265    0.8454
   20.280    0.8989
   20.295    0.8347
   20.310    0.8775
   20.325    0.9524
   20.340    1.0166
   20.355    1.0701
   20.370    1.2520
   20.385    1.2092
   20.400    1.1450
   20.415    1.1985
   20.430    0.9631
   20.445    1.0380
   20.460    0.8668
   20.475    0.5457
   20.490    0.5671
   20.505    0.7277
   20.520    0.7384
   20.535    0.6528
   20.550    0.6849
   20.565    0.5778
   20.580    0.5886
   20.595    0.6635
   20.610    0.7812
   20.625    0.5993
   20.640    0.6635
   20.655    0.7063
   20.670    0.7170
   20.685    0.7170
   20.700    0.6849
   20.715    0.8347
   20.730    0.7705
   20.745    0.6528
   20.760    0.7063
   20.775    0.8026
   20.790    0.8775
   20.805    0.8347
   20.820    0.9096
   20.835    0.9417
   20.850    0.9203
   20.865    1.0487
   20.880    1.1450
   20.895    1.2092
   20.910    1.2092
   20.925    0.9417
   20.940    0.9203
   20.955    0.9417
   20.970    0.7277
   20.985    0.7598
   21.000    0.6849
   21.015    0.7812
   21.030    0.6742
   21.045    0.7170
   21.060    0.6421
   21.075    0.6849
   21.090    0.7812
   21.105    0.7491
   21.120    0.7491
   21.135    0.7491
   21.150    0.6528
   21.165    0.7170
   21.180    0.7812
   21.195    0.7812
   21.210    0.7705
   21.225    0.7384
   21.240    0.7277
   21.255    0.7812
   21.270    0.8026
   21.285    0.6956
   21.300    0.7170
   21.315    0.8240
   21.330    0.9203
   21.345    1.0808
   21.360    1.0273
   21.375    1.1343
   21.390    1.3483
   21.405    1.1878
   21.420    1.1878
   21.435    1.0487
   21.450    1.0059
   21.465    0.9524
   21.480    0.9524
   21.495    0.7919
   21.510    0.6314
   21.525    0.7277
   21.540    0.8026
   21.555    0.6956
   21.570    0.6635
   21.585    0.7491
   21.600    0.8026
   21.615    0.8133
   21.630    0.6635
   21.645    0.7063
   21.660    0.7919
   21.675    0.6635
   21.690    0.7705
   21.705    0.7384
   21.720    0.6635
   21.735    0.7491
   21.750    0.7598
   21.765    0.8347
   21.780    0.7277
   21.795    0.7812
   21.810    0.7705
   21.825    0.7598
   21.840    0.9203
   21.855    0.8882
   21.870    0.7598
   21.885    0.9096
   21.900    0.7812
   21.915    0.8026
   21.930    0.7277
   21.945    0.9417
   21.960    0.8775
   21.975    0.8561
   21.990    0.9203
   22.005    0.6849
   22.020    0.9738
   22.035    0.8133
   22.050    1.0273
   22.065    1.1129
   22.080    1.2092
   22.095    1.3804
   22.110    1.1450
   22.125    1.3269
   22.140    1.1450
   22.155    1.0594
   22.170    0.8561
   22.185    0.7919
   22.200    0.7812
   22.215    0.6742
   22.230    0.7170
   22.245    0.6314
   22.260    0.6100
   22.275    0.7384
   22.290    0.8240
   22.305    0.7170
   22.320    0.5886
   22.335    0.7491
   22.350    0.6956
   22.365    0.7705
   22.380    0.6528
   22.395    0.7491
   22.410    0.8133
   22.425    0.8454
   22.440    0.6207
   22.455    0.6742
   22.470    0.6849
   22.485    0.6314
   22.500    0.7705
   22.515    0.6742
   22.530    0.8133
   22.545    0.5350
   22.560    0.5564
   22.575    0.7170
   22.590    0.7598
   22.605    0.6421
   22.620    0.8347
   22.635    0.8026
   22.650    0.6314
   22.665    0.7919
   22.680    0.7170
   22.695    0.7384
   22.710    0.7384
   22.725    0.9310
   22.740    0.8026
   22.755    0.8454
   22.770    0.9845
   22.785    1.1771
   22.800    1.3376
   22.815    1.5088
   22.830    1.4339
   22.845    1.4125
   22.860    1.2627
   22.875    1.3376
   22.890    1.1343
   22.905    0.9310
   22.920    0.7384
   22.935    0.9203
   22.950    0.7170
   22.965    0.6849
   22.980    0.7705
   22.995    0.7812
   23.010    0.8347
   23.025    0.8240
   23.040    0.7812
   23.055    0.7919
   23.070    0.8347
   23.085    0.7170
   23.100    0.6421
   23.115    0.6421
   23.130    0.7598
   23.145    0.6314
   23.160    0.7812
   23.175    0.7491
   23.190    0.7598
   23.205    0.8240
   23.220    0.8882
   23.235    0.8775
   23.250    0.8561
   23.265    0.9096
   23.280    1.0166
   23.295    0.8240
   23.310    0.8882
   23.325    0.7598
   23.340    0.8026
   23.355    0.7919
   23.370    0.8454
   23.385    0.7705
   23.400    0.6956
   23.415    0.8989
   23.430    0.9417
   23.445    0.8454
   23.460    0.6742
   23.475    0.7919
   23.490    0.7919
   23.505    0.8240
   23.520    0.8347
   23.535    0.7277
   23.550    0.8882
   23.565    0.8026
   23.580    0.8561
   23.595    0.7919
   23.610    0.8775
   23.625    0.8775
   23.640    1.0808
   23.655    1.1129
   23.670    1.4125
   23.685    1.6693
   23.700    1.9797
   23.715    2.0332
   23.730    2.1081
   23.745    1.8941
   23.760    1.8406
   23.775    1.9048
   23.790    1.6907
   23.805    1.4339
   23.820    1.1129
   23.835    0.9845
   23.850    0.8347
   23.865    0.8454
   23.880    0.7919
   23.895    0.7384
   23.910    0.7598
   23.925    0.6742
   23.940    0.7170
   23.955    0.7705
   23.970    0.7705
   23.985    0.7170
   24.000    0.8026
   24.015    0.8133
   24.030    0.8668
   24.045    0.8133
   24.060    0.8026
   24.075    0.7705
   24.090    0.8882
   24.105    0.7812
   24.120    0.8347
   24.135    0.8133
   24.150    0.9417
   24.165    0.8454
   24.180    0.7491
   24.195    0.7812
   24.210    0.6314
   24.225    0.7812
   24.240    0.7919
   24.255    0.7919
   24.270    0.9417
   24.285    0.8561
   24.300    0.8240
   24.315    0.7919
   24.330    0.6421
   24.345    0.7277
   24.360    0.5671
   24.375    0.7277
   24.390    0.7919
   24.405    0.6742
   24.420    0.7919
   24.435    0.8561
   24.450    0.7491
   24.465    0.9203
   24.480    0.8133
   24.495    0.7812
   24.510    0.8668
   24.525    0.9203
   24.540    0.8026
   24.555    0.7705
   24.570    0.8347
   24.585    0.8026
   24.600    0.8240
   24.615    0.8133
   24.630    0.7170
   24.645    0.7277
   24.660    0.7063
   24.675    0.7705
   24.690    0.7491
   24.705    0.8454
   24.720    0.7277
   24.735    0.7919
   24.750    0.7170
   24.765    0.7705
   24.780    0.7063
   24.795    0.7491
   24.810    0.8347
   24.825    0.6956
   24.840    0.7277
   24.855    0.8454
   24.870    0.8989
   24.885    0.8240
   24.900    0.8347
   24.915    0.6956
   24.930    0.7812
   24.945    0.8133
   24.960    0.7063
   24.975    0.7812
   24.990    0.7277
   25.005    0.8561
   25.020    0.6314
   25.035    0.7277
   25.050    0.8026
   25.065    0.7705
   25.080    0.6956
   25.095    0.6207
   25.110    0.8240
   25.125    0.8347
   25.140    0.8882
   25.155    0.8882
   25.170    0.7919
   25.185    0.8347
   25.200    0.9096
   25.215    0.7170
   25.230    0.6849
   25.245    0.7705
   25.260    0.8454
   25.275    0.8133
   25.290    0.7491
   25.305    0.8240
   25.320    0.8454
   25.335    0.8240
   25.350    0.8668
   25.365    0.8882
   25.380    0.9524
   25.395    1.0487
   25.410    0.9417
   25.425    1.1450
   25.440    1.1878
   25.455    1.2627
   25.470    1.1450
   25.485    1.2841
   25.500    1.0915
   25.515    1.1022
   25.530    1.0166
   25.545    0.9417
   25.560    0.7812
   25.575    0.8561
   25.590    0.8668
   25.605    0.7170
   25.620    0.6528
   25.635    0.8454
   25.650    0.9096
   25.665    0.8561
   25.680    0.6849
   25.695    0.8668
   25.710    0.8026
   25.725    0.7491
   25.740    0.7919
   25.755    0.7277
   25.770    0.8026
   25.785    0.7705
   25.800    0.8989
   25.815    0.9096
   25.830    1.1236
   25.845    1.1129
   25.860    1.1343
   25.875    1.0380
   25.890    1.2306
   25.905    1.1236
   25.920    1.1129
   25.935    1.0915
   25.950    0.9952
   25.965    0.8775
   25.980    0.8989
   25.995    0.8026
   26.010    0.7919
   26.025    0.8561
   26.040    0.8561
   26.055    0.8454
   26.070    0.7598
   26.085    0.7812
   26.100    0.7598
   26.115    0.8668
   26.130    0.9845
   26.145    1.0059
   26.160    1.1236
   26.175    1.1236
   26.190    1.4232
   26.205    1.5516
   26.220    1.6693
   26.235    2.1188
   26.250    2.3114
   26.265    2.5575
   26.280    2.5040
   26.295    2.6645
   26.310    2.5468
   26.325    2.5040
   26.340    2.0974
   26.355    2.0332
   26.370    1.5730
   26.385    1.2413
   26.400    1.1236
   26.415    0.8775
   26.430    0.8668
   26.445    0.8133
   26.460    0.8454
   26.475    1.0487
   26.490    0.8989
   26.505    0.9203
   26.520    0.9952
   26.535    0.9310
   26.550    1.0808
   26.565    0.9738
   26.580    1.0487
   26.595    1.2413
   26.610    1.6158
   26.625    1.7871
   26.640    1.8085
   26.655    2.0546
   26.670    2.2686
   26.685    2.3863
   26.700    2.3328
   26.715    2.3649
   26.730    1.8620
   26.745    2.0011
   26.760    1.6693
   26.775    1.2948
   26.790    0.9310
   26.805    0.9845
   26.820    0.9310
   26.835    0.7812
   26.850    0.7919
   26.865    0.9524
   26.880    1.0166
   26.895    1.0380
   26.910    0.9952
   26.925    0.9417
   26.940    1.0273
   26.955    0.9524
   26.970    1.0915
   26.985    1.2092
   27.000    1.0594
   27.015    1.0594
   27.030    1.1022
   27.045    1.2199
   27.060    1.2841
   27.075    1.2520
   27.090    1.0808
   27.105    1.1022
   27.120    1.1771
   27.135    1.0273
   27.150    1.0166
   27.165    1.0808
   27.180    0.9096
   27.195    0.8668
   27.210    0.8454
   27.225    0.7384
   27.240    0.5886
   27.255    0.6742
   27.270    0.6528
   27.285    0.8454
   27.300    0.8026
   27.315    0.7919
   27.330    0.6742
   27.345    0.6956
   27.360    0.7063
   27.375    0.9203
   27.390    0.8240
   27.405    0.8989
   27.420    0.9524
   27.435    0.9738
   27.450    1.0808
   27.465    0.9417
   27.480    1.2092
   27.495    0.8561
   27.510    0.8454
   27.525    0.9096
   27.540    0.8882
   27.555    0.8133
   27.570    0.8133
   27.585    0.8668
   27.600    0.8347
   27.615    0.8668
   27.630    0.8561
   27.645    0.8454
   27.660    0.6528
   27.675    0.6635
   27.690    0.7491
   27.705    0.8882
   27.720    0.7170
   27.735    0.8989
   27.750    0.7384
   27.765    0.7170
   27.780    0.9310
   27.795    0.8026
   27.810    1.1129
   27.825    1.1129
   27.840    1.3376
   27.855    1.2199
   27.870    1.1450
   27.885    1.1878
   27.900    1.1129
   27.915    1.0915
   27.930    1.1022
   27.945    0.8454
   27.960    0.8668
   27.975    0.8882
   27.990    0.6635
   28.005    0.5457
   28.020    0.5993
   28.035    0.6528
   28.050    0.7063
   28.065    0.7491
   28.080    0.7491
   28.095    0.7277
   28.110    0.6635
   28.125    0.7705
   28.140    0.8347
   28.155    0.8347
   28.170    0.7919
   28.185    0.6849
   28.200    0.7919
   28.215    0.9417
   28.230    0.8240
   28.245    0.7063
   28.260    0.8240
   28.275    0.7919
   28.290    0.8347
   28.305    0.7598
   28.320    0.9096
   28.335    0.8882
   28.350    0.8026
   28.365    0.7063
   28.380    0.8347
   28.395    0.8561
   28.410    0.7598
   28.425    0.7170
   28.440    0.7384
   28.455    0.8026
   28.470    0.7598
   28.485    0.8240
   28.500    0.7277
   28.515    0.5671
   28.530    0.5886
   28.545    0.6742
   28.560    0.7705
   28.575    0.8561
   28.590    0.9096
   28.605    0.8882
   28.620    0.8133
   28.635    0.7277
   28.650    0.8668
   28.665    0.8775
   28.680    0.8133
   28.695    0.9203
   28.710    0.7277
   28.725    0.7705
   28.740    0.8133
   28.755    0.6742
   28.770    0.7170
   28.785    0.8347
   28.800    0.6956
   28.815    0.6100
   28.830    0.6421
   28.845    0.7598
   28.860    0.7384
   28.875    0.6956
   28.890    0.7598
   28.905    0.7170
   28.920    0.6421
   28.935    0.7812
   28.950    0.8240
   28.965    0.8026
   28.980    0.8882
   28.995    0.8026
   29.010    0.8347
   29.025    0.8133
   29.040    0.8133
   29.055    0.7919
   29.070    0.7812
   29.085    0.7491
   29.100    0.7705
   29.115    0.7598
   29.130    0.7277
   29.145    0.7598
   29.160    0.6314
   29.175    0.7384
   29.190    0.8026
   29.205    0.7277
   29.220    0.8026
   29.235    0.6956
   29.250    0.7170
   29.265    0.7063
   29.280    0.8347
   29.295    0.8240
   29.310    0.8775
   29.325    0.8133
   29.340    0.7919
   29.355    0.8347
   29.370    1.0273
   29.385    0.8882
   29.400    0.7598
   29.415    0.8668
   29.430    0.8240
   29.445    0.6528
   29.460    0.6421
   29.475    0.6421
   29.490    0.7170
   29.505    0.6742
   29.520    0.7598
   29.535    0.7063
   29.550    0.7598
   29.565    0.7384
   29.580    0.6635
   29.595    0.5993
   29.610    0.7277
   29.625    0.7170
   29.640    0.6956
   29.655    0.7919
   29.670    0.8668
   29.685    0.8454
   29.700    0.9417
   29.715    0.9203
   29.730    0.9096
   29.745    0.9417
   29.760    1.0487
   29.775    0.8668
   29.790    0.7277
   29.805    0.7063
   29.820    0.6742
   29.835    0.6742
   29.850    0.6956
   29.865    0.7170
   29.880    0.7170
   29.895    0.7063
   29.910    0.6635
   29.925    0.8026
   29.940    0.8454
   29.955    0.6849
   29.970    0.8775
   29.985    1.1129
   30.000    1.1878
   30.015    1.1878
   30.030    1.2413
   30.045    1.5623
   30.060    1.9690
   30.075    1.7764
   30.090    1.7014
   30.105    1.7549
   30.120    1.7121
   30.135    1.9262
   30.150    1.6693
   30.165    1.4446
   30.180    1.1129
   30.195    1.1022
   30.210    0.9952
   30.225    0.8882
   30.240    0.8240
   30.255    0.6742
   30.270    0.7705
   30.285    0.7491
   30.300    0.7491
   30.315    0.6849
   30.330    0.6314
   30.345    0.6528
   30.360    0.6207
   30.375    0.6956
   30.390    0.6956
   30.405    0.6956
   30.420    0.7170
   30.435    0.7384
   30.450    0.6100
   30.465    0.7063
   30.480    0.6956
   30.495    0.7170
   30.510    0.6314
   30.525    0.7705
   30.540    0.6207
   30.555    0.7277
   30.570    0.6635
   30.585    0.6207
   30.600    0.5243
   30.615    0.6207
   30.630    0.5778
   30.645    0.6528
   30.660    0.6956
   30.675    0.5671
   30.690    0.6100
   30.705    0.7170
   30.720    0.8347
   30.735    0.7598
   30.750    0.9203
   30.765    0.8026
   30.780    0.9203
   30.795    1.0273
   30.810    0.9203
   30.825    0.9845
   30.840    0.8775
   30.855    0.8561
   30.870    0.7063
   30.885    0.7812
   30.900    0.6528
   30.915    0.6421
   30.930    0.5778
   30.945    0.7170
   30.960    0.6528
   30.975    0.5457
   30.990    0.6742
   31.005    0.7491
   31.020    0.6100
   31.035    0.5671
   31.050    0.6207
   31.065    0.6849
   31.080    0.5993
   31.095    0.5778
   31.110    0.6314
   31.125    0.6100
   31.140    0.6314
   31.155    0.6314
   31.170    0.6528
   31.185    0.5778
   31.200    0.6742
   31.215    0.5564
   31.230    0.5993
   31.245    0.6207
   31.260    0.6314
   31.275    0.5671
   31.290    0.6207
   31.305    0.5886
   31.320    0.7598
   31.335    0.8133
   31.350    0.6100
   31.365    0.7063
   31.380    0.6207
   31.395    0.7705
   31.410    0.7812
   31.425    0.9203
   31.440    1.0059
   31.455    1.1022
   31.470    1.0273
   31.485    0.9952
   31.500    1.0594
   31.515    0.9952
   31.530    1.0059
   31.545    0.9096
   31.560    1.1022
   31.575    0.9096
   31.590    0.8454
   31.605    0.8240
   31.620    0.6421
   31.635    0.7277
   31.650    0.7063
   31.665    0.5778
   31.680    0.6207
   31.695    0.7384
   31.710    0.6528
   31.725    0.6635
   31.740    0.7812
   31.755    0.5564
   31.770    0.5243
   31.785    0.6207
   31.800    0.6742
   31.815    0.5350
   31.830    0.6100
   31.845    0.7598
   31.860    0.6742
   31.875    0.6207
   31.890    0.5136
   31.905    0.5564
   31.920    0.6956
   31.935    0.7277
   31.950    0.6742
   31.965    0.5886
   31.980    0.5993
   31.995    0.6421
   32.010    0.6314
   32.025    0.6421
   32.040    0.5993
   32.055    0.5886
   32.070    0.7812
   32.085    0.6742
   32.100    0.5886
   32.115    0.7170
   32.130    0.7812
   32.145    0.8561
   32.160    0.7384
   32.175    0.8133
   32.190    0.7384
   32.205    0.8026
   32.220    0.8561
   32.235    0.8668
   32.250    0.6849
   32.265    0.8347
   32.280    0.6849
   32.295    0.6100
   32.310    0.5671
   32.325    0.6314
   32.340    0.6742
   32.355    0.5993
   32.370    0.5886
   32.385    0.5564
   32.400    0.6207
   32.415    0.5671
   32.430    0.6421
   32.445    0.5564
   32.460    0.6742
   32.475    0.6528
   32.490    0.6849
   32.505    0.8454
   32.520    0.8668
   32.535    0.7598
   32.550    0.9096
   32.565    1.0273
   32.580    1.0273
   32.595    0.9203
   32.610    0.8882
   32.625    1.0380
   32.640    0.9738
   32.655    0.8240
   32.670    0.9952
   32.685    0.8133
   32.700    0.9203
   32.715    0.9096
   32.730    0.7384
   32.745    0.6635
   32.760    0.6207
   32.775    0.7705
   32.790    0.9845
   32.805    1.1878
   32.820    1.1450
   32.835    1.0915
   32.850    0.8561
   32.865    1.0487
   32.880    1.0594
   32.895    1.2306
   32.910    1.0594
   32.925    1.0059
   32.940    0.9417
   32.955    0.8454
   32.970    0.6207
   32.985    0.5886
   33.000    0.5671
   33.015    0.5350
   33.030    0.6100
   33.045    0.7170
   33.060    0.6314
   33.075    0.5886
   33.090    0.6849
   33.105    0.8561
   33.120    0.9524
   33.135    0.8882
   33.150    0.9845
   33.165    1.0059
   33.180    1.0059
   33.195    0.9952
   33.210    0.8989
   33.225    0.8454
   33.240    0.8347
   33.255    0.8882
   33.270    0.8882
   33.285    0.8775
   33.300    0.5993
   33.315    0.6100
   33.330    0.5564
   33.345    0.5671
   33.360    0.4494
   33.375    0.5778
   33.390    0.5886
   33.405    0.6528
   33.420    0.6635
   33.435    0.7170
   33.450    0.5886
   33.465    0.6956
   33.480    0.6314
   33.495    0.6956
   33.510    0.5993
   33.525    0.5350
   33.540    0.6421
   33.555    0.6100
   33.570    0.6207
   33.585    0.5886
   33.600    0.6100
   33.615    0.6421
   33.630    0.5886
   33.645    0.6528
   33.660    0.6742
   33.675    0.7063
   33.690    0.6742
   33.705    0.8454
   33.720    0.9631
   33.735    1.0059
   33.750    1.0059
   33.765    0.9310
   33.780    0.8347
   33.795    1.0594
   33.810    0.8989
   33.825    0.7919
   33.840    0.7812
   33.855    0.6742
   33.870    0.6635
   33.885    0.6207
   33.900    0.5457
   33.915    0.6635
   33.930    0.7063
   33.945    0.6207
   33.960    0.5243
   33.975    0.5671
   33.990    0.5886
   34.005    0.5671
   34.020    0.5457
   34.035    0.6635
   34.050    0.7063
   34.065    0.6314
   34.080    0.6956
   34.095    0.7384
   34.110    0.6956
   34.125    0.7491
   34.140    0.8347
   34.155    0.8668
   34.170    0.8347
   34.185    0.8668
   34.200    0.8775
   34.215    0.8882
   34.230    1.0059
   34.245    0.6742
   34.260    0.6849
   34.275    0.7491
   34.290    0.5457
   34.305    0.5671
   34.320    0.6421
   34.335    0.5136
   34.350    0.5136
   34.365    0.5350
   34.380    0.5564
   34.395    0.6849
   34.410    0.4922
   34.425    0.4601
   34.440    0.4922
   34.455    0.5671
   34.470    0.5671
   34.485    0.5350
   34.500    0.5671
   34.515    0.4815
   34.530    0.5671
   34.545    0.4922
   34.560    0.5136
   34.575    0.4708
   34.590    0.4815
   34.605    0.5350
   34.620    0.5993
   34.635    0.5243
   34.650    0.6207
   34.665    0.5564
   34.680    0.6100
   34.695    0.4922
   34.710    0.4922
   34.725    0.5564
   34.740    0.5886
   34.755    0.5778
   34.770    0.7063
   34.785    0.5564
   34.800    0.6100
   34.815    0.7063
   34.830    0.6635
   34.845    0.6421
   34.860    0.7277
   34.875    0.7277
   34.890    0.5993
   34.905    0.6421
   34.920    0.4387
   34.935    0.5671
   34.950    0.5243
   34.965    0.5564
   34.980    0.5457
   34.995    0.5457
   35.010    0.6100
   35.025    0.3745
   35.040    0.5457
   35.055    0.6100
   35.070    0.6849
   35.085    0.6421
   35.100    0.5778
   35.115    0.6314
   35.130    0.5671
   35.145    0.5886
   35.160    0.6100
   35.175    0.6207
   35.190    0.5671
   35.205    0.5993
   35.220    0.4494
   35.235    0.4494
   35.250    0.4708
   35.265    0.5243
   35.280    0.5564
   35.295    0.6207
   35.310    0.4815
   35.325    0.5671
   35.340    0.6314
   35.355    0.5778
   35.370    0.5564
   35.385    0.6956
   35.400    0.5564
   35.415    0.5243
   35.430    0.4922
   35.445    0.4173
   35.460    0.6956
   35.475    0.6849
   35.490    0.5993
   35.505    0.7063
   35.520    0.5136
   35.535    0.6100
   35.550    0.5671
   35.565    0.5029
   35.580    0.5993
   35.595    0.5350
   35.610    0.4815
   35.625    0.5886
   35.640    0.4815
   35.655    0.5350
   35.670    0.5564
   35.685    0.6528
   35.700    0.7491
   35.715    0.6635
   35.730    0.5993
   35.745    0.7491
   35.760    0.6849
   35.775    0.6849
   35.790    0.5350
   35.805    0.5564
   35.820    0.6100
   35.835    0.5671
   35.850    0.5671
   35.865    0.5136
   35.880    0.3638
   35.895    0.5029
   35.910    0.4494
   35.925    0.5243
   35.940    0.4494
   35.955    0.5993
   35.970    0.5457
   35.985    0.5993
   36.000    0.6635
   36.015    0.5993
   36.030    0.5457
   36.045    0.4601
   36.060    0.4922
   36.075    0.4601
   36.090    0.5136
   36.105    0.5778
   36.120    0.4494
   36.135    0.4066
   36.150    0.4387
   36.165    0.4280
   36.180    0.3852
   36.195    0.4708
   36.210    0.4922
   36.225    0.5243
   36.240    0.5564
   36.255    0.5457
   36.270    0.5136
   36.285    0.4387
   36.300    0.4387
   36.315    0.6100
   36.330    0.4387
   36.345    0.4601
   36.360    0.4494
   36.375    0.5029
   36.390    0.4708
   36.405    0.4708
   36.420    0.3745
   36.435    0.4815
   36.450    0.4280
   36.465    0.4280
   36.480    0.5886
   36.495    0.5029
   36.510    0.5029
   36.525    0.5564
   36.540    0.5671
   36.555    0.5564
   36.570    0.6849
   36.585    0.5564
   36.600    0.6314
   36.615    0.6314
   36.630    0.7491
   36.645    0.6528
   36.660    0.6314
   36.675    0.6635
   36.690    0.6956
   36.705    0.6100
   36.720    0.6207
   36.735    0.6635
   36.750    0.6421
   36.765    0.5886
   36.780    0.5243
   36.795    0.5136
   36.810    0.5136
   36.825    0.4922
   36.840    0.5778
   36.855    0.5993
   36.870    0.4922
   36.885    0.5457
   36.900    0.5564
   36.915    0.5993
   36.930    0.5350
   36.945    0.5886
   36.960    0.5564
   36.975    0.6421
   36.990    0.6635
   37.005    0.8454
   37.020    0.6314
   37.035    0.7705
   37.050    0.6635
   37.065    0.5886
   37.080    0.6742
   37.095    0.6849
   37.110    0.7384
   37.125    0.8026
   37.140    0.8347
   37.155    0.6956
   37.170    0.6528
   37.185    0.5886
   37.200    0.6742
   37.215    0.6635
   37.230    0.7384
   37.245    0.7491
   37.260    0.6635
   37.275    0.6207
   37.290    0.6956
   37.305    0.6849
   37.320    0.7812
   37.335    0.6207
   37.350    0.7705
   37.365    0.8668
   37.380    0.9203
   37.395    1.0808
   37.410    1.2306
   37.425    1.1236
   37.440    1.1664
   37.455    1.1771
   37.470    1.1022
   37.485    1.2627
   37.500    1.2627
   37.515    1.1129
   37.530    0.9524
   37.545    0.8775
   37.560    0.6956
   37.575    0.7277
   37.590    0.6742
   37.605    0.6635
   37.620    0.4494
   37.635    0.6207
   37.650    0.5029
   37.665    0.4815
   37.680    0.4494
   37.695    0.4708
   37.710    0.4601
   37.725    0.4494
   37.740    0.4173
   37.755    0.4601
   37.770    0.5029
   37.785    0.5029
   37.800    0.5029
   37.815    0.5778
   37.830    0.5350
   37.845    0.5671
   37.860    0.4387
   37.875    0.4387
   37.890    0.4922
   37.905    0.4601
   37.920    0.4066
   37.935    0.5136
   37.950    0.3638
   37.965    0.4708
   37.980    0.4922
   37.995    0.4601
   38.010    0.5457
   38.025    0.5671
   38.040    0.5457
   38.055    0.5350
   38.070    0.4387
   38.085    0.4815
   38.100    0.4601
   38.115    0.4708
   38.130    0.3959
   38.145    0.5029
   38.160    0.3959
   38.175    0.4708
   38.190    0.4815
   38.205    0.4494
   38.220    0.4173
   38.235    0.3638
   38.250    0.4280
   38.265    0.4280
   38.280    0.4601
   38.295    0.5136
   38.310    0.5136
   38.325    0.5243
   38.340    0.5136
   38.355    0.6207
   38.370    0.6742
   38.385    0.5993
   38.400    0.5564
   38.415    0.6421
   38.430    0.6956
   38.445    0.5564
   38.460    0.5671
   38.475    0.5457
   38.490    0.4922
   38.505    0.5350
   38.520    0.5457
   38.535    0.4280
   38.550    0.3959
   38.565    0.4601
   38.580    0.4280
   38.595    0.3959
   38.610    0.3959
   38.625    0.4922
   38.640    0.4494
   38.655    0.4173
   38.670    0.4066
   38.685    0.4066
   38.700    0.3745
   38.715    0.3959
   38.730    0.4387
   38.745    0.4922
   38.760    0.4922
   38.775    0.5029
   38.790    0.5029
   38.805    0.4601
   38.820    0.3317
   38.835    0.3959
   38.850    0.3959
   38.865    0.4494
   38.880    0.4387
   38.895    0.4922
   38.910    0.4280
   38.925    0.4601
   38.940    0.4387
   38.955    0.4066
   38.970    0.3317
   38.985    0.4387
   39.000    0.3531
   39.015    0.3424
   39.030    0.4494
   39.045    0.3210
   39.060    0.4601
   39.075    0.4708
   39.090    0.4494
   39.105    0.4494
   39.120    0.3638
   39.135    0.4601
   39.150    0.5564
   39.165    0.5136
   39.180    0.4601
   39.195    0.4387
   39.210    0.4387
   39.225    0.5778
   39.240    0.4815
   39.255    0.4494
   39.270    0.4173
   39.285    0.5136
   39.300    0.4922
   39.315    0.4815
   39.330    0.4387
   39.345    0.5778
   39.360    0.5029
   39.375    0.6314
   39.390    0.5136
   39.405    0.5136
   39.420    0.6528
   39.435    0.6528
   39.450    0.6421
   39.465    0.6956
   39.480    0.7919
   39.495    0.9310
   39.510    0.7812
   39.525    0.7598
   39.540    0.8347
   39.555    0.6956
   39.570    0.7919
   39.585    0.7705
   39.600    0.7598
   39.615    0.6528
   39.630    0.6849
   39.645    0.7598
   39.660    0.6100
   39.675    0.6849
   39.690    0.5993
   39.705    0.5350
   39.720    0.4494
   39.735    0.5778
   39.750    0.5350
   39.765    0.5778
   39.780    0.5243
   39.795    0.5564
   39.810    0.3959
   39.825    0.3638
   39.840    0.4922
   39.855    0.4387
   39.870    0.5778
   39.885    0.4387
   39.900    0.4387
   39.915    0.3959
   39.930    0.4494
   39.945    0.3210
   39.960    0.4280
   39.975    0.4387
   39.990    0.3852
