    1.500   10.1422
    1.515   10.4476
    1.530    9.8262
    1.545    9.7736
    1.560    9.7104
    1.575    9.4576
    1.590    9.3734
    1.605    9.0258
    1.620    9.1732
    1.635    8.7204
    1.650    8.9521
    1.665    8.8678
    1.680    8.2886
    1.695    8.0990
    1.710    8.1833
    1.725    7.7304
    1.740    7.8357
    1.755    7.8146
    1.770    8.1201
    1.785    7.6461
    1.800    7.4671
    1.815    7.3407
    1.830    7.1933
    1.845    7.3091
    1.860    7.1933
    1.875    7.0142
    1.890    7.0353
    1.905    6.9510
    1.920    6.8878
    1.935    6.8352
    1.950    6.6983
    1.965    6.7825
    1.980    6.4771
    1.995    6.2665
    2.010    6.2349
    2.025    6.2981
    2.040    6.3823
    2.055    6.1927
    2.070    6.2981
    2.085    5.9821
    2.100    6.3928
    2.115    6.0348
    2.130    6.1085
    2.145    5.9084
    2.160    5.7925
    2.175    6.3402
    2.190    5.8452
    2.205    5.9400
    2.220    5.7083
    2.235    5.7925
    2.250    5.9505
    2.265    6.0874
    2.280    5.9294
    2.295    5.5082
    2.310    5.6872
    2.325    5.7293
    2.340    5.8031
    2.355    5.6661
    2.370    5.3502
    2.385    5.4766
    2.400    5.5398
    2.415    5.3712
    2.430    5.4871
    2.445    5.5714
    2.460    5.2765
    2.475    5.1606
    2.490    5.6135
    2.505    5.4344
    2.520    5.5924
    2.535    5.3081
    2.550    5.4660
    2.565    5.7083
    2.580    5.5398
    2.595    5.3818
    2.610    5.2238
    2.625    5.4871
    2.640    5.8031
    2.655    5.7820
    2.670    5.2343
    2.685    5.2343
    2.700    5.2238
    2.715    4.9605
    2.730    5.4660
    2.745    5.4976
    2.760    5.2343
    2.775    5.6872
    2.790    5.5082
    2.805    5.7293
    2.820    5.4134
    2.835    5.4976
    2.850    5.5608
    2.865    5.5398
    2.880    5.3186
    2.895    5.1395
    2.910    5.2238
    2.925    5.5292
    2.940    5.9189
    2.955    5.6451
    2.970    5.9821
    2.985    5.6977
    3.000    5.9294
    3.015    5.8662
    3.030    5.8136
    3.045    5.9084
    3.060    5.9189
    3.075    6.1190
    3.090    6.2981
    3.105    6.2454
    3.120    6.3086
    3.135    5.9084
    3.150    6.6351
    3.165    6.5824
    3.180    6.5403
    3.195    6.3823
    3.210    6.5403
    3.225    6.4350
    3.240    6.7088
    3.255    6.7404
    3.270    7.2775
    3.285    6.8352
    3.300    6.8246
    3.315    7.1722
    3.330    7.2038
    3.345    7.2249
    3.360    7.0458
    3.375    7.4882
    3.390    7.8989
    3.405    7.9516
    3.420    8.0990
    3.435    8.0885
    3.450    8.4150
    3.465    8.6467
    3.480    9.1732
    3.495    8.5519
    3.510    8.3623
    3.525    8.6256
    3.540    8.6993
    3.555    8.9942
    3.570    8.6783
    3.585    8.6151
    3.600    8.7204
    3.615    8.8152
    3.630    8.9837
    3.645    8.9415
    3.660    9.0047
    3.675    8.7520
    3.690    8.6572
    3.705    9.1417
    3.720    9.0890
    3.735    8.5519
    3.750    8.5940
    3.765    8.2570
    3.780    8.2359
    3.795    8.7309
    3.810    8.2991
    3.825    8.1201
    3.840    7.9726
    3.855    7.8884
    3.870    7.9726
    3.885    7.7620
    3.900    7.4144
    3.915    7.5408
    3.930    7.3196
    3.945    7.0774
    3.960    7.0458
    3.975    7.4039
    3.990    6.7193
    4.005    6.8036
    4.020    6.7509
    4.035    6.6983
    4.050    6.4771
    4.065    6.7193
    4.080    6.6772
    4.095    6.6877
    4.110    6.2559
    4.125    6.2770
    4.140    6.0664
    4.155    5.7083
    4.170    5.9926
    4.185    6.0558
    4.200    5.9926
    4.215    5.6767
    4.230    5.5187
    4.245    5.5608
    4.260    5.4976
    4.275    5.7609
    4.290    5.8768
    4.305    5.4660
    4.320    5.4134
    4.335    5.0658
    4.350    5.4239
    4.365    5.3397
    4.380    5.2133
    4.395    5.0448
    4.410    5.2659
    4.425    5.1711
    4.440    5.3186
    4.455    4.9816
    4.470    5.5819
    4.485    5.4344
    4.500    5.3081
    4.515    5.4450
    4.530    5.5819
    4.545    5.1817
    4.560    5.1817
    4.575    5.0448
    4.590    5.0237
    4.605    5.1185
    4.620    4.9816
    4.635    5.1395
    4.650    4.8763
    4.665    5.2554
    4.680    4.9605
    4.695    5.3397
    4.710    5.0869
    4.725    5.0869
    4.740    5.0237
    4.755    4.9184
    4.770    4.8131
    4.785    4.7920
    4.800    5.1080
    4.815    5.1395
    4.830    5.0764
    4.845    4.9184
    4.860    4.8131
    4.875    4.7499
    4.890    4.8657
    4.905    4.8236
    4.920    5.0658
    4.935    5.1290
    4.950    4.9816
    4.965    4.8025
    4.980    4.5392
    4.995    4.9710
    5.010    4.9394
    5.025    4.7920
    5.040    4.5182
    5.055    4.4444
    5.070    4.6235
    5.085    4.6867
    5.100    4.5498
    5.115    4.8025
    5.130    4.6235
    5.145    4.4655
    5.160    4.5814
    5.175    4.4550
    5.190    4.9289
    5.205    4.8447
    5.220    4.7604
    5.235    4.8552
    5.250    4.7499
    5.265    4.4866
    5.280    4.5814
    5.295    4.5919
    5.310    4.7288
    5.325    4.7920
    5.340    4.8025
    5.355    4.8657
    5.370    4.5287
    5.385    4.5603
    5.400    4.6024
    5.415    4.2865
    5.430    4.1285
    5.445    4.5392
    5.460    4.5182
    5.475    4.4971
    5.490    4.5603
    5.505    4.6972
    5.520    4.1074
    5.535    4.2338
    5.550    4.4444
    5.565    4.6972
    5.580    4.5287
    5.595    4.3181
    5.610    4.6656
    5.625    4.6761
    5.640    4.8025
    5.655    4.4444
    5.670    4.2127
    5.685    4.2970
    5.700    4.3707
    5.715    4.3813
    5.730    4.3391
    5.745    4.4339
    5.760    4.4023
    5.775    4.6656
    5.790    4.2443
    5.805    4.2759
    5.820    4.4023
    5.835    4.3918
    5.850    4.6340
    5.865    4.7183
    5.880    4.2970
    5.895    4.1601
    5.910    4.4655
    5.925    4.2338
    5.940    4.4128
    5.955    3.9705
    5.970    4.0442
    5.985    4.3075
    6.000    4.1706
    6.015    4.3813
    6.030    4.1074
    6.045    4.1180
    6.060    4.3813
    6.075    4.3286
    6.090    4.3391
    6.105    4.3918
    6.120    4.3075
    6.135    4.3602
    6.150    4.4655
    6.165    4.5498
    6.180    4.4444
    6.195    4.1180
    6.210    4.3286
    6.225    3.9600
    6.240    4.2970
    6.255    4.0442
    6.270    4.2443
    6.285    4.3707
    6.300    4.4444
    6.315    4.2338
    6.330    4.1811
    6.345    4.4550
    6.360    4.1601
    6.375    4.1706
    6.390    4.4128
    6.405    4.2233
    6.420    4.3602
    6.435    4.0758
    6.450    3.9705
    6.465    4.1917
    6.480    3.9389
    6.495    4.4339
    6.510    4.1180
    6.525    4.3918
    6.540    4.2654
    6.555    4.1811
    6.570    4.1180
    6.585    3.8757
    6.600    4.1074
    6.615    4.1285
    6.630    3.9494
    6.645    3.9284
    6.660    3.7704
    6.675    3.8863
    6.690    4.0442
    6.705    3.9179
    6.720    4.3075
    6.735    3.9494
    6.750    4.0758
    6.765    4.0864
    6.780    4.2549
    6.795    4.2549
    6.810    4.4655
    6.825    4.3813
    6.840    3.9073
    6.855    4.0337
    6.870    4.1811
    6.885    4.1074
    6.900    4.2759
    6.915    3.9073
    6.930    4.3602
    6.945    4.2233
    6.960    4.6656
    6.975    4.4234
    6.990    4.2022
    7.005    4.2970
    7.020    4.2022
    7.035    4.3391
    7.050    4.1917
    7.065    4.2549
    7.080    4.5708
    7.095    4.3497
    7.110    4.6445
    7.125    4.3497
    7.140    4.3918
    7.155    4.2970
    7.170    4.4128
    7.185    4.5287
    7.200    4.6445
    7.215    4.3813
    7.230    4.2022
    7.245    4.2022
    7.260    4.4760
    7.275    4.7499
    7.290    4.5392
    7.305    4.5919
    7.320    4.4234
    7.335    4.6130
    7.350    4.6235
    7.365    4.7288
    7.380    4.3391
    7.395    4.4234
    7.410    4.3075
    7.425    4.1601
    7.440    4.1285
    7.455    4.1496
    7.470    4.4866
    7.485    4.3286
    7.500    4.2233
    7.515    4.0969
    7.530    3.8968
    7.545    4.2970
    7.560    4.0232
    7.575    4.4339
    7.590    4.1917
    7.605    3.9494
    7.620    4.0969
    7.635    3.8125
    7.650    4.0864
    7.665    4.0021
    7.680    4.0232
    7.695    3.9705
    7.710    3.8652
    7.725    4.2022
    7.740    4.1390
    7.755    3.8652
    7.770    4.1706
    7.785    3.9284
    7.800    3.7809
    7.815    4.0548
    7.830    3.7493
    7.845    3.7493
    7.860    3.9389
    7.875    3.8863
    7.890    3.7177
    7.905    3.8020
    7.920    3.7809
    7.935    3.9705
    7.950    3.5703
    7.965    3.7177
    7.980    3.9810
    7.995    4.0021
    8.010    3.6230
    8.025    3.7704
    8.040    3.8231
    8.055    3.7283
    8.070    3.6862
    8.085    3.6967
    8.100    3.6862
    8.115    4.0969
    8.130    3.9389
    8.145    3.6440
    8.160    3.7809
    8.175    3.6124
    8.190    3.7809
    8.205    4.0548
    8.220    3.7915
    8.235    3.6546
    8.250    3.4860
    8.265    3.4123
    8.280    3.6756
    8.295    3.9073
    8.310    3.7388
    8.325    3.5176
    8.340    3.6651
    8.355    3.3175
    8.370    3.3070
    8.385    3.7704
    8.400    3.5492
    8.415    3.4439
    8.430    3.5387
    8.445    3.7599
    8.460    3.7177
    8.475    3.5282
    8.490    3.6230
    8.505    3.8336
    8.520    3.6230
    8.535    3.3807
    8.550    3.5808
    8.565    3.7915
    8.580    3.9810
    8.595    3.5492
    8.610    3.6546
    8.625    3.5703
    8.640    3.6862
    8.655    3.5703
    8.670    3.7493
    8.685    3.2754
    8.700    3.5282
    8.715    3.6019
    8.730    3.5808
    8.745    3.4966
    8.760    3.6019
    8.775    3.7177
    8.790    3.4544
    8.805    3.2333
    8.820    3.4123
    8.835    3.4650
    8.850    3.2649
    8.865    3.6967
    8.880    3.8863
    8.895    3.6335
    8.910    3.3281
    8.925    3.4860
    8.940    3.5282
    8.955    3.4966
    8.970    3.5176
    8.985    3.5387
    9.000    3.7809
    9.015    3.7493
    9.030    3.6019
    9.045    3.5492
    9.060    3.5598
    9.075    3.3491
    9.090    3.6440
    9.105    3.5808
    9.120    3.4966
    9.135    3.6440
    9.150    3.7388
    9.165    3.6019
    9.180    3.7388
    9.195    3.6019
    9.210    3.6124
    9.225    3.6756
    9.240    3.4018
    9.255    3.2965
    9.270    3.2543
    9.285    3.4650
    9.300    3.4229
    9.315    3.7388
    9.330    3.5282
    9.345    3.5914
    9.360    3.6335
    9.375    3.5387
    9.390    3.3281
    9.405    3.3807
    9.420    3.6651
    9.435    3.3491
    9.450    3.2333
    9.465    3.4544
    9.480    3.3281
    9.495    3.4966
    9.510    3.2438
    9.525    3.4229
    9.540    3.4123
    9.555    3.6019
    9.570    3.4966
    9.585    3.4334
    9.600    3.2649
    9.615    3.3913
    9.630    3.4966
    9.645    3.4123
    9.660    3.4755
    9.675    3.4860
    9.690    3.4018
    9.705    3.6651
    9.720    3.4439
    9.735    3.2859
    9.750    3.2227
    9.765    3.5176
    9.780    3.4966
    9.795    3.4544
    9.810    3.3386
    9.825    3.4018
    9.840    3.3491
    9.855    3.3070
    9.870    3.4544
    9.885    3.5387
    9.900    3.8231
    9.915    3.6019
    9.930    3.5914
    9.945    3.2859
    9.960    3.4018
    9.975    3.5808
    9.990    3.5071
   10.005    3.3281
   10.020    3.4650
   10.035    3.4018
   10.050    3.2543
   10.065    3.5176
   10.080    3.5598
   10.095    3.4123
   10.110    3.4966
   10.125    3.4860
   10.140    3.5071
   10.155    3.4860
   10.170    3.0648
   10.185    3.3281
   10.200    3.4650
   10.215    3.3175
   10.230    3.5176
   10.245    3.4439
   10.260    3.5387
   10.275    3.4544
   10.290    3.4334
   10.305    3.6440
   10.320    3.3175
   10.335    3.5492
   10.350    3.7072
   10.365    3.4755
   10.380    3.2965
   10.395    3.3702
   10.410    3.4439
   10.425    3.2227
   10.440    3.3386
   10.455    3.4755
   10.470    3.6651
   10.485    3.6335
   10.500    3.4334
   10.515    3.1596
   10.530    3.0648
   10.545    3.2122
   10.560    3.1912
   10.575    3.0121
   10.590    3.5808
   10.605    3.6440
   10.620    3.6019
   10.635    3.6230
   10.650    3.3175
   10.665    3.5598
   10.680    3.5703
   10.695    3.3281
   10.710    3.2333
   10.725    3.2122
   10.740    3.1701
   10.755    3.4229
   10.770    3.6335
   10.785    3.4860
   10.800    3.6651
   10.815    3.7704
   10.830    3.7283
   10.845    3.5492
   10.860    3.5703
   10.875    3.6019
   10.890    3.4544
   10.905    3.6335
   10.920    3.3597
   10.935    3.4439
   10.950    3.2227
   10.965    3.4755
   10.980    3.4123
   10.995    3.3175
   11.010    3.3807
   11.025    3.5176
   11.040    3.5808
   11.055    3.4018
   11.070    3.7704
   11.085    3.6440
   11.100    3.5808
   11.115    3.4544
   11.130    3.6230
   11.145    3.7283
   11.160    3.2859
   11.175    3.3807
   11.190    3.3702
   11.205    3.4334
   11.220    3.4229
   11.235    3.4966
   11.250    3.7704
   11.265    3.3491
   11.280    3.3807
   11.295    3.4229
   11.310    3.4544
   11.325    3.6124
   11.340    3.4123
   11.355    3.3597
   11.370    3.4439
   11.385    3.2965
   11.400    3.3913
   11.415    3.4229
   11.430    3.5808
   11.445    3.4018
   11.460    3.4334
   11.475    3.4966
   11.490    3.5282
   11.505    3.4544
   11.520    3.4544
   11.535    3.6440
   11.550    3.5387
   11.565    3.2649
   11.580    3.4966
   11.595    3.6124
   11.610    3.3807
   11.625    3.3175
   11.640    3.1490
   11.655    3.2649
   11.670    3.5598
   11.685    3.4860
   11.700    3.1912
   11.715    3.2333
   11.730    3.3597
   11.745    3.5492
   11.760    3.4018
   11.775    3.4860
   11.790    3.5176
   11.805    3.1701
   11.820    3.4544
   11.835    3.6546
   11.850    3.4966
   11.865    3.6019
   11.880    3.5914
   11.895    3.3070
   11.910    3.5071
   11.925    3.6967
   11.940    3.6862
   11.955    3.4755
   11.970    3.4544
   11.985    3.5071
   12.000    3.6124
   12.015    3.5703
   12.030    3.3702
   12.045    3.5492
   12.060    3.6756
   12.075    3.3913
   12.090    3.3807
   12.105    3.5492
   12.120    3.3386
   12.135    3.4018
   12.150    3.4755
   12.165    3.4334
   12.180    3.3913
   12.195    3.3702
   12.210    3.4439
   12.225    3.2543
   12.240    3.4439
   12.255    3.1912
   12.270    3.4123
   12.285    3.0964
   12.300    3.4334
   12.315    3.5703
   12.330    3.6756
   12.345    3.3702
   12.360    3.4123
   12.375    3.4439
   12.390    3.4018
   12.405    3.2227
   12.420    3.4860
   12.435    3.4334
   12.450    3.4650
   12.465    3.8020
   12.480    3.6546
   12.495    3.5176
   12.510    3.4229
   12.525    3.5176
   12.540    3.2227
   12.555    3.4439
   12.570    3.4860
   12.585    3.2649
   12.600    3.5808
   12.615    3.4544
   12.630    3.3281
   12.645    3.2965
   12.660    3.2333
   12.675    3.4966
   12.690    3.6019
   12.705    3.4439
   12.720    3.2227
   12.735    3.4439
   12.750    3.6862
   12.765    3.5914
   12.780    3.5282
   12.795    3.7915
   12.810    3.2543
   12.825    3.4018
   12.840    3.3807
   12.855    3.3702
   12.870    3.5598
   12.885    3.3597
   12.900    3.2017
   12.915    3.2017
   12.930    3.5071
   12.945    3.4018
   12.960    3.6230
   12.975    3.3702
   12.990    3.4544
   13.005    3.2438
   13.020    3.2965
   13.035    3.5387
   13.050    3.3702
   13.065    3.5176
   13.080    3.3913
   13.095    3.4755
   13.110    3.2438
   13.125    3.2859
   13.140    3.3491
   13.155    3.2017
   13.170    3.3386
   13.185    3.5282
   13.200    3.4229
   13.215    3.1490
   13.230    3.6019
   13.245    3.5387
   13.260    3.8125
   13.275    3.4334
   13.290    3.3491
   13.305    3.5703
   13.320    3.2649
   13.335    3.5703
   13.350    3.4544
   13.365    3.4755
   13.380    3.3702
   13.395    3.5387
   13.410    3.3597
   13.425    3.4860
   13.440    3.2227
   13.455    3.4439
   13.470    3.7704
   13.485    3.6546
   13.500    3.0542
   13.515    2.9489
   13.530    3.1912
   13.545    3.1806
   13.560    3.3070
   13.575    3.2438
   13.590    3.0332
   13.605    3.2543
   13.620    3.4123
   13.635    3.3807
   13.650    3.1385
   13.665    3.2227
   13.680    3.4334
   13.695    3.4544
   13.710    3.4650
   13.725    3.3913
   13.740    3.1069
   13.755    3.2227
   13.770    3.1912
   13.785    3.3807
   13.800    3.5492
   13.815    3.4123
   13.830    3.7177
   13.845    3.3913
   13.860    2.9700
   13.875    3.2965
   13.890    3.1490
   13.905    3.0964
   13.920    3.1490
   13.935    3.3491
   13.950    3.2754
   13.965    3.4755
   13.980    3.2965
   13.995    3.5282
   14.010    3.4966
   14.025    3.4229
   14.040    3.2017
   14.055    3.3281
   14.070    3.3386
   14.085    3.2965
   14.100    3.3913
   14.115    3.3070
   14.130    3.3702
   14.145    3.3386
   14.160    3.1596
   14.175    3.2333
   14.190    3.3702
   14.205    3.0226
   14.220    3.0964
   14.235    3.3913
   14.250    3.2122
   14.265    3.3807
   14.280    3.3913
   14.295    3.4650
   14.310    3.2017
   14.325    3.3281
   14.340    3.5387
   14.355    3.3175
   14.370    3.4544
   14.385    3.5492
   14.400    3.2227
   14.415    3.2438
   14.430    3.0226
   14.445    3.2017
   14.460    3.1912
   14.475    3.6335
   14.490    3.6335
   14.505    3.6335
   14.520    3.2543
   14.535    3.2227
   14.550    3.3070
   14.565    3.3597
   14.580    3.2438
   14.595    3.3491
   14.610    3.4966
   14.625    3.2965
   14.640    3.2333
   14.655    3.2965
   14.670    3.3702
   14.685    3.3281
   14.700    3.4966
   14.715    3.5808
   14.730    3.2017
   14.745    3.4123
   14.760    3.3175
   14.775    3.0437
   14.790    3.2859
   14.805    3.3702
   14.820    3.2543
   14.835    3.2017
   14.850    3.4650
   14.865    3.1596
   14.880    3.3175
   14.895    3.5071
   14.910    3.4229
   14.925    3.4755
   14.940    3.5282
   14.955    3.4966
   14.970    3.3597
   14.985    3.3913
   15.000    3.4439
   15.015    3.5703
   15.030    3.5914
   15.045    3.3913
   15.060    3.1174
   15.075    3.1912
   15.090    3.4439
   15.105    3.2859
   15.120    3.4966
   15.135    3.2649
   15.150    3.3386
   15.165    3.3807
   15.180    3.3702
   15.195    3.3491
   15.210    3.1806
   15.225    3.4755
   15.240    3.3597
   15.255    3.4755
   15.270    3.5598
   15.285    3.4439
   15.300    3.4860
   15.315    3.2017
   15.330    3.1806
   15.345    3.4650
   15.360    3.1806
   15.375    3.4439
   15.390    3.4018
   15.405    3.6019
   15.420    3.5598
   15.435    3.2122
   15.450    3.2649
   15.465    3.5387
   15.480    3.3702
   15.495    3.2017
   15.510    3.3491
   15.525    3.4229
   15.540    3.1701
   15.555    3.5703
   15.570    3.5598
   15.585    3.4018
   15.600    3.2543
   15.615    3.3807
   15.630    3.0016
   15.645    3.0753
   15.660    3.1490
   15.675    3.2859
   15.690    3.4544
   15.705    3.3175
   15.720    3.4018
   15.735    3.4018
   15.750    3.4018
   15.765    3.2438
   15.780    3.3386
   15.795    3.5282
   15.810    3.4439
   15.825    3.4439
   15.840    3.3386
   15.855    3.2227
   15.870    3.5282
   15.885    3.3597
   15.900    3.6019
   15.915    3.5387
   15.930    3.4018
   15.945    3.4439
   15.960    3.6651
   15.975    3.2543
   15.990    3.1596
   16.005    3.3070
   16.020    3.5598
   16.035    3.5282
   16.050    3.3702
   16.065    3.2122
   16.080    3.5387
   16.095    3.4334
   16.110    3.4755
   16.125    3.4966
   16.140    3.2122
   16.155    3.2965
   16.170    3.4229
   16.185    3.6230
   16.200    3.2122
   16.215    3.2543
   16.230    3.4018
   16.245    3.2017
   16.260    3.4229
   16.275    3.3175
   16.290    3.3702
   16.305    3.6019
   16.320    3.5703
   16.335    3.3807
   16.350    3.6651
   16.365    3.7283
   16.380    3.3386
   16.395    3.4755
   16.410    3.4018
   16.425    3.1806
   16.440    3.3913
   16.455    3.4544
   16.470    3.7177
   16.485    3.5703
   16.500    3.5492
   16.515    3.1490
   16.530    3.1596
   16.545    3.3386
   16.560    3.5808
   16.575    3.4123
   16.590    3.5282
   16.605    3.4439
   16.620    3.5914
   16.635    3.4860
   16.650    3.4650
   16.665    3.5387
   16.680    3.4334
   16.695    3.4544
   16.710    3.2543
   16.725    3.3597
   16.740    3.4544
   16.755    3.6862
   16.770    3.4018
   16.785    3.3597
   16.800    3.3807
   16.815    3.5282
   16.830    3.3491
   16.845    3.5071
   16.860    3.5387
   16.875    3.5598
   16.890    3.4966
   16.905    3.1596
   16.920    3.4018
   16.935    3.6335
   16.950    3.5914
   16.965    3.6124
   16.980    3.1701
   16.995    3.5914
   17.010    3.4544
   17.025    3.1701
   17.040    3.4229
   17.055    3.6756
   17.070    3.4123
   17.085    3.4123
   17.100    3.3702
   17.115    3.5492
   17.130    3.3702
   17.145    3.4544
   17.160    3.4860
   17.175    3.2649
   17.190    3.5387
   17.205    3.6230
   17.220    3.4650
   17.235    3.7599
   17.250    3.6546
   17.265    3.3807
   17.280    3.4544
   17.295    3.6124
   17.310    3.6862
   17.325    3.6651
   17.340    3.3807
   17.355    3.5492
   17.370    3.2649
   17.385    3.5703
   17.400    3.7493
   17.415    3.3913
   17.430    3.8441
   17.445    3.5808
   17.460    3.4544
   17.475    3.7809
   17.490    3.6440
   17.505    3.4966
   17.520    3.5176
   17.535    3.5598
   17.550    3.8336
   17.565    3.6335
   17.580    3.4650
   17.595    3.5598
   17.610    3.8863
   17.625    3.5598
   17.640    3.3175
   17.655    3.3597
   17.670    3.6756
   17.685    3.6335
   17.700    3.3070
   17.715    3.4966
   17.730    3.4334
   17.745    3.3597
   17.760    3.2965
   17.775    3.3386
   17.790    3.5914
   17.805    3.4018
   17.820    3.7915
   17.835    3.8336
   17.850    3.8336
   17.865    3.9810
   17.880    3.6756
   17.895    4.0021
   17.910    4.0126
   17.925    3.7283
   17.940    4.1811
   17.955    3.8547
   17.970    3.7388
   17.985    4.0653
   18.000    3.8231
   18.015    4.1601
   18.030    4.3497
   18.045    4.2549
   18.060    3.8441
   18.075    3.7072
   18.090    4.1285
   18.105    4.1074
   18.120    3.8757
   18.135    3.5071
   18.150    4.0126
   18.165    3.6862
   18.180    3.7072
   18.195    3.6019
   18.210    3.5492
   18.225    3.5703
   18.240    3.8020
   18.255    3.5492
   18.270    3.7177
   18.285    3.6546
   18.300    3.3175
   18.315    3.5808
   18.330    3.7704
   18.345    3.9705
   18.360    3.9389
   18.375    3.5282
   18.390    3.5282
   18.405    3.3702
   18.420    3.6124
   18.435    3.6440
   18.450    3.7283
   18.465    3.8020
   18.480    3.7809
   18.495    3.7493
   18.510    4.0758
   18.525    3.9284
   18.540    3.7283
   18.555    3.6651
   18.570    3.5176
   18.585    3.6019
   18.600    3.8020
   18.615    3.8336
   18.630    3.4650
   18.645    3.4439
   18.660    3.8336
   18.675    3.9600
   18.690    3.6967
   18.705    3.6546
   18.720    3.9179
   18.735    3.7809
   18.750    3.5914
   18.765    3.6124
   18.780    3.7177
   18.795    3.5598
   18.810    3.3807
   18.825    3.9284
   18.840    3.6335
   18.855    3.8441
   18.870    3.9073
   18.885    3.7072
   18.900    3.5703
   18.915    3.6124
   18.930    3.7599
   18.945    3.7177
   18.960    3.8547
   18.975    3.9284
   18.990    3.8652
   19.005    3.9705
   19.020    3.5703
   19.035    3.7072
   19.050    3.7072
   19.065    3.5176
   19.080    3.5071
   19.095    3.8652
   19.110    3.9810
   19.125    4.0232
   19.140    3.6756
   19.155    3.6335
   19.170    3.7704
   19.185    3.7809
   19.200    3.6019
   19.215    3.4334
   19.230    3.6124
   19.245    3.6440
   19.260    3.7493
   19.275    3.6230
   19.290    3.6967
   19.305    4.0548
   19.320    3.6756
   19.335    3.7283
   19.350    3.7809
   19.365    3.8125
   19.380    4.0021
   19.395    3.9705
   19.410    3.6019
   19.425    3.7704
   19.440    3.5914
   19.455    3.5176
   19.470    3.8125
   19.485    3.7388
   19.500    4.0126
   19.515    3.8863
   19.530    3.4650
   19.545    3.5492
   19.560    3.8863
   19.575    3.9810
   19.590    3.8231
   19.605    3.8020
   19.620    3.7915
   19.635    3.8547
   19.650    3.6019
   19.665    3.8547
   19.680    3.7704
   19.695    3.4650
   19.710    3.7493
   19.725    3.7388
   19.740    3.8863
   19.755    3.7388
   19.770    3.7915
   19.785    3.7809
   19.800    3.7072
   19.815    3.9179
   19.830    3.9389
   19.845    3.8652
   19.860    3.7388
   19.875    3.8757
   19.890    3.6967
   19.905    3.7704
   19.920    3.6124
   19.935    3.4755
   19.950    4.0548
   19.965    3.9073
   19.980    3.4966
   19.995    3.7809
   20.010    3.6862
   20.025    3.6019
   20.040    3.5808
   20.055    3.6019
   20.070    3.5914
   20.085    3.6019
   20.100    3.7283
   20.115    3.8757
   20.130    3.8231
   20.145    3.7493
   20.160    3.5176
   20.175    4.0548
   20.190    4.0548
   20.205    3.9810
   20.220    3.7072
   20.235    3.7809
   20.250    4.1285
   20.265    4.0548
   20.280    4.1180
   20.295    3.7388
   20.310    3.7599
   20.325    3.6651
   20.340    4.0864
   20.355    3.8547
   20.370    3.6230
   20.385    3.5598
   20.400    3.6335
   20.415    3.7599
   20.430    3.7388
   20.445    3.9916
   20.460    3.9494
   20.475    3.4544
   20.490    3.7915
   20.505    3.8547
   20.520    3.6651
   20.535    3.7177
   20.550    3.6335
   20.565    3.6019
   20.580    3.7283
   20.595    3.5914
   20.610    3.7704
   20.625    3.6546
   20.640    3.8652
   20.655    3.6967
   20.670    3.5598
   20.685    3.6124
   20.700    3.6862
   20.715    3.4439
   20.730    3.5598
   20.745    3.6124
   20.760    3.8125
   20.775    3.8231
   20.790    3.7177
   20.805    3.8863
   20.820    3.5387
   20.835    3.7704
   20.850    3.6546
   20.865    3.6651
   20.880    3.6651
   20.895    4.0021
   20.910    3.7388
   20.925    3.8547
   20.940    4.0337
   20.955    3.6862
   20.970    3.6019
   20.985    3.5387
   21.000    3.8020
   21.015    3.6967
   21.030    3.5176
   21.045    3.5703
   21.060    3.6756
   21.075    3.7177
   21.090    3.9705
   21.105    3.6019
   21.120    3.6230
   21.135    3.6546
   21.150    3.6019
   21.165    3.7915
   21.180    3.8336
   21.195    3.7177
   21.210    3.6862
   21.225    3.7283
   21.240    4.2654
   21.255    3.8231
   21.270    3.4334
   21.285    3.7388
   21.300    3.9073
   21.315    3.7809
   21.330    3.7072
   21.345    3.5387
   21.360    3.7493
   21.375    3.8020
   21.390    3.6862
   21.405    3.7388
   21.420    3.7072
   21.435    3.7388
   21.450    3.6651
   21.465    4.0337
   21.480    3.9705
   21.495    3.6019
   21.510    3.6651
   21.525    3.9073
   21.540    3.7177
   21.555    3.5808
   21.570    3.7915
   21.585    3.8547
   21.600    3.5598
   21.615    3.9810
   21.630    3.5914
   21.645    3.7177
   21.660    3.4755
   21.675    3.4544
   21.690    3.8968
   21.705    3.6651
   21.720    3.9705
   21.735    3.9073
   21.750    3.6546
   21.765    3.8757
   21.780    3.6967
   21.795    3.7177
   21.810    3.9705
   21.825    3.4755
   21.840    3.7915
   21.855    3.6335
   21.870    4.1285
   21.885    4.0653
   21.900    3.9705
   21.915    3.6230
   21.930    3.4650
   21.945    3.7283
   21.960    3.6230
   21.975    3.7809
   21.990    3.6440
   22.005    3.4966
   22.020    3.7177
   22.035    3.6862
   22.050    3.8231
   22.065    3.7388
   22.080    3.7809
   22.095    3.5282
   22.110    3.6440
   22.125    3.6019
   22.140    3.5703
   22.155    3.8441
   22.170    3.6546
   22.185    3.8863
   22.200    3.7283
   22.215    3.5071
   22.230    3.6546
   22.245    3.6230
   22.260    3.6651
   22.275    3.9073
   22.290    3.9494
   22.305    3.8336
   22.320    3.9494
   22.335    3.8020
   22.350    3.8336
   22.365    3.8125
   22.380    3.8968
   22.395    3.8125
   22.410    4.1074
   22.425    3.9284
   22.440    3.8336
   22.455    3.8231
   22.470    3.7388
   22.485    3.7915
   22.500    3.9600
   22.515    3.7809
   22.530    3.8336
   22.545    3.5492
   22.560    3.9705
   22.575    3.7704
   22.590    3.6651
   22.605    3.8336
   22.620    3.8441
   22.635    3.7704
   22.650    3.8125
   22.665    3.8231
   22.680    3.5176
   22.695    3.6440
   22.710    3.6651
   22.725    3.6862
   22.740    3.6019
   22.755    3.5598
   22.770    3.7388
   22.785    3.6756
   22.800    4.0548
   22.815    3.7599
   22.830    3.6230
   22.845    3.7809
   22.860    3.6230
   22.875    3.4966
   22.890    3.8757
   22.905    3.7072
   22.920    3.4334
   22.935    3.7599
   22.950    3.5492
   22.965    3.6124
   22.980    3.4860
   22.995    3.4018
   23.010    3.7704
   23.025    3.8547
   23.040    3.8125
   23.055    3.8231
   23.070    3.5071
   23.085    3.8125
   23.100    3.7177
   23.115    3.6124
   23.130    3.8125
   23.145    3.8020
   23.160    3.9705
   23.175    3.6440
   23.190    3.7283
   23.205    3.5282
   23.220    3.8863
   23.235    3.8231
   23.250    3.6230
   23.265    3.8863
   23.280    4.0864
   23.295    3.9179
   23.310    3.5071
   23.325    3.7388
   23.340    4.0126
   23.355    3.8863
   23.370    3.6546
   23.385    3.9916
   23.400    3.7809
   23.415    3.9494
   23.430    3.6440
   23.445    3.9284
   23.460    3.6230
   23.475    3.5387
   23.490    3.8125
   23.505    3.7283
   23.520    3.5914
   23.535    3.8547
   23.550    3.7599
   23.565    3.6862
   23.580    3.5282
   23.595    3.6651
   23.610    3.5808
   23.625    3.5598
   23.640    3.5703
   23.655    3.7704
   23.670    3.7177
   23.685    3.6651
   23.700    3.8863
   23.715    4.0232
   23.730    3.6756
   23.745    3.8652
   23.760    3.3913
   23.775    3.4755
   23.790    3.6019
   23.805    3.3702
   23.820    3.6651
   23.835    3.6967
   23.850    3.6335
   23.865    3.9073
   23.880    3.8020
   23.895    3.6335
   23.910    3.6756
   23.925    4.1285
   23.940    3.7493
   23.955    3.5492
   23.970    3.8020
   23.985    3.4123
   24.000    3.5176
   24.015    3.8231
   24.030    3.4229
   24.045    3.6862
   24.060    3.5808
   24.075    3.9916
   24.090    3.6335
   24.105    3.5071
   24.120    3.5282
   24.135    3.3597
   24.150    3.6651
   24.165    3.8652
   24.180    3.8020
   24.195    3.7388
   24.210    3.6967
   24.225    3.5598
   24.240    3.8652
   24.255    3.4860
   24.270    3.4229
   24.285    3.2965
   24.300    3.2965
   24.315    3.8757
   24.330    3.7704
   24.345    3.6862
   24.360    3.6335
   24.375    3.4860
   24.390    3.6546
   24.405    3.4439
   24.420    3.4755
   24.435    3.6230
   24.450    3.9179
   24.465    3.7599
   24.480    3.5176
   24.495    3.6124
   24.510    3.5598
   24.525    3.5914
   24.540    3.5071
   24.555    3.5598
   24.570    3.4650
   24.585    3.7493
   24.600    3.6862
   24.615    3.7072
   24.630    3.7072
   24.645    3.4229
   24.660    3.3597
   24.675    3.2438
   24.690    3.7283
   24.705    3.5492
   24.720    3.5176
   24.735    3.8125
   24.750    3.5703
   24.765    3.5176
   24.780    3.3175
   24.795    3.5282
   24.810    3.5387
   24.825    3.4229
   24.840    3.6862
   24.855    3.5808
   24.870    3.5282
   24.885    3.7915
   24.900    3.7283
   24.915    3.6230
   24.930    3.5071
   24.945    3.3070
   24.960    3.5387
   24.975    3.4755
   24.990    3.3807
   25.005    3.3913
   25.020    3.5387
   25.035    3.3491
   25.050    3.4439
   25.065    3.7915
   25.080    3.5914
   25.095    3.7599
   25.110    3.4018
   25.125    3.5703
   25.140    3.3807
   25.155    3.6546
   25.170    3.4544
   25.185    3.4544
   25.200    3.2333
   25.215    3.5282
   25.230    3.4755
   25.245    3.3597
   25.260    3.4755
   25.275    3.5071
   25.290    3.5598
   25.305    3.6440
   25.320    3.3597
   25.335    3.5387
   25.350    3.4334
   25.365    3.4966
   25.380    3.4123
   25.395    3.1174
   25.410    3.4650
   25.425    3.2333
   25.440    3.3175
   25.455    3.3807
   25.470    3.5387
   25.485    3.8441
   25.500    3.4439
   25.515    3.4334
   25.530    3.8231
   25.545    3.5703
   25.560    3.4755
   25.575    3.3913
   25.590    3.6019
   25.605    3.6335
   25.620    3.6335
   25.635    3.5387
   25.650    3.5492
   25.665    3.3807
   25.680    3.3070
   25.695    3.5282
   25.710    3.7072
   25.725    3.8125
   25.740    3.4439
   25.755    3.2543
   25.770    3.2438
   25.785    3.2122
   25.800    3.3597
   25.815    3.4229
   25.830    3.3597
   25.845    3.5176
   25.860    3.2965
   25.875    3.4755
   25.890    3.4439
   25.905    3.2543
   25.920    3.4755
   25.935    3.4018
   25.950    3.1069
   25.965    3.2122
   25.980    3.3491
   25.995    3.5492
   26.010    3.3597
   26.025    3.2438
   26.040    3.0016
   26.055    3.1280
   26.070    3.2754
   26.085    3.4334
   26.100    3.4334
   26.115    3.4650
   26.130    3.3597
   26.145    3.4123
   26.160    3.7072
   26.175    3.3281
   26.190    3.5176
   26.205    3.3913
   26.220    3.3807
   26.235    3.2543
   26.250    3.3070
   26.265    3.3175
   26.280    3.3702
   26.295    3.4966
   26.310    3.2122
   26.325    3.2754
   26.340    3.4018
   26.355    3.1069
   26.370    3.1069
   26.385    3.4439
   26.400    3.3281
   26.415    3.0332
   26.430    3.2543
   26.445    3.0648
   26.460    3.2965
   26.475    3.0542
   26.490    3.0858
   26.505    3.3702
   26.520    3.4439
   26.535    3.3175
   26.550    2.9910
   26.565    3.3807
   26.580    3.2438
   26.595    3.4334
   26.610    3.2965
   26.625    3.2649
   26.640    3.1174
   26.655    3.3491
   26.670    3.2649
   26.685    3.4439
   26.700    3.1174
   26.715    3.2754
   26.730    3.4334
   26.745    3.3807
   26.760    3.4650
   26.775    3.2754
   26.790    3.0648
   26.805    3.2227
   26.820    3.1069
   26.835    3.0437
   26.850    2.8647
   26.865    2.8331
   26.880    3.0964
   26.895    3.0648
   26.910    3.3491
   26.925    3.3702
   26.940    3.0542
   26.955    3.2649
   26.970    3.2859
   26.985    3.2122
   27.000    3.2227
   27.015    3.2333
   27.030    3.2859
   27.045    3.2017
   27.060    3.1174
   27.075    3.1596
   27.090    3.3386
   27.105    3.2438
   27.120    3.2649
   27.135    3.0964
   27.150    3.0648
   27.165    3.1596
   27.180    3.1912
   27.195    3.0858
   27.210    3.0648
   27.225    3.2754
   27.240    3.1596
   27.255    3.1069
   27.270    3.0332
   27.285    3.1912
   27.300    2.9910
   27.315    3.0332
   27.330    3.3281
   27.345    3.2438
   27.360    3.2543
   27.375    3.0016
   27.390    2.9805
   27.405    3.1280
   27.420    2.9595
   27.435    3.1596
   27.450    3.0648
   27.465    3.3597
   27.480    3.0332
   27.495    2.8120
   27.510    3.1174
   27.525    3.3702
   27.540    3.4755
   27.555    3.2649
   27.570    2.9805
   27.585    3.1701
   27.600    3.3070
   27.615    3.1701
   27.630    2.9279
   27.645    3.0332
   27.660    2.8541
   27.675    3.0858
   27.690    2.9805
   27.705    3.1174
   27.720    3.0648
   27.735    3.0437
   27.750    2.9173
   27.765    3.0964
   27.780    3.0964
   27.795    3.1701
   27.810    3.1806
   27.825    3.1912
   27.840    3.1174
   27.855    3.0542
   27.870    2.9384
   27.885    2.6330
   27.900    2.9173
   27.915    3.1385
   27.930    3.2754
   27.945    3.2333
   27.960    3.0753
   27.975    2.9595
   27.990    2.9279
   28.005    3.0437
   28.020    3.1385
   28.035    2.6962
   28.050    3.0648
   28.065    3.3175
   28.080    3.2438
   28.095    2.9068
   28.110    3.0542
   28.125    3.1069
   28.140    2.8120
   28.155    2.9489
   28.170    3.0437
   28.185    3.0121
   28.200    3.4018
   28.215    3.4018
   28.230    3.1912
   28.245    3.0858
   28.260    3.0332
   28.275    2.9595
   28.290    3.2649
   28.305    3.2017
   28.320    3.0016
   28.335    2.8963
   28.350    2.9910
   28.365    2.9595
   28.380    2.7909
   28.395    2.8331
   28.410    2.7909
   28.425    2.8436
   28.440    2.8436
   28.455    3.0332
   28.470    2.8225
   28.485    2.6119
   28.500    2.9384
   28.515    3.3070
   28.530    3.1280
   28.545    2.8857
   28.560    2.9384
   28.575    3.0332
   28.590    3.1174
   28.605    3.1701
   28.620    3.1912
   28.635    2.9173
   28.650    2.7804
   28.665    2.8647
   28.680    3.0753
   28.695    3.0648
   28.710    3.0121
   28.725    3.0437
   28.740    3.0016
   28.755    2.7593
   28.770    3.1596
   28.785    2.9173
   28.800    2.9910
   28.815    3.0753
   28.830    3.0542
   28.845    2.7699
   28.860    2.8436
   28.875    2.8963
   28.890    2.9068
   28.905    2.8436
   28.920    2.8647
   28.935    2.7804
   28.950    2.8541
   28.965    2.9700
   28.980    2.8963
   28.995    2.8857
   29.010    3.0121
   29.025    2.8647
   29.040    2.5908
   29.055    2.4223
   29.070    2.7804
   29.085    2.9384
   29.100    2.8541
   29.115    2.9173
   29.130    2.7278
   29.145    3.0437
   29.160    3.0542
   29.175    2.9595
   29.190    2.7593
   29.205    2.7278
   29.220    2.7593
   29.235    2.8436
   29.250    2.6330
   29.265    2.9700
   29.280    2.8436
   29.295    3.2438
   29.310    3.0648
   29.325    2.9700
   29.340    2.7488
   29.355    2.6962
   29.370    2.8752
   29.385    3.1912
   29.400    2.9384
   29.415    2.8963
   29.430    2.8963
   29.445    3.0542
   29.460    2.7383
   29.475    2.9700
   29.490    3.0437
   29.505    3.0226
   29.520    2.8015
   29.535    2.7804
   29.550    2.6435
   29.565    2.9489
   29.580    2.6646
   29.595    2.9489
   29.610    2.7278
   29.625    2.9700
   29.640    2.8752
   29.655    2.8647
   29.670    2.6014
   29.685    2.7488
   29.700    2.9595
   29.715    2.6646
   29.730    2.7488
   29.745    2.6751
   29.760    2.7699
   29.775    3.0016
   29.790    2.8857
   29.805    2.5908
   29.820    2.6751
   29.835    2.7278
   29.850    2.7383
   29.865    2.9595
   29.880    3.0542
   29.895    2.9805
   29.910    2.5908
   29.925    2.7383
   29.940    2.7488
   29.955    2.8225
   29.970    2.6962
   29.985    2.6646
   30.000    2.9279
   30.015    2.8436
   30.030    3.0226
   30.045    2.9910
   30.060    2.9279
   30.075    2.8015
   30.090    2.8857
   30.105    2.6014
   30.120    2.6751
   30.135    2.7172
   30.150    2.6962
   30.165    2.9805
   30.180    2.6962
   30.195    2.6856
   30.210    2.6330
   30.225    2.4750
   30.240    2.5066
   30.255    2.3591
   30.270    2.4855
   30.285    2.8120
   30.300    2.7172
   30.315    2.6751
   30.330    2.7383
   30.345    2.6856
   30.360    2.6330
   30.375    2.8752
   30.390    2.8120
   30.405    2.7278
   30.420    2.8963
   30.435    2.8752
   30.450    2.4223
   30.465    2.7278
   30.480    2.6646
   30.495    2.5382
   30.510    2.5276
   30.525    2.5487
   30.540    2.6224
   30.555    2.8225
   30.570    2.8857
   30.585    2.6119
   30.600    2.6224
   30.615    2.8647
   30.630    2.9384
   30.645    2.8015
   30.660    2.6856
   30.675    2.3591
   30.690    2.4434
   30.705    2.6751
   30.720    2.8225
   30.735    2.8963
   30.750    2.7488
   30.765    2.7383
   30.780    2.8541
   30.795    2.6224
   30.810    2.6540
   30.825    2.7699
   30.840    2.7804
   30.855    2.9279
   30.870    2.7172
   30.885    2.4645
   30.900    2.4329
   30.915    2.6751
   30.930    2.6224
   30.945    2.5487
   30.960    2.7067
   30.975    2.7909
   30.990    2.6751
   31.005    2.6751
   31.020    2.8436
   31.035    2.6856
   31.050    2.4223
   31.065    2.6330
   31.080    2.5698
   31.095    2.4434
   31.110    2.6014
   31.125    2.7383
   31.140    2.9910
   31.155    2.7383
   31.170    2.7172
   31.185    2.6224
   31.200    2.8541
   31.215    2.6435
   31.230    2.5592
   31.245    2.6646
   31.260    2.6751
   31.275    2.4223
   31.290    2.3697
   31.305    2.6751
   31.320    2.6856
   31.335    2.5908
   31.350    2.6014
   31.365    2.5908
   31.380    2.5698
   31.395    2.6224
   31.410    2.6540
   31.425    2.4961
   31.440    2.3802
   31.455    2.4855
   31.470    2.7488
   31.485    2.4855
   31.500    2.4961
   31.515    2.3907
   31.530    2.6330
   31.545    2.4961
   31.560    2.6751
   31.575    2.7383
   31.590    2.5592
   31.605    2.7909
   31.620    2.5592
   31.635    2.5066
   31.650    2.5803
   31.665    2.4645
   31.680    2.5382
   31.695    2.6646
   31.710    2.6962
   31.725    2.7804
   31.740    2.7067
   31.755    2.8120
   31.770    2.5171
   31.785    2.2749
   31.800    2.3697
   31.815    2.4223
   31.830    2.3802
   31.845    2.4539
   31.860    2.5276
   31.875    2.6962
   31.890    2.6224
   31.905    2.6330
   31.920    2.4750
   31.935    2.6646
   31.950    2.6435
   31.965    2.2328
   31.980    2.2959
   31.995    2.5066
   32.010    2.3697
   32.025    2.5276
   32.040    2.5066
   32.055    2.4855
   32.070    2.5066
   32.085    2.6014
   32.100    2.5803
   32.115    2.3697
   32.130    2.4118
   32.145    2.6540
   32.160    2.4750
   32.175    2.4539
   32.190    2.6646
   32.205    2.4118
   32.220    2.3802
   32.235    2.2222
   32.250    2.3275
   32.265    2.1169
   32.280    2.3907
   32.295    2.6224
   32.310    2.5698
   32.325    2.5592
   32.340    2.3486
   32.355    2.2222
   32.370    2.3275
   32.385    2.3381
   32.400    2.5171
   32.415    2.4855
   32.430    2.3065
   32.445    2.2328
   32.460    2.4750
   32.475    2.5276
   32.490    2.3170
   32.505    2.4645
   32.520    2.2854
   32.535    2.4434
   32.550    2.5382
   32.565    2.3907
   32.580    2.3486
   32.595    2.4855
   32.610    2.6330
   32.625    2.2959
   32.640    2.2854
   32.655    2.2222
   32.670    2.1696
   32.685    2.7278
   32.700    2.4434
   32.715    2.3907
   32.730    2.3697
   32.745    2.3907
   32.760    2.2012
   32.775    2.3697
   32.790    2.3802
   32.805    2.3591
   32.820    2.2959
   32.835    2.3697
   32.850    2.4329
   32.865    2.3486
   32.880    2.1590
   32.895    1.9905
   32.910    2.3381
   32.925    2.5171
   32.940    2.3697
   32.955    2.0642
   32.970    2.0011
   32.985    2.0221
   33.000    2.1169
   33.015    2.1169
   33.030    2.2012
   33.045    2.1801
   33.060    2.2433
   33.075    2.3065
   33.090    2.2959
   33.105    2.1380
   33.120    2.1274
   33.135    1.9905
   33.150    2.1380
   33.165    2.0432
   33.180    2.0748
   33.195    2.3065
   33.210    2.0642
   33.225    2.1906
   33.240    2.0432
   33.255    2.2749
   33.270    2.1801
   33.285    2.4329
   33.300    2.2433
   33.315    2.2222
   33.330    2.1169
   33.345    2.1380
   33.360    2.2959
   33.375    2.2433
   33.390    2.0958
   33.405    2.1801
   33.420    2.2328
   33.435    2.3170
   33.450    2.3275
   33.465    2.3802
   33.480    2.2538
   33.495    2.2222
   33.510    2.2012
   33.525    2.0642
   33.540    2.0642
   33.555    2.0642
   33.570    2.3170
   33.585    1.8957
   33.600    2.0958
   33.615    2.3802
   33.630    2.2433
   33.645    2.0432
   33.660    2.1801
   33.675    2.1906
   33.690    2.1696
   33.705    2.1380
   33.720    2.1380
   33.735    2.2433
   33.750    2.2117
   33.765    2.0853
   33.780    2.0432
   33.795    1.7588
   33.810    1.8747
   33.825    1.7799
   33.840    1.9379
   33.855    2.0116
   33.870    2.0537
   33.885    2.0853
   33.900    2.0642
   33.915    2.0432
   33.930    2.0116
   33.945    1.9273
   33.960    2.1485
   33.975    2.1485
   33.990    1.7694
   34.005    1.9168
   34.020    1.8536
   34.035    1.8747
   34.050    2.0537
   34.065    2.1590
   34.080    2.2538
   34.095    2.0221
   34.110    1.9800
   34.125    2.0432
   34.140    2.0537
   34.155    1.9589
   34.170    1.8536
   34.185    2.0537
   34.200    2.0642
   34.215    2.1485
   34.230    1.9905
   34.245    2.0642
   34.260    2.0011
   34.275    2.1906
   34.290    2.0853
   34.305    2.0326
   34.320    1.9063
   34.335    2.0221
   34.350    1.7799
   34.365    1.8641
   34.380    2.0116
   34.395    2.1485
   34.410    1.9379
   34.425    1.8957
   34.440    1.8957
   34.455    1.9589
   34.470    1.9484
   34.485    1.8957
   34.500    1.8536
   34.515    1.9484
   34.530    1.8852
   34.545    2.0537
   34.560    1.8747
   34.575    1.8641
   34.590    2.0116
   34.605    2.1169
   34.620    1.8325
   34.635    1.9484
   34.650    1.9695
   34.665    2.0853
   34.680    1.8009
   34.695    1.9905
   34.710    1.9379
   34.725    2.0326
   34.740    1.9063
   34.755    1.8009
   34.770    1.9695
   34.785    1.8431
   34.800    2.0011
   34.815    2.0432
   34.830    1.9800
   34.845    1.9905
   34.860    2.0326
   34.875    1.9484
   34.890    1.7799
   34.905    1.8641
   34.920    1.8115
   34.935    1.6640
   34.950    1.8325
   34.965    1.8852
   34.980    1.8957
   34.995    1.7904
   35.010    2.0326
   35.025    2.0221
   35.040    1.8641
   35.055    1.9168
   35.070    1.7483
   35.085    1.8009
   35.100    1.8325
   35.115    1.7378
   35.130    1.9800
   35.145    1.7904
   35.160    1.8641
   35.175    2.0011
   35.190    1.8220
   35.205    1.8747
   35.220    1.8747
   35.235    1.9484
   35.250    1.7062
   35.265    1.6008
   35.280    1.7062
   35.295    1.7588
   35.310    1.9379
   35.325    1.8115
   35.340    1.7167
   35.355    1.8220
   35.370    1.7904
   35.385    1.7904
   35.400    1.8431
   35.415    1.7272
   35.430    1.8957
   35.445    1.8852
   35.460    1.8220
   35.475    1.6535
   35.490    1.7272
   35.505    1.8536
   35.520    1.7904
   35.535    1.8852
   35.550    1.6640
   35.565    1.7483
   35.580    1.7588
   35.595    1.6535
   35.610    1.5692
   35.625    1.8747
   35.640    1.7272
   35.655    1.7062
   35.670    1.8431
   35.685    1.7062
   35.700    1.6430
   35.715    1.7483
   35.730    1.8431
   35.745    1.5271
   35.760    1.6535
   35.775    1.8747
   35.790    2.0642
   35.805    1.8325
   35.820    1.8536
   35.835    1.7694
   35.850    1.6008
   35.865    1.7062
   35.880    1.7483
   35.895    1.7062
   35.910    1.5271
   35.925    1.6430
   35.940    1.7483
   35.955    1.6640
   35.970    1.9168
   35.985    1.5377
   36.000    1.4429
   36.015    1.7378
   36.030    1.7062
   36.045    1.7167
   36.060    1.8115
   36.075    1.7272
   36.090    1.7378
   36.105    1.9168
   36.120    1.7694
   36.135    1.7062
   36.150    1.5587
   36.165    1.5798
   36.180    1.6956
   36.195    1.7378
   36.210    1.8536
   36.225    1.7378
   36.240    1.6746
   36.255    1.6114
   36.270    1.5903
   36.285    1.7588
   36.300    1.7167
   36.315    1.5798
   36.330    1.6535
   36.345    1.4429
   36.360    1.6008
   36.375    1.4745
   36.390    1.5903
   36.405    1.6219
   36.420    1.7167
   36.435    1.7378
   36.450    1.7272
   36.465    1.6324
   36.480    1.6851
   36.495    1.6324
   36.510    1.7588
   36.525    1.5587
   36.540    1.6114
   36.555    1.6430
   36.570    1.5587
   36.585    1.5692
   36.600    1.5692
   36.615    1.5271
   36.630    1.5166
   36.645    1.5692
   36.660    1.5377
   36.675    1.5903
   36.690    1.7588
   36.705    1.6640
   36.720    1.6114
   36.735    1.7378
   36.750    1.5587
   36.765    1.6114
   36.780    1.5587
   36.795    1.7062
   36.810    1.9273
   36.825    1.7378
   36.840    1.6114
   36.855    1.6219
   36.870    1.8536
   36.885    1.7167
   36.900    1.4007
   36.915    1.5061
   36.930    1.4745
   36.945    1.7272
   36.960    1.6324
   36.975    1.5798
   36.990    1.7378
   37.005    1.6535
   37.020    1.5166
   37.035    1.5798
   37.050    1.6008
   37.065    1.6219
   37.080    1.6114
   37.095    1.5377
   37.110    1.7272
   37.125    1.6535
   37.140    1.7694
   37.155    1.5587
   37.170    1.5692
   37.185    1.4745
   37.200    1.5377
   37.215    1.5692
   37.230    1.5587
   37.245    1.4534
   37.260    1.4534
   37.275    1.5903
   37.290    1.6008
   37.305    1.4007
   37.320    1.5692
   37.335    1.6324
   37.350    1.4218
   37.365    1.5798
   37.380    1.5903
   37.395    1.4429
   37.410    1.4218
   37.425    1.4850
   37.440    1.4850
   37.455    1.4745
   37.470    1.6114
   37.485    1.6640
   37.500    1.5903
   37.515    1.4745
   37.530    1.4745
   37.545    1.5061
   37.560    1.6114
   37.575    1.6114
   37.590    1.6114
   37.605    1.4534
   37.620    1.4323
   37.635    1.3481
   37.650    1.4534
   37.665    1.3797
   37.680    1.3481
   37.695    1.3165
   37.710    1.4218
   37.725    1.4639
   37.740    1.5271
   37.755    1.4007
   37.770    1.5166
   37.785    1.5061
   37.800    1.4639
   37.815    1.4534
   37.830    1.5587
   37.845    1.6324
   37.860    1.5061
   37.875    1.5692
   37.890    1.3902
   37.905    1.4323
   37.920    1.3797
   37.935    1.4534
   37.950    1.4955
   37.965    1.3902
   37.980    1.3375
   37.995    1.3902
   38.010    1.4429
   38.025    1.7272
   38.040    1.4113
   38.055    1.3586
   38.070    1.4218
   38.085    1.5587
   38.100    1.4534
   38.115    1.5692
   38.130    1.4534
   38.145    1.2744
   38.160    1.4850
   38.175    1.5903
   38.190    1.4639
   38.205    1.3797
   38.220    1.4218
   38.235    1.5166
   38.250    1.4639
   38.265    1.4639
   38.280    1.4323
   38.295    1.5482
   38.310    1.3797
   38.325    1.5061
   38.340    1.5377
   38.355    1.3902
   38.370    1.5903
   38.385    1.3165
   38.400    1.5061
   38.415    1.4745
   38.430    1.4745
   38.445    1.5271
   38.460    1.2954
   38.475    1.2954
   38.490    1.5271
   38.505    1.4955
   38.520    1.4850
   38.535    1.2533
   38.550    1.5482
   38.565    1.5692
   38.580    1.3797
   38.595    1.4218
   38.610    1.4850
   38.625    1.4218
   38.640    1.5061
   38.655    1.4113
   38.670    1.6008
   38.685    1.3691
   38.700    1.4850
   38.715    1.4429
   38.730    1.3691
   38.745    1.3797
   38.760    1.6640
   38.775    1.4113
   38.790    1.4323
   38.805    1.5692
   38.820    1.4745
   38.835    1.3375
   38.850    1.4323
   38.865    1.4113
   38.880    1.5061
   38.895    1.5587
   38.910    1.6219
   38.925    1.3797
   38.940    1.4639
   38.955    1.4850
   38.970    1.4639
   38.985    1.3691
   39.000    1.1690
   39.015    1.4323
   39.030    1.4429
   39.045    1.3691
   39.060    1.4534
   39.075    1.3270
   39.090    1.3481
   39.105    1.3797
   39.120    1.5061
   39.135    1.4218
   39.150    1.3375
   39.165    1.2849
   39.180    1.4007
   39.195    1.4429
   39.210    1.4534
   39.225    1.4113
   39.240    1.4218
   39.255    1.4850
   39.270    1.6219
   39.285    1.1901
   39.300    1.5061
   39.315    1.5061
   39.330    1.4007
   39.345    1.4429
   39.360    1.4007
   39.375    1.4429
   39.390    1.3165
   39.405    1.4850
   39.420    1.6640
   39.435    1.4007
   39.450    1.4850
   39.465    1.3691
   39.480    1.6114
   39.495    1.4429
   39.510    1.3586
   39.525    1.4323
   39.540    1.4534
   39.555    1.5271
   39.570    1.5903
   39.585    1.2638
   39.600    1.4007
   39.615    1.3481
   39.630    1.4534
   39.645    1.3691
   39.660    1.4429
   39.675    1.4007
   39.690    1.4218
   39.705    1.2533
   39.720    1.3165
   39.735    1.2849
   39.750    1.4007
   39.765    1.4218
   39.780    1.3481
   39.795    1.3797
   39.810    1.4745
   39.825    1.3481
   39.840    1.4007
   39.855    1.2112
   39.870    1.2217
   39.885    1.3375
   39.900    1.2533
   39.915    1.4323
   39.930    1.3165
   39.945    1.3902
   39.960    1.4007
   39.975    1.4850
   39.990    1.3691
