    1.500   23.9600
    1.515   23.7493
    1.530   24.1531
    1.545   23.0648
    1.560   22.1345
    1.575   22.2222
    1.590   23.5036
    1.605   21.7483
    1.620   21.1339
    1.635   21.4323
    1.650   20.8531
    1.665   19.8701
    1.680   20.0632
    1.695   19.9930
    1.710   19.2909
    1.725   19.5893
    1.740   18.6765
    1.755   18.0972
    1.770   18.5712
    1.785   18.6940
    1.800   19.2382
    1.815   18.0972
    1.830   18.5185
    1.845   17.7988
    1.860   17.7111
    1.875   17.5355
    1.890   17.6233
    1.905   17.6760
    1.920   17.0616
    1.935   17.0792
    1.950   16.7983
    1.965   16.6754
    1.980   15.5696
    1.995   14.7622
    2.010   16.0084
    2.025   15.9909
    2.040   14.7797
    2.055   14.9903
    2.070   15.4292
    2.085   14.0951
    2.100   14.3058
    2.115   14.9026
    2.130   14.8675
    2.145   14.5866
    2.160   14.5691
    2.175   14.2707
    2.190   13.7792
    2.205   12.8664
    2.220   13.6037
    2.235   13.9547
    2.250   14.1478
    2.265   13.5861
    2.280   13.5159
    2.295   12.9717
    2.310   13.0771
    2.325   13.7265
    2.340   13.1122
    2.355   12.6733
    2.370   13.1297
    2.385   13.1297
    2.400   12.2872
    2.415   12.4627
    2.430   12.6382
    2.445   12.2345
    2.460   12.4803
    2.475   12.3925
    2.490   12.2521
    2.505   12.1994
    2.520   11.4797
    2.535   11.9888
    2.550   12.4451
    2.565   12.3398
    2.580   12.0239
    2.595   12.3047
    2.610   12.3047
    2.625   12.3749
    2.640   11.7430
    2.655   12.2872
    2.670   11.6377
    2.685   10.8654
    2.700   11.3569
    2.715   11.6026
    2.730   11.6728
    2.745   11.8834
    2.760   11.2164
    2.775   11.3042
    2.790   10.9180
    2.805   11.4797
    2.820   11.4797
    2.835   11.2340
    2.850   11.7606
    2.865   11.1287
    2.880   10.7600
    2.895   10.9356
    2.910   10.8654
    2.925   10.6898
    2.940   10.5143
    2.955   10.5319
    2.970   10.7776
    2.985   11.1813
    3.000   10.6898
    3.015   10.7952
    3.030   10.6021
    3.045   10.7952
    3.060   10.4441
    3.075   10.5319
    3.090   11.2164
    3.105   11.6728
    3.120   11.1638
    3.135   11.5850
    3.150   11.6904
    3.165   10.9531
    3.180   11.5148
    3.195   11.4973
    3.210   11.8659
    3.225   11.1462
    3.240   11.5675
    3.255   12.9893
    3.270   12.4276
    3.285   12.1116
    3.300   12.6733
    3.315   12.7084
    3.330   13.1473
    3.345   14.0425
    3.360   13.4983
    3.375   14.5164
    3.390   13.9723
    3.405   13.9547
    3.420   14.7973
    3.435   14.4813
    3.450   15.5520
    3.465   15.7978
    3.480   16.2191
    3.495   16.5350
    3.510   16.9563
    3.525   18.3605
    3.540   18.8871
    3.555   19.4137
    3.570   20.5547
    3.585   20.7302
    3.600   22.9243
    3.615   23.8196
    3.630   25.2062
    3.645   25.9786
    3.660   27.8392
    3.675   29.7174
    3.690   32.1573
    3.705   34.7727
    3.720   36.1243
    3.735   39.3014
    3.750   43.0578
    3.765   46.2349
    3.780   51.1146
    3.795   59.2593
    3.810   65.8592
    3.825   71.4938
    3.840   76.6544
    3.855   76.9001
    3.870   71.1252
    3.885   61.9624
    3.900   50.7811
    3.915   39.9860
    3.930   28.3483
    3.945   20.9057
    3.960   16.8159
    3.975   14.2356
    3.990   12.3925
    4.005   11.6026
    4.020   10.8829
    4.035   11.1813
    4.050   10.2686
    4.065   10.1106
    4.080   10.4968
    4.095    9.6015
    4.110   10.3739
    4.125   10.0755
    4.140    9.8999
    4.155   10.0228
    4.170    9.3909
    4.185    9.3558
    4.200    9.5313
    4.215    9.7595
    4.230   10.0755
    4.245    9.9702
    4.260    9.4787
    4.275    9.9351
    4.290    9.6367
    4.305    8.7765
    4.320    9.7069
    4.335    9.8824
    4.350    8.9345
    4.365    8.7063
    4.380    9.7069
    4.395    9.7946
    4.410    9.3207
    4.425    9.5489
    4.440    9.2154
    4.455    9.4962
    4.470    9.3382
    4.485    9.1978
    4.500    8.7941
    4.515    8.9696
    4.530    8.9170
    4.545    9.4787
    4.560    9.3207
    4.575    8.6888
    4.590    8.6888
    4.605    9.3909
    4.620    9.0223
    4.635    9.0398
    4.650    9.6718
    4.665    9.0750
    4.680    8.7239
    4.695    8.8819
    4.710    9.1452
    4.725    9.1978
    4.740    8.7941
    4.755    9.0223
    4.770    9.2505
    4.785    9.4787
    4.800    9.5840
    4.815    9.3382
    4.830    9.9702
    4.845    9.7771
    4.860    9.5840
    4.875    9.7244
    4.890   10.0053
    4.905   10.0930
    4.920    9.4962
    4.935    9.7420
    4.950    9.8297
    4.965    9.6542
    4.980    9.6893
    4.995    9.4436
    5.010    9.4611
    5.025    9.3909
    5.040   10.6547
    5.055   10.5319
    5.070   10.1983
    5.085    9.8122
    5.100   10.4441
    5.115    9.2856
    5.130   10.5670
    5.145   11.2515
    5.160   11.4446
    5.175   10.9531
    5.190   10.9180
    5.205   11.4095
    5.220   11.5324
    5.235   11.9537
    5.250   12.1643
    5.265   12.8840
    5.280   12.8840
    5.295   13.2526
    5.310   13.7090
    5.325   14.0074
    5.340   13.8669
    5.355   14.7446
    5.370   15.2887
    5.385   15.8680
    5.400   16.8861
    5.415   17.9568
    5.430   18.9222
    5.445   20.7127
    5.460   21.6605
    5.475   21.7307
    5.490   21.2568
    5.505   19.6068
    5.520   18.2026
    5.535   15.9558
    5.550   13.9196
    5.565   12.9542
    5.580   12.6207
    5.595   12.1292
    5.610   11.7430
    5.625   11.1111
    5.640   11.7781
    5.655   11.5675
    5.670   11.3393
    5.685   11.4271
    5.700   11.2340
    5.715   10.8829
    5.730   10.9356
    5.745   10.7952
    5.760   10.5670
    5.775   10.5143
    5.790   10.2861
    5.805   10.8829
    5.820   10.0228
    5.835   10.3212
    5.850    9.9526
    5.865    9.7069
    5.880    9.7069
    5.895    9.6718
    5.910   10.1106
    5.925    9.6893
    5.940    9.5664
    5.955    9.8473
    5.970   10.0579
    5.985    9.4962
    6.000    9.1803
    6.015    9.0223
    6.030    9.7069
    6.045    9.3734
    6.060    8.5308
    6.075    9.2505
    6.090    8.8819
    6.105    8.7239
    6.120    8.8117
    6.135    8.6712
    6.150    8.8643
    6.165    8.7765
    6.180    8.6537
    6.195    8.8643
    6.210    8.4430
    6.225    9.1101
    6.240    8.6010
    6.255    7.5829
    6.270    8.3202
    6.285    8.3026
    6.300    8.7414
    6.315    8.5133
    6.330    8.5835
    6.345    8.0920
    6.360    8.5835
    6.375    8.5308
    6.390    8.4430
    6.405    8.2675
    6.420    8.5835
    6.435    8.7063
    6.450    8.6186
    6.465    7.9340
    6.480    8.3202
    6.495    8.7765
    6.510    8.4957
    6.525    8.1446
    6.540    8.6888
    6.555    8.7765
    6.570    8.3904
    6.585    8.2149
    6.600    8.4957
    6.615    8.7765
    6.630    8.7590
    6.645    8.3728
    6.660    9.0223
    6.675    9.4085
    6.690    9.5138
    6.705    9.4962
    6.720    9.3207
    6.735    9.3382
    6.750    9.2154
    6.765    9.1452
    6.780    8.9345
    6.795    8.2851
    6.810    7.8989
    6.825    8.0569
    6.840    7.8287
    6.855    7.6883
    6.870    7.7760
    6.885    7.9164
    6.900    7.4776
    6.915    7.9340
    6.930    7.7936
    6.945    7.3372
    6.960    7.5654
    6.975    7.6005
    6.990    7.8111
    7.005    7.4074
    7.020    7.7234
    7.035    7.4074
    7.050    7.5127
    7.065    7.3899
    7.080    7.0739
    7.095    7.2845
    7.110    7.6532
    7.125    7.5478
    7.140    7.2670
    7.155    7.1968
    7.170    7.3021
    7.185    7.3021
    7.200    7.3021
    7.215    7.0915
    7.230    7.0739
    7.245    7.3196
    7.260    7.0563
    7.275    7.1617
    7.290    6.8106
    7.305    7.1266
    7.320    6.7053
    7.335    6.6526
    7.350    6.7930
    7.365    7.3723
    7.380    7.0212
    7.395    6.9510
    7.410    6.9335
    7.425    7.2143
    7.440    7.2845
    7.455    6.4244
    7.470    7.1968
    7.485    7.2670
    7.500    6.8808
    7.515    7.4250
    7.530    7.6532
    7.545    7.5478
    7.560    7.3547
    7.575    7.1266
    7.590    7.0915
    7.605    6.8633
    7.620    6.7053
    7.635    7.7409
    7.650    8.3202
    7.665    7.7585
    7.680    7.6532
    7.695    8.3728
    7.710    9.2680
    7.725    9.4787
    7.740    9.6542
    7.755    9.8824
    7.770   10.9531
    7.785   10.0228
    7.800    9.6367
    7.815    9.0398
    7.830    8.4430
    7.845    8.1271
    7.860    7.0212
    7.875    7.1441
    7.890    7.1792
    7.905    7.2670
    7.920    6.6351
    7.935    6.8282
    7.950    6.7930
    7.965    6.1085
    7.980    6.6000
    7.995    6.8106
    8.010    6.3893
    8.025    6.5649
    8.040    6.3718
    8.055    7.1617
    8.070    6.4946
    8.085    6.6702
    8.100    6.7053
    8.115    6.4595
    8.130    6.3367
    8.145    6.5298
    8.160    6.3893
    8.175    6.7228
    8.190    6.8984
    8.205    6.4946
    8.220    6.3016
    8.235    6.5824
    8.250    6.3718
    8.265    6.1611
    8.280    6.6702
    8.295    6.6877
    8.310    6.1962
    8.325    6.6175
    8.340    7.1792
    8.355    6.5298
    8.370    5.9505
    8.385    6.0032
    8.400    6.7930
    8.415    6.8984
    8.430    6.5298
    8.445    6.4771
    8.460    6.4595
    8.475    6.0207
    8.490    6.0909
    8.505    6.4244
    8.520    6.3718
    8.535    6.4771
    8.550    6.1611
    8.565    6.5122
    8.580    6.0734
    8.595    6.5122
    8.610    6.9159
    8.625    7.0915
    8.640    6.5824
    8.655    6.1085
    8.670    6.3367
    8.685    6.6526
    8.700    6.8633
    8.715    7.4776
    8.730    6.5824
    8.745    6.7053
    8.760    6.2138
    8.775    6.7930
    8.790    6.5298
    8.805    6.1962
    8.820    6.2665
    8.835    5.9329
    8.850    6.4069
    8.865    5.9329
    8.880    6.1260
    8.895    6.0207
    8.910    5.9505
    8.925    5.7399
    8.940    6.1260
    8.955    6.3542
    8.970    5.7925
    8.985    6.1436
    9.000    6.2489
    9.015    6.3542
    9.030    6.3016
    9.045    6.3367
    9.060    5.8101
    9.075    5.7574
    9.090    5.8627
    9.105    6.0558
    9.120    6.2489
    9.135    6.1260
    9.150    6.1962
    9.165    6.4244
    9.180    5.7925
    9.195    6.4595
    9.210    6.6351
    9.225    6.0734
    9.240    5.9329
    9.255    6.2840
    9.270    6.0207
    9.285    6.2138
    9.300    5.9505
    9.315    5.8101
    9.330    5.9505
    9.345    6.5122
    9.360    6.2313
    9.375    6.6000
    9.390    7.1090
    9.405    6.8633
    9.420    7.3021
    9.435    6.7755
    9.450    7.3021
    9.465    8.2500
    9.480    8.3904
    9.495    9.3031
    9.510   10.2686
    9.525   11.0936
    9.540   10.6372
    9.555   10.4090
    9.570    9.4611
    9.585    9.2856
    9.600    9.3031
    9.615    7.8989
    9.630    7.3372
    9.645    6.4069
    9.660    6.4595
    9.675    6.5298
    9.690    6.1611
    9.705    6.0032
    9.720    6.3367
    9.735    6.0383
    9.750    6.0558
    9.765    5.9154
    9.780    5.8101
    9.795    5.9329
    9.810    5.8627
    9.825    6.2665
    9.840    6.6702
    9.855    6.3016
    9.870    5.9681
    9.885    5.9856
    9.900    6.1085
    9.915    5.8803
    9.930    5.8101
    9.945    5.6872
    9.960    5.9681
    9.975    6.1436
    9.990    6.1962
   10.005    6.2840
   10.020    6.0909
   10.035    6.4420
   10.050    6.0558
   10.065    5.9505
   10.080    6.1260
   10.095    6.3367
   10.110    6.1787
   10.125    6.2840
   10.140    6.3542
   10.155    6.3367
   10.170    6.4420
   10.185    7.3372
   10.200    6.6702
   10.215    6.9159
   10.230    6.6000
   10.245    7.0739
   10.260    6.8984
   10.275    7.1441
   10.290    7.6532
   10.305    7.9867
   10.320    7.9340
   10.335    7.8287
   10.350    7.4601
   10.365    7.0388
   10.380    6.3016
   10.395    6.2665
   10.410    6.8282
   10.425    5.7048
   10.440    5.9681
   10.455    6.1962
   10.470    6.5298
   10.485    6.6877
   10.500    6.0207
   10.515    6.3016
   10.530    6.1787
   10.545    5.7574
   10.560    6.0207
   10.575    6.2138
   10.590    5.6872
   10.605    5.8452
   10.620    6.1787
   10.635    6.0558
   10.650    6.7579
   10.665    6.1787
   10.680    6.0032
   10.695    5.9505
   10.710    6.3191
   10.725    6.4069
   10.740    6.3542
   10.755    6.4771
   10.770    6.5649
   10.785    6.5473
   10.800    6.7579
   10.815    7.0915
   10.830    6.1787
   10.845    6.5122
   10.860    7.1617
   10.875    6.6877
   10.890    6.6000
   10.905    6.8282
   10.920    6.7755
   10.935    6.9510
   10.950    6.8808
   10.965    6.9686
   10.980    7.8287
   10.995    8.0218
   11.010    7.9516
   11.025    8.9345
   11.040    8.2500
   11.055    7.6883
   11.070    7.5478
   11.085    7.0739
   11.100    6.9159
   11.115    6.4595
   11.130    6.5473
   11.145    6.4244
   11.160    6.4595
   11.175    6.1962
   11.190    6.2489
   11.205    6.5473
   11.220    6.5473
   11.235    6.0734
   11.250    6.1085
   11.265    6.0734
   11.280    6.4946
   11.295    6.2313
   11.310    6.3016
   11.325    6.4244
   11.340    6.7930
   11.355    6.0909
   11.370    6.5649
   11.385    6.4771
   11.400    6.1260
   11.415    6.0558
   11.430    5.9681
   11.445    5.9329
   11.460    6.3016
   11.475    6.2665
   11.490    6.1085
   11.505    6.5122
   11.520    6.6000
   11.535    6.9159
   11.550    6.4069
   11.565    6.0734
   11.580    6.3718
   11.595    6.8106
   11.610    6.6175
   11.625    6.9510
   11.640    6.5473
   11.655    7.4776
   11.670    7.2319
   11.685    7.7234
   11.700    8.1973
   11.715    7.8989
   11.730    8.1622
   11.745    7.6707
   11.760    7.2494
   11.775    7.2143
   11.790    6.7579
   11.805    6.4946
   11.820    6.3191
   11.835    6.2313
   11.850    6.3718
   11.865    6.0383
   11.880    6.0383
   11.895    5.9856
   11.910    6.3016
   11.925    6.2840
   11.940    5.8627
   11.955    5.6345
   11.970    6.0032
   11.985    6.1611
   12.000    5.5292
   12.015    6.2489
   12.030    5.8101
   12.045    6.2840
   12.060    6.2489
   12.075    6.1436
   12.090    5.8627
   12.105    6.1611
   12.120    5.7750
   12.135    5.9856
   12.150    5.7399
   12.165    6.2313
   12.180    5.9505
   12.195    5.9856
   12.210    6.3367
   12.225    6.6351
   12.240    5.8627
   12.255    5.5819
   12.270    5.7750
   12.285    6.0734
   12.300    6.1611
   12.315    6.1436
   12.330    6.3542
   12.345    6.5824
   12.360    6.7228
   12.375    6.2840
   12.390    5.8101
   12.405    6.2313
   12.420    5.8452
   12.435    5.8452
   12.450    5.7925
   12.465    6.0734
   12.480    6.0558
   12.495    5.8803
   12.510    5.9505
   12.525    6.3542
   12.540    6.2840
   12.555    5.9856
   12.570    5.9329
   12.585    5.7399
   12.600    5.7750
   12.615    5.9329
   12.630    6.1085
   12.645    5.6521
   12.660    5.8803
   12.675    5.6697
   12.690    5.6170
   12.705    5.9681
   12.720    5.7048
   12.735    5.1782
   12.750    5.1957
   12.765    5.4941
   12.780    5.7574
   12.795    5.3712
   12.810    6.0558
   12.825    6.5298
   12.840    6.2489
   12.855    6.1787
   12.870    6.7053
   12.885    6.8457
   12.900    7.1266
   12.915    7.1090
   12.930    6.8457
   12.945    6.1436
   12.960    6.6351
   12.975    6.8808
   12.990    6.1436
   13.005    5.9681
   13.020    6.4420
   13.035    6.4069
   13.050    5.6697
   13.065    5.4941
   13.080    5.7223
   13.095    6.3016
   13.110    5.8276
   13.125    6.0558
   13.140    5.4415
   13.155    5.7048
   13.170    6.1436
   13.185    5.9329
   13.200    5.7048
   13.215    5.8627
   13.230    5.8101
   13.245    5.7223
   13.260    5.6697
   13.275    5.4239
   13.290    5.7048
   13.305    5.5292
   13.320    5.7574
   13.335    5.3186
   13.350    5.5117
   13.365    5.7925
   13.380    5.8627
   13.395    5.7750
   13.410    6.1436
   13.425    5.9505
   13.440    5.9505
   13.455    6.0207
   13.470    5.7750
   13.485    5.9329
   13.500    6.0032
   13.515    6.2313
   13.530    6.0909
   13.545    5.8101
   13.560    6.3718
   13.575    6.1962
   13.590    6.3191
   13.605    5.8627
   13.620    6.0032
   13.635    6.1085
   13.650    5.9329
   13.665    5.7574
   13.680    5.8101
   13.695    5.4239
   13.710    5.1080
   13.725    5.2308
   13.740    5.3888
   13.755    5.8101
   13.770    5.8978
   13.785    5.8803
   13.800    5.5468
   13.815    5.4415
   13.830    5.5643
   13.845    6.1085
   13.860    6.0032
   13.875    5.8276
   13.890    5.8627
   13.905    5.9856
   13.920    6.7579
   13.935    6.1085
   13.950    5.6345
   13.965    5.8627
   13.980    6.0032
   13.995    6.3718
   14.010    5.9154
   14.025    5.6521
   14.040    6.3016
   14.055    6.0383
   14.070    6.2138
   14.085    7.4952
   14.100    7.1441
   14.115    6.4420
   14.130    6.2138
   14.145    6.4595
   14.160    6.4595
   14.175    6.6000
   14.190    6.0734
   14.205    6.3191
   14.220    6.1436
   14.235    5.8978
   14.250    6.2665
   14.265    6.4946
   14.280    5.7925
   14.295    5.8803
   14.310    5.8978
   14.325    6.0383
   14.340    6.1611
   14.355    6.0558
   14.370    5.8452
   14.385    6.1787
   14.400    5.8627
   14.415    5.9856
   14.430    6.1260
   14.445    6.4771
   14.460    6.4244
   14.475    6.3542
   14.490    5.9329
   14.505    5.8276
   14.520    5.9505
   14.535    5.7048
   14.550    6.5122
   14.565    6.2313
   14.580    5.6872
   14.595    6.1787
   14.610    5.8978
   14.625    6.2840
   14.640    5.9856
   14.655    6.4420
   14.670    5.9681
   14.685    5.9681
   14.700    5.8978
   14.715    5.7048
   14.730    5.3712
   14.745    5.7925
   14.760    5.9856
   14.775    5.6872
   14.790    5.9856
   14.805    6.1436
   14.820    5.8978
   14.835    5.7750
   14.850    5.6521
   14.865    5.6170
   14.880    6.0558
   14.895    5.6697
   14.910    5.6521
   14.925    5.8101
   14.940    5.5117
   14.955    5.8452
   14.970    5.8978
   14.985    5.8452
   15.000    5.5468
   15.015    5.7574
   15.030    5.7750
   15.045    5.9154
   15.060    5.8101
   15.075    5.6170
   15.090    6.0207
   15.105    6.3718
   15.120    5.7048
   15.135    6.3367
   15.150    5.8276
   15.165    5.7925
   15.180    6.3016
   15.195    6.3718
   15.210    6.3893
   15.225    5.4941
   15.240    5.6345
   15.255    5.5994
   15.270    5.9329
   15.285    6.0909
   15.300    5.7399
   15.315    5.7048
   15.330    5.7223
   15.345    5.3361
   15.360    5.6697
   15.375    5.3712
   15.390    5.3888
   15.405    5.5643
   15.420    5.3361
   15.435    5.7925
   15.450    5.5292
   15.465    5.3537
   15.480    5.4941
   15.495    5.4590
   15.510    5.7399
   15.525    5.8452
   15.540    5.7750
   15.555    5.7399
   15.570    5.5292
   15.585    5.6521
   15.600    5.8452
   15.615    6.0383
   15.630    5.6521
   15.645    6.1260
   15.660    5.7925
   15.675    5.4415
   15.690    5.4766
   15.705    5.6697
   15.720    5.3186
   15.735    5.2133
   15.750    5.1431
   15.765    5.5819
   15.780    5.5994
   15.795    5.8452
   15.810    5.8276
   15.825    5.8627
   15.840    5.9329
   15.855    5.5468
   15.870    5.3712
   15.885    4.9675
   15.900    5.6697
   15.915    5.3537
   15.930    5.3712
   15.945    5.6521
   15.960    5.7223
   15.975    5.7048
   15.990    5.4064
   16.005    5.5117
   16.020    5.5643
   16.035    5.6345
   16.050    5.7399
   16.065    5.9329
   16.080    5.8276
   16.095    5.6697
   16.110    5.7574
   16.125    5.6697
   16.140    6.1787
   16.155    5.6521
   16.170    6.3893
   16.185    6.3191
   16.200    5.9505
   16.215    5.5994
   16.230    5.8627
   16.245    5.6170
   16.260    5.1957
   16.275    5.8101
   16.290    6.0032
   16.305    5.3186
   16.320    5.6345
   16.335    5.5819
   16.350    5.9154
   16.365    5.2133
   16.380    5.3712
   16.395    6.0734
   16.410    6.1085
   16.425    5.8978
   16.440    5.4239
   16.455    5.0553
   16.470    5.5643
   16.485    5.6872
   16.500    5.6170
   16.515    5.4239
   16.530    5.7574
   16.545    5.5994
   16.560    6.1085
   16.575    6.0383
   16.590    5.8101
   16.605    5.7750
   16.620    6.0032
   16.635    6.2138
   16.650    5.7750
   16.665    5.8101
   16.680    6.0207
   16.695    5.7048
   16.710    5.9505
   16.725    5.7574
   16.740    5.3888
   16.755    5.4415
   16.770    5.5819
   16.785    5.2835
   16.800    5.3712
   16.815    5.3361
   16.830    5.6170
   16.845    5.3186
   16.860    5.4415
   16.875    5.4941
   16.890    5.6170
   16.905    5.8276
   16.920    5.9329
   16.935    6.2313
   16.950    5.8978
   16.965    5.4239
   16.980    5.2484
   16.995    5.7574
   17.010    5.8627
   17.025    6.3893
   17.040    5.9681
   17.055    6.1085
   17.070    6.0558
   17.085    6.3016
   17.100    6.3016
   17.115    6.1787
   17.130    5.7223
   17.145    5.6872
   17.160    5.5117
   17.175    5.6521
   17.190    5.4239
   17.205    5.8101
   17.220    5.6697
   17.235    5.4590
   17.250    4.9851
   17.265    5.3361
   17.280    5.6170
   17.295    5.7048
   17.310    5.7925
   17.325    5.7399
   17.340    5.4064
   17.355    5.6345
   17.370    5.7399
   17.385    5.5468
   17.400    5.4766
   17.415    5.3186
   17.430    6.0032
   17.445    5.7925
   17.460    5.7399
   17.475    5.3010
   17.490    5.5292
   17.505    6.5298
   17.520    6.0032
   17.535    6.0207
   17.550    6.0909
   17.565    5.7925
   17.580    5.5994
   17.595    5.5468
   17.610    5.4064
   17.625    5.8803
   17.640    5.5994
   17.655    5.4064
   17.670    5.0202
   17.685    5.3537
   17.700    5.5117
   17.715    5.6170
   17.730    5.9505
   17.745    5.6170
   17.760    5.5117
   17.775    5.3186
   17.790    5.4239
   17.805    5.7925
   17.820    5.7223
   17.835    5.6170
   17.850    5.6872
   17.865    5.8803
   17.880    5.9329
   17.895    5.4064
   17.910    5.8452
   17.925    5.9681
   17.940    5.7750
   17.955    5.9329
   17.970    5.2659
   17.985    5.8452
   18.000    5.7750
   18.015    5.6345
   18.030    5.4941
   18.045    5.6872
   18.060    5.3186
   18.075    5.8101
   18.090    5.7750
   18.105    5.6345
   18.120    5.7574
   18.135    5.6872
   18.150    5.8627
   18.165    5.6872
   18.180    5.4590
   18.195    5.5819
   18.210    5.7925
   18.225    5.7925
   18.240    5.6697
   18.255    6.0383
   18.270    5.6521
   18.285    5.3537
   18.300    5.4064
   18.315    5.3361
   18.330    5.2835
   18.345    5.3888
   18.360    5.7048
   18.375    5.9154
   18.390    5.6345
   18.405    5.8452
   18.420    5.8276
   18.435    5.6345
   18.450    5.6697
   18.465    5.2835
   18.480    5.3010
   18.495    5.6170
   18.510    5.4941
   18.525    5.6872
   18.540    5.9681
   18.555    5.1080
   18.570    5.2659
   18.585    5.4415
   18.600    5.5292
   18.615    5.5819
   18.630    5.4415
   18.645    4.8447
   18.660    5.1782
   18.675    5.8627
   18.690    5.0728
   18.705    5.1957
   18.720    5.5994
   18.735    5.8978
   18.750    5.7925
   18.765    5.7048
   18.780    5.5117
   18.795    5.2133
   18.810    5.6521
   18.825    5.4064
   18.840    5.3186
   18.855    5.4415
   18.870    5.2308
   18.885    5.0728
   18.900    5.4415
   18.915    5.3010
   18.930    5.0904
   18.945    5.3888
   18.960    5.5994
   18.975    5.4415
   18.990    5.5292
   19.005    5.7223
   19.020    5.6345
   19.035    5.5819
   19.050    5.3186
   19.065    5.3537
   19.080    5.3361
   19.095    5.0202
   19.110    5.6170
   19.125    5.5819
   19.140    5.4239
   19.155    5.7750
   19.170    5.5643
   19.185    5.8627
   19.200    5.1606
   19.215    5.4941
   19.230    5.4064
   19.245    5.2308
   19.260    5.4239
   19.275    5.1431
   19.290    5.0202
   19.305    5.4941
   19.320    5.5117
   19.335    5.5643
   19.350    5.5994
   19.365    5.3537
   19.380    5.0202
   19.395    5.6697
   19.410    5.3712
   19.425    5.3186
   19.440    5.5994
   19.455    5.5117
   19.470    5.7048
   19.485    5.0553
   19.500    5.1080
   19.515    4.9500
   19.530    5.0904
   19.545    5.1431
   19.560    4.9675
   19.575    5.5117
   19.590    5.5117
   19.605    5.2659
   19.620    5.5819
   19.635    6.0032
   19.650    5.2484
   19.665    5.5994
   19.680    5.3361
   19.695    5.3888
   19.710    5.1957
   19.725    5.1255
   19.740    5.5819
   19.755    5.3361
   19.770    5.3537
   19.785    4.8798
   19.800    5.0026
   19.815    5.2484
   19.830    5.4766
   19.845    5.0553
   19.860    5.1782
   19.875    4.8622
   19.890    5.2484
   19.905    5.0202
   19.920    5.1431
   19.935    5.2659
   19.950    5.2835
   19.965    5.4941
   19.980    5.4590
   19.995    5.2835
   20.010    5.3712
   20.025    4.8798
   20.040    4.9324
   20.055    5.0026
   20.070    5.0553
   20.085    5.4415
   20.100    5.7574
   20.115    5.2308
   20.130    4.8095
   20.145    4.7042
   20.160    5.0904
   20.175    5.1431
   20.190    5.2308
   20.205    4.6516
   20.220    5.0377
   20.235    5.1080
   20.250    5.3010
   20.265    5.3537
   20.280    5.6170
   20.295    5.4415
   20.310    5.5994
   20.325    5.7048
   20.340    5.6170
   20.355    5.5292
   20.370    5.7223
   20.385    5.8803
   20.400    6.3016
   20.415    6.4244
   20.430    5.9856
   20.445    5.7574
   20.460    5.2659
   20.475    4.9675
   20.490    5.5819
   20.505    5.4064
   20.520    5.3361
   20.535    5.1957
   20.550    5.5643
   20.565    5.0553
   20.580    4.9500
   20.595    5.1080
   20.610    4.7218
   20.625    5.0202
   20.640    5.0728
   20.655    5.4590
   20.670    5.3186
   20.685    4.9149
   20.700    4.8447
   20.715    4.9149
   20.730    5.2308
   20.745    5.2484
   20.760    5.3010
   20.775    5.1431
   20.790    4.8271
   20.805    5.1080
   20.820    5.4239
   20.835    5.4239
   20.850    5.0377
   20.865    4.9324
   20.880    5.2484
   20.895    4.9149
   20.910    5.0202
   20.925    5.2308
   20.940    5.4766
   20.955    5.1606
   20.970    5.0904
   20.985    4.7218
   21.000    4.8973
   21.015    4.7920
   21.030    4.7569
   21.045    5.0553
   21.060    4.9675
   21.075    4.5989
   21.090    5.2659
   21.105    5.0728
   21.120    4.8798
   21.135    4.9149
   21.150    4.8973
   21.165    4.9675
   21.180    4.9149
   21.195    4.9149
   21.210    4.5287
   21.225    4.7042
   21.240    4.9675
   21.255    5.3888
   21.270    5.0553
   21.285    4.6691
   21.300    4.8622
   21.315    4.9324
   21.330    5.4766
   21.345    5.1606
   21.360    4.9500
   21.375    4.8447
   21.390    5.1431
   21.405    5.3537
   21.420    5.3712
   21.435    5.5292
   21.450    5.0904
   21.465    5.1606
   21.480    5.0202
   21.495    5.5117
   21.510    4.8622
   21.525    4.4234
   21.540    4.7744
   21.555    4.9851
   21.570    5.2659
   21.585    5.0904
   21.600    5.0553
   21.615    5.1080
   21.630    4.9675
   21.645    4.8447
   21.660    5.1431
   21.675    5.3361
   21.690    4.9324
   21.705    4.9500
   21.720    4.9149
   21.735    4.4234
   21.750    4.8447
   21.765    5.0026
   21.780    4.9149
   21.795    5.2308
   21.810    5.4239
   21.825    5.6345
   21.840    5.6170
   21.855    5.7925
   21.870    5.5819
   21.885    5.1080
   21.900    5.4590
   21.915    5.7399
   21.930    5.5994
   21.945    4.9500
   21.960    4.8447
   21.975    5.3361
   21.990    4.8095
   22.005    4.7042
   22.020    4.3883
   22.035    4.8973
   22.050    4.9500
   22.065    4.6516
   22.080    4.6691
   22.095    4.8447
   22.110    5.1782
   22.125    5.2308
   22.140    5.0553
   22.155    5.0026
   22.170    5.0553
   22.185    5.3888
   22.200    5.4415
   22.215    5.2133
   22.230    4.7920
   22.245    5.0553
   22.260    5.1782
   22.275    4.8973
   22.290    4.7569
   22.305    4.8798
   22.320    5.2308
   22.335    5.2659
   22.350    5.2133
   22.365    5.1431
   22.380    4.8095
   22.395    4.7920
   22.410    4.7393
   22.425    4.8447
   22.440    5.1255
   22.455    4.8973
   22.470    5.2308
   22.485    4.8798
   22.500    5.0904
   22.515    5.0553
   22.530    5.2133
   22.545    5.3712
   22.560    5.5468
   22.575    6.0383
   22.590    6.0558
   22.605    5.8803
   22.620    5.5468
   22.635    5.2133
   22.650    5.5117
   22.665    5.1431
   22.680    4.9851
   22.695    5.2308
   22.710    4.8095
   22.725    4.7042
   22.740    4.7744
   22.755    4.6691
   22.770    4.5989
   22.785    4.7569
   22.800    5.0202
   22.815    5.2659
   22.830    5.0026
   22.845    4.7920
   22.860    4.8095
   22.875    5.6345
   22.890    5.5292
   22.905    5.9681
   22.920    5.8452
   22.935    6.1085
   22.950    5.5468
   22.965    5.4590
   22.980    5.6170
   22.995    5.5117
   23.010    5.0904
   23.025    5.0728
   23.040    5.2133
   23.055    4.9149
   23.070    4.8798
   23.085    5.0377
   23.100    5.0202
   23.115    4.4936
   23.130    4.7569
   23.145    4.5287
   23.160    4.8271
   23.175    4.9324
   23.190    4.8973
   23.205    5.2835
   23.220    4.8622
   23.235    5.0377
   23.250    5.3712
   23.265    4.8095
   23.280    5.0728
   23.295    4.9500
   23.310    5.0202
   23.325    5.4415
   23.340    4.7218
   23.355    4.1074
   23.370    4.4409
   23.385    4.9675
   23.400    4.9500
   23.415    4.7569
   23.430    4.9851
   23.445    4.8095
   23.460    4.9675
   23.475    4.4760
   23.490    4.7744
   23.505    5.0904
   23.520    4.6867
   23.535    5.0202
   23.550    5.2835
   23.565    5.3712
   23.580    5.1080
   23.595    5.1080
   23.610    4.9149
   23.625    4.1952
   23.640    4.4936
   23.655    5.0553
   23.670    5.2484
   23.685    4.4409
   23.700    4.5463
   23.715    5.2133
   23.730    4.9324
   23.745    4.7920
   23.760    4.5638
   23.775    4.5287
   23.790    4.6340
   23.805    4.2478
   23.820    4.7218
   23.835    4.8447
   23.850    4.9149
   23.865    4.9851
   23.880    4.6165
   23.895    5.0026
   23.910    4.8622
   23.925    4.7569
   23.940    4.8798
   23.955    4.6691
   23.970    4.6867
   23.985    4.9324
   24.000    4.5814
   24.015    4.6165
   24.030    5.0904
   24.045    4.5989
   24.060    4.5638
   24.075    4.8095
   24.090    4.8973
   24.105    4.3532
   24.120    4.8271
   24.135    5.0026
   24.150    4.4409
   24.165    4.4585
   24.180    4.4585
   24.195    4.3883
   24.210    4.5111
   24.225    4.3181
   24.240    4.5638
   24.255    4.5814
   24.270    4.6691
   24.285    4.4936
   24.300    4.5111
   24.315    4.3883
   24.330    4.1952
   24.345    4.2127
   24.360    4.6691
   24.375    4.4409
   24.390    4.2654
   24.405    4.2127
   24.420    4.3883
   24.435    4.1425
   24.450    4.4234
   24.465    4.4234
   24.480    4.4760
   24.495    4.5638
   24.510    4.3005
   24.525    4.4585
   24.540    4.6691
   24.555    4.7920
   24.570    4.6165
   24.585    4.7393
   24.600    4.6691
   24.615    4.7042
   24.630    4.6867
   24.645    4.2830
   24.660    4.4409
   24.675    4.6340
   24.690    4.2478
   24.705    4.4585
   24.720    4.7920
   24.735    4.5463
   24.750    4.8095
   24.765    4.2830
   24.780    4.4409
   24.795    4.5638
   24.810    4.3707
   24.825    4.5287
   24.840    4.3532
   24.855    4.5814
   24.870    4.5463
   24.885    4.4058
   24.900    4.0197
   24.915    4.0197
   24.930    4.5638
   24.945    4.5814
   24.960    4.7569
   24.975    4.2654
   24.990    4.7393
   25.005    4.5463
   25.020    4.2127
   25.035    4.3883
   25.050    4.5638
   25.065    4.2654
   25.080    4.5814
   25.095    4.4936
   25.110    4.4409
   25.125    4.5287
   25.140    4.4936
   25.155    4.2654
   25.170    4.5989
   25.185    4.5287
   25.200    4.3883
   25.215    4.1250
   25.230    4.4234
   25.245    4.5638
   25.260    4.1601
   25.275    4.6867
   25.290    4.4760
   25.305    4.1074
   25.320    4.3532
   25.335    4.1425
   25.350    4.2654
   25.365    4.3707
   25.380    4.5111
   25.395    4.4409
   25.410    4.4585
   25.425    4.4409
   25.440    4.0899
   25.455    4.7920
   25.470    4.6165
   25.485    4.5111
   25.500    4.4409
   25.515    4.7744
   25.530    4.7218
   25.545    4.6867
   25.560    4.3005
   25.575    4.1250
   25.590    4.5989
   25.605    4.3005
   25.620    4.3181
   25.635    4.4234
   25.650    4.6165
   25.665    4.2830
   25.680    4.0899
   25.695    4.4585
   25.710    4.4409
   25.725    4.3883
   25.740    4.5989
   25.755    4.5989
   25.770    4.7393
   25.785    4.5111
   25.800    4.5287
   25.815    4.4936
   25.830    5.1957
   25.845    4.8095
   25.860    4.6691
   25.875    4.6165
   25.890    4.5111
   25.905    4.6691
   25.920    4.4409
   25.935    4.3883
   25.950    4.3005
   25.965    4.2478
   25.980    4.4409
   25.995    4.5989
   26.010    4.4585
   26.025    4.1952
   26.040    4.3181
   26.055    4.5989
   26.070    4.1776
   26.085    4.1952
   26.100    4.1074
   26.115    4.4760
   26.130    4.2830
   26.145    4.3181
   26.160    4.1776
   26.175    4.2303
   26.190    4.1601
   26.205    4.1776
   26.220    4.3707
   26.235    3.9494
   26.250    4.3181
   26.265    4.2478
   26.280    4.4760
   26.295    4.0723
   26.310    4.0548
   26.325    4.1425
   26.340    4.3005
   26.355    4.1425
   26.370    3.7564
   26.385    4.2127
   26.400    4.2830
   26.415    4.3181
   26.430    4.2654
   26.445    4.0197
   26.460    4.3883
   26.475    4.4058
   26.490    4.3707
   26.505    4.1074
   26.520    4.1074
   26.535    3.9494
   26.550    3.7388
   26.565    4.0021
   26.580    4.4760
   26.595    4.1952
   26.610    4.0899
   26.625    4.0899
   26.640    4.3883
   26.655    4.4058
   26.670    4.3532
   26.685    4.2303
   26.700    4.0372
   26.715    4.1601
   26.730    4.5989
   26.745    4.1425
   26.760    4.1601
   26.775    3.9494
   26.790    4.1250
   26.805    4.1425
   26.820    3.6510
   26.835    3.9670
   26.850    3.7739
   26.865    3.7739
   26.880    3.8441
   26.895    4.3005
   26.910    4.2654
   26.925    4.0723
   26.940    4.5111
   26.955    4.2478
   26.970    4.1601
   26.985    4.2830
   27.000    4.3707
   27.015    4.4585
   27.030    3.8968
   27.045    4.5111
   27.060    4.3005
   27.075    4.1776
   27.090    4.4585
   27.105    4.3532
   27.120    4.5287
   27.135    4.4409
   27.150    3.7564
   27.165    4.2127
   27.180    3.8792
   27.195    4.0197
   27.210    4.2303
   27.225    4.1952
   27.240    4.0548
   27.255    3.6335
   27.270    3.9670
   27.285    3.8090
   27.300    4.0548
   27.315    3.9319
   27.330    3.5106
   27.345    3.7564
   27.360    3.6335
   27.375    3.6862
   27.390    4.0197
   27.405    3.9846
   27.420    3.8266
   27.435    4.0197
   27.450    3.8968
   27.465    3.9319
   27.480    4.1776
   27.495    4.2303
   27.510    4.2127
   27.525    4.0021
   27.540    4.2654
   27.555    4.2478
   27.570    4.0372
   27.585    3.8792
   27.600    4.1601
   27.615    4.2830
   27.630    4.2830
   27.645    4.1074
   27.660    4.4409
   27.675    4.4058
   27.690    3.8968
   27.705    4.0548
   27.720    3.6159
   27.735    3.9319
   27.750    3.9143
   27.765    3.6862
   27.780    3.7388
   27.795    4.0548
   27.810    3.8968
   27.825    3.6686
   27.840    4.2127
   27.855    3.9846
   27.870    3.7739
   27.885    3.9846
   27.900    3.8441
   27.915    4.2478
   27.930    4.2127
   27.945    4.1074
   27.960    4.1074
   27.975    4.0197
   27.990    3.8968
   28.005    3.7915
   28.020    3.8617
   28.035    4.2303
   28.050    3.9494
   28.065    4.1601
   28.080    4.3181
   28.095    4.2303
   28.110    4.0548
   28.125    4.0548
   28.140    4.0197
   28.155    4.4760
   28.170    4.2654
   28.185    4.3532
   28.200    3.9494
   28.215    4.3707
   28.230    4.4234
   28.245    4.0548
   28.260    4.1776
   28.275    3.8441
   28.290    3.8968
   28.305    4.2127
   28.320    3.9494
   28.335    3.6686
   28.350    3.7915
   28.365    4.2303
   28.380    3.8441
   28.395    3.6862
   28.410    3.9319
   28.425    4.3883
   28.440    4.3005
   28.455    4.0548
   28.470    4.0372
   28.485    4.2478
   28.500    3.8968
   28.515    3.6510
   28.530    3.9494
   28.545    3.9670
   28.560    3.7037
   28.575    3.5457
   28.590    3.6862
   28.605    3.9670
   28.620    3.7915
   28.635    3.6686
   28.650    3.7739
   28.665    3.9143
   28.680    3.5633
   28.695    3.8090
   28.710    3.7388
   28.725    4.0723
   28.740    3.9494
   28.755    3.8968
   28.770    4.3707
   28.785    4.1250
   28.800    3.9846
   28.815    4.2830
   28.830    3.8792
   28.845    3.7388
   28.860    3.7037
   28.875    3.6335
   28.890    3.7037
   28.905    3.5282
   28.920    4.1952
   28.935    4.1776
   28.950    4.0899
   28.965    3.7564
   28.980    3.7388
   28.995    4.3532
   29.010    4.1776
   29.025    4.1425
   29.040    3.8968
   29.055    4.3883
   29.070    4.0021
   29.085    4.4058
   29.100    4.4409
   29.115    4.0899
   29.130    3.7739
   29.145    3.9494
   29.160    3.9143
   29.175    3.8441
   29.190    4.1601
   29.205    3.8441
   29.220    4.0372
   29.235    3.8968
   29.250    3.7739
   29.265    3.6335
   29.280    3.5984
   29.295    3.7037
   29.310    3.7037
   29.325    3.5106
   29.340    3.8090
   29.355    3.8968
   29.370    3.8792
   29.385    3.9319
   29.400    3.8968
   29.415    3.2649
   29.430    3.7564
   29.445    3.5282
   29.460    3.5633
   29.475    3.5808
   29.490    3.5106
   29.505    4.0372
   29.520    3.8617
   29.535    3.3877
   29.550    3.4931
   29.565    3.7739
   29.580    3.9846
   29.595    3.4931
   29.610    3.3000
   29.625    3.6510
   29.640    3.7037
   29.655    3.8968
   29.670    3.5106
   29.685    3.4580
   29.700    3.3175
   29.715    3.4580
   29.730    3.5282
   29.745    3.7739
   29.760    3.3877
   29.775    3.3000
   29.790    3.6510
   29.805    3.5282
   29.820    3.9494
   29.835    3.5282
   29.850    3.4229
   29.865    3.7213
   29.880    3.9143
   29.895    3.5633
   29.910    3.5457
   29.925    3.8090
   29.940    3.2122
   29.955    3.4404
   29.970    3.6159
   29.985    3.5106
   30.000    3.6335
   30.015    3.4229
   30.030    3.5984
   30.045    3.2649
   30.060    3.2649
   30.075    3.4580
   30.090    3.5282
   30.105    3.7564
   30.120    3.1596
   30.135    3.3351
   30.150    3.1947
   30.165    3.0718
   30.180    3.6159
   30.195    3.9319
   30.210    3.7564
   30.225    3.3877
   30.240    2.9489
   30.255    3.2649
   30.270    3.3702
   30.285    3.4404
   30.300    3.5457
   30.315    3.6862
   30.330    3.8792
   30.345    3.8266
   30.360    3.5282
   30.375    3.0016
   30.390    3.4229
   30.405    3.5282
   30.420    3.7739
   30.435    3.7037
   30.450    3.4053
   30.465    3.1596
   30.480    3.5984
   30.495    3.4229
   30.510    3.3000
   30.525    3.4053
   30.540    3.3000
   30.555    3.7213
   30.570    3.1947
   30.585    3.3702
   30.600    3.5808
   30.615    3.2122
   30.630    3.4404
   30.645    3.2473
   30.660    3.4580
   30.675    3.4404
   30.690    3.4931
   30.705    3.7564
   30.720    3.5984
   30.735    3.4404
   30.750    3.7213
   30.765    3.3351
   30.780    3.4580
   30.795    3.5984
   30.810    3.9494
   30.825    3.5633
   30.840    3.4404
   30.855    3.3877
   30.870    3.2649
   30.885    3.2649
   30.900    3.3175
   30.915    3.5633
   30.930    3.5106
   30.945    3.3702
   30.960    3.5808
   30.975    3.6159
   30.990    3.5106
   31.005    2.9489
   31.020    2.9489
   31.035    3.0016
   31.050    3.0542
   31.065    3.0367
   31.080    2.8436
   31.095    3.3877
   31.110    3.4931
   31.125    3.0542
   31.140    3.4404
   31.155    3.4755
   31.170    3.2122
   31.185    3.3000
   31.200    3.5633
   31.215    3.3175
   31.230    3.4229
   31.245    3.1947
   31.260    3.0191
   31.275    3.1596
   31.290    3.3702
   31.305    3.4404
   31.320    3.4404
   31.335    3.0016
   31.350    3.0542
   31.365    3.1069
   31.380    2.9665
   31.395    3.0367
   31.410    3.2473
   31.425    3.8792
   31.440    3.6686
   31.455    3.5457
   31.470    3.2473
   31.485    3.4053
   31.500    3.5984
   31.515    3.2649
   31.530    3.1596
   31.545    3.1771
   31.560    3.2824
   31.575    3.1771
   31.590    2.6330
   31.605    2.9489
   31.620    3.2649
   31.635    3.2473
   31.650    3.6159
   31.665    3.4580
   31.680    3.3702
   31.695    3.3877
   31.710    3.6510
   31.725    3.9319
   31.740    4.2303
   31.755    4.2478
   31.770    4.9675
   31.785    4.7920
   31.800    4.4234
   31.815    3.9846
   31.830    4.1250
   31.845    3.4580
   31.860    3.3175
   31.875    3.5633
   31.890    3.2824
   31.905    3.0542
   31.920    3.3702
   31.935    3.9319
   31.950    3.5282
   31.965    3.5282
   31.980    3.4053
   31.995    3.5106
   32.010    3.1420
   32.025    3.0542
   32.040    3.3175
   32.055    3.2824
   32.070    2.7383
   32.085    3.0893
   32.100    3.1947
   32.115    3.2649
   32.130    3.1771
   32.145    3.1420
   32.160    3.1596
   32.175    3.0016
   32.190    2.8612
   32.205    3.2473
   32.220    3.3877
   32.235    3.3526
   32.250    3.4580
   32.265    3.4580
   32.280    2.9489
   32.295    3.0893
   32.310    2.9489
   32.325    2.9489
   32.340    2.6154
   32.355    2.7558
   32.370    3.0367
   32.385    3.0893
   32.400    3.1596
   32.415    3.3877
   32.430    2.9314
   32.445    3.0542
   32.460    3.3175
   32.475    3.2473
   32.490    3.3000
   32.505    3.1069
   32.520    3.1596
   32.535    2.8436
   32.550    2.8612
   32.565    3.4404
   32.580    2.9138
   32.595    2.8612
   32.610    3.4229
   32.625    3.0542
   32.640    3.0191
   32.655    3.1596
   32.670    2.7383
   32.685    3.1420
   32.700    2.8436
   32.715    3.2122
   32.730    3.2824
   32.745    2.8787
   32.760    3.0718
   32.775    3.1596
   32.790    3.1420
   32.805    3.4404
   32.820    3.2298
   32.835    3.1069
   32.850    3.2122
   32.865    3.0367
   32.880    3.2649
   32.895    2.9314
   32.910    3.2824
   32.925    3.1069
   32.940    2.9665
   32.955    3.2824
   32.970    3.1245
   32.985    3.1420
   33.000    3.7213
   33.015    3.2298
   33.030    3.0718
   33.045    2.8612
   33.060    3.2122
   33.075    3.2473
   33.090    3.2649
   33.105    2.9840
   33.120    2.9489
   33.135    2.9665
   33.150    3.0893
   33.165    2.9138
   33.180    3.0718
   33.195    3.2473
   33.210    3.2298
   33.225    3.1245
   33.240    2.8260
   33.255    3.0718
   33.270    2.5979
   33.285    2.6330
   33.300    2.9840
   33.315    3.2473
   33.330    3.1947
   33.345    3.1245
   33.360    3.0191
   33.375    2.8085
   33.390    2.9665
   33.405    3.0016
   33.420    2.8963
   33.435    3.0016
   33.450    3.1420
   33.465    2.9840
   33.480    2.9138
   33.495    3.1947
   33.510    2.9489
   33.525    2.8963
   33.540    2.9840
   33.555    3.1069
   33.570    2.8085
   33.585    2.7558
   33.600    2.9665
   33.615    2.7909
   33.630    3.0016
   33.645    2.7909
   33.660    3.0542
   33.675    2.8085
   33.690    2.8612
   33.705    3.1245
   33.720    2.8612
   33.735    3.0718
   33.750    2.9489
   33.765    3.3175
   33.780    3.3175
   33.795    3.1596
   33.810    2.7207
   33.825    3.0542
   33.840    2.8085
   33.855    2.7207
   33.870    3.1069
   33.885    2.8963
   33.900    3.3702
   33.915    3.4053
   33.930    3.8090
   33.945    3.8792
   33.960    4.0372
   33.975    3.7915
   33.990    3.4755
   34.005    3.0718
   34.020    3.1771
   34.035    3.0542
   34.050    3.1420
   34.065    3.1771
   34.080    2.9314
   34.095    2.7558
   34.110    2.8260
   34.125    3.0367
   34.140    3.0016
   34.155    2.9840
   34.170    2.9314
   34.185    2.8436
   34.200    2.8085
   34.215    2.8436
   34.230    2.8963
   34.245    3.1420
   34.260    2.8612
   34.275    2.8085
   34.290    2.9138
   34.305    2.7909
   34.320    3.2473
   34.335    3.3877
   34.350    2.7558
   34.365    2.9665
   34.380    2.7909
   34.395    2.7558
   34.410    3.1069
   34.425    2.9840
   34.440    3.0367
   34.455    2.9840
   34.470    2.7734
   34.485    3.0718
   34.500    2.9840
   34.515    2.8260
   34.530    2.8787
   34.545    2.8963
   34.560    2.8260
   34.575    2.8085
   34.590    2.9138
   34.605    2.7909
   34.620    2.6856
   34.635    2.7909
   34.650    2.9840
   34.665    2.7032
   34.680    3.0893
   34.695    3.1069
   34.710    2.8787
   34.725    2.8085
   34.740    3.0367
   34.755    2.9489
   34.770    3.1245
   34.785    3.1596
   34.800    2.9840
   34.815    2.8963
   34.830    2.6681
   34.845    2.8436
   34.860    3.4580
   34.875    3.1596
   34.890    3.3351
   34.905    3.0367
   34.920    3.0367
   34.935    2.7383
   34.950    2.7558
   34.965    2.9138
   34.980    2.6154
   34.995    2.8085
   35.010    2.8612
   35.025    3.0191
   35.040    2.7558
   35.055    3.1771
   35.070    2.6856
   35.085    2.7383
   35.100    3.0718
   35.115    2.6154
   35.130    2.7734
   35.145    2.7734
   35.160    2.9314
   35.175    3.0893
   35.190    3.0191
   35.205    2.7383
   35.220    2.8963
   35.235    3.0542
   35.250    2.8787
   35.265    3.0542
   35.280    2.9138
   35.295    3.3175
   35.310    2.8260
   35.325    2.9314
   35.340    3.0016
   35.355    2.8260
   35.370    2.7032
   35.385    2.7558
   35.400    3.0191
   35.415    2.9665
   35.430    2.9840
   35.445    2.8085
   35.460    3.0542
   35.475    2.6154
   35.490    2.5276
   35.505    2.5276
   35.520    2.7207
   35.535    2.8436
   35.550    2.9665
   35.565    2.9138
   35.580    2.7734
   35.595    2.8963
   35.610    2.8436
   35.625    3.3000
   35.640    2.9665
   35.655    2.9138
   35.670    2.8260
   35.685    2.7383
   35.700    2.9840
   35.715    3.4229
   35.730    3.0191
   35.745    2.8260
   35.760    3.0893
   35.775    2.7383
   35.790    2.8085
   35.805    3.0191
   35.820    2.7558
   35.835    2.9840
   35.850    2.7032
   35.865    2.8787
   35.880    2.5628
   35.895    2.6856
   35.910    2.8436
   35.925    3.0542
   35.940    3.0016
   35.955    3.2298
   35.970    3.0542
   35.985    3.1069
   36.000    2.7734
   36.015    3.0191
   36.030    3.1069
   36.045    3.1245
   36.060    2.8612
   36.075    2.9314
   36.090    2.9489
   36.105    3.0367
   36.120    3.0718
   36.135    2.7383
   36.150    2.8085
   36.165    2.6505
   36.180    2.7032
   36.195    2.7734
   36.210    2.6681
   36.225    2.5803
   36.240    2.5101
   36.255    2.4223
   36.270    2.7383
   36.285    3.1596
   36.300    2.8612
   36.315    3.0542
   36.330    2.8963
   36.345    3.0016
   36.360    2.8436
   36.375    2.9138
   36.390    3.1420
   36.405    2.8085
   36.420    3.0893
   36.435    2.7734
   36.450    2.4925
   36.465    3.0016
   36.480    2.9138
   36.495    2.8436
   36.510    2.9840
   36.525    2.8436
   36.540    2.9314
   36.555    2.8963
   36.570    2.7909
   36.585    2.8787
   36.600    2.9665
   36.615    2.8612
   36.630    2.8612
   36.645    3.0367
   36.660    3.0191
   36.675    3.0893
   36.690    3.0542
   36.705    3.1069
   36.720    2.9665
   36.735    2.9314
   36.750    2.9489
   36.765    2.6330
   36.780    2.8787
   36.795    2.8787
   36.810    2.7207
   36.825    2.6681
   36.840    3.0542
   36.855    2.8963
   36.870    2.9489
   36.885    2.8436
   36.900    3.0016
   36.915    2.5979
   36.930    3.0718
   36.945    2.9665
   36.960    3.0016
   36.975    2.7558
   36.990    2.4048
   37.005    2.5803
   37.020    2.8963
   37.035    2.9489
   37.050    2.7383
   37.065    2.8787
   37.080    2.6505
   37.095    3.2649
   37.110    3.3351
   37.125    2.8436
   37.140    3.1245
   37.155    3.1947
   37.170    2.7383
   37.185    3.0718
   37.200    2.8085
   37.215    2.9314
   37.230    2.8260
   37.245    2.9314
   37.260    2.9665
   37.275    2.8436
   37.290    2.5628
   37.305    2.4223
   37.320    2.5452
   37.335    2.5803
   37.350    2.8787
   37.365    2.4925
   37.380    2.6681
   37.395    3.0542
   37.410    3.0542
   37.425    3.0542
   37.440    3.0016
   37.455    3.0367
   37.470    2.5276
   37.485    2.6505
   37.500    2.6154
   37.515    2.7207
   37.530    2.6330
   37.545    2.5276
   37.560    3.0542
   37.575    3.5282
   37.590    3.1069
   37.605    2.8963
   37.620    2.8260
   37.635    2.8085
   37.650    2.7207
   37.665    2.5101
   37.680    2.6856
   37.695    2.8963
   37.710    2.7032
   37.725    2.9489
   37.740    2.7032
   37.755    3.2473
   37.770    3.0542
   37.785    3.1947
   37.800    3.1420
   37.815    2.8787
   37.830    2.7383
   37.845    2.6154
   37.860    2.7734
   37.875    3.0542
   37.890    3.0016
   37.905    2.7207
   37.920    2.9314
   37.935    2.9489
   37.950    3.0191
   37.965    2.5276
   37.980    2.9138
   37.995    2.7909
   38.010    2.9489
   38.025    2.8085
   38.040    2.7734
   38.055    2.6154
   38.070    3.0367
   38.085    2.6330
   38.100    2.4399
   38.115    2.5979
   38.130    3.1069
   38.145    2.5628
   38.160    2.8260
   38.175    2.7734
   38.190    2.6154
   38.205    2.3872
   38.220    2.6856
   38.235    3.0016
   38.250    2.7383
   38.265    2.6681
   38.280    2.7032
   38.295    2.7207
   38.310    2.6505
   38.325    2.6330
   38.340    2.5101
   38.355    2.3521
   38.370    2.5276
   38.385    2.4574
   38.400    2.5979
   38.415    2.8787
   38.430    3.0718
   38.445    2.5803
   38.460    2.9314
   38.475    2.5803
   38.490    3.4580
   38.505    3.1245
   38.520    2.5979
   38.535    2.5803
   38.550    2.5276
   38.565    2.4925
   38.580    2.8787
   38.595    2.9314
   38.610    2.4925
   38.625    2.7207
   38.640    2.9314
   38.655    2.7207
   38.670    2.6856
   38.685    2.6154
   38.700    2.8612
   38.715    2.6154
   38.730    2.5452
   38.745    2.6681
   38.760    2.7909
   38.775    2.7383
   38.790    2.6330
   38.805    2.9138
   38.820    2.7032
   38.835    2.7734
   38.850    2.6330
   38.865    2.6505
   38.880    2.6856
   38.895    2.8612
   38.910    2.9840
   38.925    2.7383
   38.940    2.8260
   38.955    2.8436
   38.970    2.7558
   38.985    2.8436
   39.000    2.8963
   39.015    2.6681
   39.030    2.4574
   39.045    2.4925
   39.060    2.9665
   39.075    3.0191
   39.090    2.8436
   39.105    2.8963
   39.120    2.4223
   39.135    2.9138
   39.150    2.9138
   39.165    2.9489
   39.180    2.9665
   39.195    2.7734
   39.210    2.7383
   39.225    2.4399
   39.240    2.3872
   39.255    2.7383
   39.270    2.7558
   39.285    2.5803
   39.300    2.9314
   39.315    2.7032
   39.330    2.5628
   39.345    2.8436
   39.360    3.0542
   39.375    2.8260
   39.390    2.7207
   39.405    2.4048
   39.420    2.6505
   39.435    2.7207
   39.450    2.7032
   39.465    2.8260
   39.480    2.6681
   39.495    2.5452
   39.510    2.6154
   39.525    2.8787
   39.540    2.2468
   39.555    2.6154
   39.570    2.7383
   39.585    2.5803
   39.600    2.9665
   39.615    2.8963
   39.630    2.9840
   39.645    3.2473
   39.660    2.9665
   39.675    2.4574
   39.690    2.7383
   39.705    2.6681
   39.720    2.7207
   39.735    2.9314
   39.750    2.9489
   39.765    2.8085
   39.780    2.8436
   39.795    2.6856
   39.810    2.7383
   39.825    2.7032
   39.840    2.5276
   39.855    2.7032
   39.870    2.8436
   39.885    2.4399
   39.900    2.6505
   39.915    2.8260
   39.930    2.8612
   39.945    2.8085
   39.960    2.7909
   39.975    2.6505
   39.990    3.1069
