    1.500    6.5824
    1.515    6.8106
    1.530    6.3718
    1.545    6.3542
    1.560    6.1611
    1.575    6.7579
    1.590    6.7930
    1.605    6.6351
    1.620    6.4946
    1.635    6.3367
    1.650    6.7579
    1.665    5.7750
    1.680    6.1787
    1.695    6.2489
    1.710    6.2665
    1.725    5.7574
    1.740    5.2835
    1.755    5.7574
    1.770    6.4771
    1.785    6.0383
    1.800    6.3718
    1.815    6.1085
    1.830    5.7925
    1.845    5.8276
    1.860    5.6521
    1.875    5.7223
    1.890    5.2835
    1.905    5.6697
    1.920    5.9856
    1.935    5.7750
    1.950    5.6170
    1.965    5.1957
    1.980    5.4941
    1.995    5.5117
    2.010    5.4766
    2.025    5.0202
    2.040    5.0377
    2.055    5.4239
    2.070    4.9675
    2.085    5.1957
    2.100    5.1431
    2.115    4.8622
    2.130    5.1431
    2.145    5.1431
    2.160    4.9500
    2.175    4.8973
    2.190    5.3361
    2.205    5.3361
    2.220    5.2308
    2.235    5.1957
    2.250    4.7569
    2.265    5.1606
    2.280    5.0904
    2.295    5.0202
    2.310    5.2484
    2.325    5.0553
    2.340    5.0202
    2.355    4.8447
    2.370    5.0728
    2.385    4.9675
    2.400    4.9324
    2.415    4.6691
    2.430    4.5463
    2.445    4.5463
    2.460    5.0202
    2.475    5.0026
    2.490    4.8973
    2.505    4.6165
    2.520    4.8973
    2.535    4.9675
    2.550    4.8622
    2.565    4.9851
    2.580    5.0728
    2.595    4.8973
    2.610    4.9324
    2.625    5.2133
    2.640    4.8622
    2.655    4.8271
    2.670    4.7218
    2.685    4.7569
    2.700    4.9675
    2.715    4.9500
    2.730    5.0377
    2.745    4.6340
    2.760    4.6867
    2.775    4.9149
    2.790    4.9500
    2.805    5.2308
    2.820    4.9324
    2.835    4.6340
    2.850    5.0553
    2.865    5.4766
    2.880    4.7744
    2.895    5.1606
    2.910    5.4239
    2.925    4.6691
    2.940    5.4941
    2.955    5.4239
    2.970    5.4064
    2.985    5.6697
    3.000    5.4766
    3.015    5.3537
    3.030    5.4766
    3.045    5.8803
    3.060    5.7399
    3.075    5.2484
    3.090    5.7048
    3.105    5.9856
    3.120    6.1085
    3.135    6.4244
    3.150    5.8978
    3.165    6.0207
    3.180    6.6351
    3.195    6.6175
    3.210    6.5473
    3.225    7.4601
    3.240    7.3196
    3.255    7.5829
    3.270    7.5654
    3.285    7.4952
    3.300    8.1622
    3.315    8.3553
    3.330    8.7941
    3.345    8.8819
    3.360    9.7420
    3.375    9.7244
    3.390   10.2861
    3.405   10.6196
    3.420   11.1989
    3.435   11.2691
    3.450   10.3037
    3.465    9.9877
    3.480   10.2159
    3.495    9.2329
    3.510    8.6186
    3.525    8.1095
    3.540    7.0388
    3.555    7.5654
    3.570    6.7404
    3.585    6.7053
    3.600    6.2138
    3.615    6.0032
    3.630    6.1085
    3.645    6.3718
    3.660    5.8978
    3.675    5.6872
    3.690    5.6521
    3.705    5.9329
    3.720    6.0383
    3.735    6.1787
    3.750    5.8803
    3.765    6.0734
    3.780    6.1962
    3.795    6.1787
    3.810    6.3893
    3.825    6.0032
    3.840    6.4244
    3.855    6.7228
    3.870    6.1962
    3.885    6.3542
    3.900    6.2138
    3.915    6.6877
    3.930    6.4069
    3.945    6.5649
    3.960    6.4069
    3.975    6.8106
    3.990    6.5122
    4.005    6.7053
    4.020    6.6877
    4.035    6.6877
    4.050    6.7053
    4.065    6.4946
    4.080    6.5473
    4.095    6.2665
    4.110    6.4595
    4.125    6.4771
    4.140    6.1787
    4.155    6.7930
    4.170    6.2313
    4.185    6.1260
    4.200    5.8276
    4.215    6.2138
    4.230    5.4590
    4.245    6.1085
    4.260    6.0909
    4.275    5.7925
    4.290    5.7925
    4.305    5.3010
    4.320    5.3537
    4.335    5.1431
    4.350    4.8973
    4.365    5.1080
    4.380    4.9149
    4.395    4.8095
    4.410    4.6340
    4.425    4.8447
    4.440    4.9851
    4.455    5.2133
    4.470    5.0202
    4.485    4.4409
    4.500    4.2478
    4.515    4.3707
    4.530    4.8973
    4.545    4.5638
    4.560    4.3356
    4.575    4.2478
    4.590    4.5463
    4.605    4.6165
    4.620    4.6165
    4.635    4.4058
    4.650    4.9324
    4.665    4.6691
    4.680    4.1952
    4.695    4.7042
    4.710    4.5638
    4.725    5.0202
    4.740    4.7920
    4.755    4.4409
    4.770    4.7042
    4.785    5.0202
    4.800    5.1255
    4.815    4.6867
    4.830    4.1425
    4.845    4.2303
    4.860    4.1952
    4.875    4.5638
    4.890    4.9149
    4.905    4.5463
    4.920    4.5111
    4.935    4.8095
    4.950    4.4936
    4.965    4.5638
    4.980    4.8622
    4.995    4.4760
    5.010    4.5638
    5.025    4.8447
    5.040    4.8095
    5.055    4.9675
    5.070    5.0202
    5.085    5.2484
    5.100    4.9149
    5.115    4.8095
    5.130    4.7569
    5.145    5.2484
    5.160    5.0553
    5.175    5.7399
    5.190    5.7574
    5.205    5.1255
    5.220    5.4239
    5.235    5.5292
    5.250    5.8627
    5.265    5.5643
    5.280    5.6521
    5.295    5.4941
    5.310    5.6872
    5.325    5.8978
    5.340    5.7925
    5.355    6.0032
    5.370    5.5819
    5.385    5.9505
    5.400    5.9329
    5.415    5.9154
    5.430    6.1260
    5.445    5.8627
    5.460    6.3893
    5.475    6.0734
    5.490    6.1436
    5.505    6.0383
    5.520    5.6521
    5.535    5.8452
    5.550    5.8101
    5.565    6.2138
    5.580    5.8627
    5.595    6.0032
    5.610    6.2665
    5.625    6.3367
    5.640    6.3191
    5.655    5.6345
    5.670    5.7574
    5.685    5.5292
    5.700    5.7750
    5.715    5.5292
    5.730    5.3361
    5.745    5.5117
    5.760    5.1255
    5.775    5.2484
    5.790    5.2659
    5.805    5.5292
    5.820    5.1782
    5.835    5.1255
    5.850    5.1080
    5.865    5.3361
    5.880    5.1957
    5.895    5.0728
    5.910    4.8447
    5.925    4.5814
    5.940    4.7393
    5.955    4.4760
    5.970    4.1601
    5.985    4.5463
    6.000    4.5814
    6.015    4.6340
    6.030    4.7920
    6.045    4.2478
    6.060    4.8447
    6.075    4.4058
    6.090    4.2830
    6.105    4.2654
    6.120    4.2478
    6.135    4.2830
    6.150    4.5638
    6.165    4.2654
    6.180    4.4936
    6.195    4.2303
    6.210    4.4760
    6.225    4.2303
    6.240    4.0899
    6.255    4.2127
    6.270    4.0021
    6.285    4.2303
    6.300    4.0021
    6.315    4.3707
    6.330    3.9494
    6.345    4.0021
    6.360    4.1074
    6.375    3.8792
    6.390    3.6510
    6.405    4.0021
    6.420    3.9319
    6.435    3.4053
    6.450    4.1425
    6.465    3.5984
    6.480    3.7915
    6.495    3.7388
    6.510    3.9670
    6.525    4.1074
    6.540    3.5106
    6.555    3.9319
    6.570    4.2127
    6.585    3.9319
    6.600    4.0723
    6.615    4.0548
    6.630    4.2127
    6.645    3.8617
    6.660    3.9494
    6.675    4.0021
    6.690    3.7388
    6.705    4.0021
    6.720    3.8617
    6.735    3.6159
    6.750    4.0197
    6.765    3.8090
    6.780    3.8792
    6.795    3.8441
    6.810    4.0197
    6.825    4.4234
    6.840    4.2654
    6.855    3.8792
    6.870    3.8968
    6.885    4.0021
    6.900    3.9319
    6.915    3.8090
    6.930    4.0021
    6.945    3.8617
    6.960    4.2127
    6.975    4.0021
    6.990    3.8968
    7.005    4.0372
    7.020    3.7739
    7.035    4.0197
    7.050    3.5457
    7.065    3.4755
    7.080    3.4931
    7.095    3.5808
    7.110    3.6686
    7.125    3.5282
    7.140    3.5106
    7.155    3.7037
    7.170    3.5282
    7.185    3.6335
    7.200    3.3000
    7.215    3.4404
    7.230    3.7388
    7.245    3.2824
    7.260    3.2122
    7.275    3.0893
    7.290    3.4404
    7.305    3.3175
    7.320    3.3526
    7.335    3.1947
    7.350    3.5457
    7.365    3.4404
    7.380    3.7388
    7.395    3.6335
    7.410    3.3000
    7.425    3.1596
    7.440    3.2122
    7.455    3.0367
    7.470    3.0893
    7.485    3.1420
    7.500    3.3175
    7.515    2.8612
    7.530    2.9138
    7.545    3.3877
    7.560    2.8085
    7.575    3.0542
    7.590    2.7383
    7.605    2.9489
    7.620    2.8612
    7.635    3.0542
    7.650    3.4931
    7.665    3.1947
    7.680    3.0191
    7.695    3.3526
    7.710    3.3000
    7.725    3.2473
    7.740    3.0191
    7.755    2.8787
    7.770    3.0893
    7.785    3.0542
    7.800    3.1596
    7.815    2.8436
    7.830    2.8085
    7.845    2.9665
    7.860    2.7734
    7.875    2.6505
    7.890    3.0893
    7.905    3.1420
    7.920    3.1245
    7.935    2.7032
    7.950    3.0893
    7.965    3.1420
    7.980    2.9138
    7.995    3.2122
    8.010    2.7909
    8.025    3.0367
    8.040    2.9665
    8.055    2.6330
    8.070    3.1245
    8.085    3.3175
    8.100    3.2824
    8.115    3.1947
    8.130    2.9840
    8.145    3.2824
    8.160    3.0191
    8.175    2.9665
    8.190    2.9138
    8.205    2.6856
    8.220    3.0718
    8.235    2.9314
    8.250    2.8787
    8.265    3.1420
    8.280    3.2122
    8.295    3.3000
    8.310    2.6681
    8.325    2.5803
    8.340    2.8436
    8.355    2.8612
    8.370    2.7734
    8.385    3.0893
    8.400    2.9840
    8.415    2.5803
    8.430    2.6681
    8.445    2.6330
    8.460    2.7734
    8.475    2.5101
    8.490    2.7383
    8.505    2.9314
    8.520    2.7383
    8.535    2.8612
    8.550    2.8787
    8.565    2.7032
    8.580    2.7734
    8.595    2.6681
    8.610    2.5628
    8.625    2.8963
    8.640    2.8612
    8.655    2.9489
    8.670    2.7734
    8.685    2.5276
    8.700    2.7032
    8.715    2.5101
    8.730    2.4048
    8.745    2.3872
    8.760    3.0016
    8.775    2.4925
    8.790    2.8963
    8.805    2.3521
    8.820    2.3170
    8.835    2.7383
    8.850    2.6856
    8.865    2.4048
    8.880    2.3346
    8.895    2.4048
    8.910    2.4048
    8.925    2.7383
    8.940    2.5628
    8.955    2.4048
    8.970    2.2643
    8.985    2.6154
    9.000    2.3170
    9.015    2.6330
    9.030    2.9489
    9.045    2.5452
    9.060    2.5979
    9.075    2.2643
    9.090    2.5803
    9.105    2.9840
    9.120    2.7383
    9.135    2.6330
    9.150    2.6681
    9.165    2.5452
    9.180    2.5276
    9.195    2.4399
    9.210    2.6330
    9.225    2.4750
    9.240    2.3697
    9.255    2.7207
    9.270    2.5979
    9.285    2.6856
    9.300    2.7032
    9.315    2.6154
    9.330    2.7558
    9.345    2.6505
    9.360    2.6681
    9.375    2.5276
    9.390    2.3872
    9.405    2.8612
    9.420    2.7032
    9.435    2.6505
    9.450    2.2995
    9.465    2.0713
    9.480    1.9133
    9.495    2.3697
    9.510    2.5276
    9.525    2.5101
    9.540    2.3697
    9.555    2.5101
    9.570    2.7207
    9.585    2.5101
    9.600    2.3521
    9.615    2.2819
    9.630    2.6505
    9.645    2.4223
    9.660    2.4223
    9.675    2.4925
    9.690    2.2292
    9.705    2.7558
    9.720    2.8260
    9.735    2.2643
    9.750    2.5803
    9.765    2.4925
    9.780    2.5979
    9.795    2.7383
    9.810    2.3170
    9.825    2.4574
    9.840    2.5101
    9.855    2.2468
    9.870    2.5452
    9.885    2.5803
    9.900    2.2468
    9.915    2.5276
    9.930    2.5628
    9.945    2.4399
    9.960    2.1590
    9.975    2.1239
    9.990    2.4223
   10.005    2.7032
   10.020    2.6681
   10.035    2.5803
   10.050    2.4399
   10.065    2.4048
   10.080    2.7032
   10.095    2.4925
   10.110    2.5803
   10.125    2.1239
   10.140    2.3872
   10.155    2.6681
   10.170    2.3521
   10.185    2.4574
   10.200    2.9665
   10.215    2.8787
   10.230    2.4223
   10.245    2.6505
   10.260    2.7383
   10.275    2.4750
   10.290    2.4048
   10.305    2.4750
   10.320    2.8085
   10.335    2.7207
   10.350    2.8085
   10.365    2.6154
   10.380    2.7558
   10.395    2.5628
   10.410    2.7032
   10.425    2.6681
   10.440    2.8963
   10.455    2.7383
   10.470    2.5276
   10.485    2.4399
   10.500    2.3346
   10.515    2.7734
   10.530    2.7383
   10.545    2.4574
   10.560    2.4223
   10.575    2.5276
   10.590    2.7909
   10.605    2.6856
   10.620    2.5452
   10.635    2.4574
   10.650    2.4574
   10.665    2.5979
   10.680    2.5628
   10.695    2.5276
   10.710    2.7032
   10.725    2.6681
   10.740    2.6330
   10.755    2.9138
   10.770    2.6154
   10.785    2.9138
   10.800    3.0542
   10.815    2.5803
   10.830    2.7032
   10.845    2.7207
   10.860    2.6856
   10.875    2.6856
   10.890    2.7383
   10.905    2.6856
   10.920    2.4925
   10.935    2.4925
   10.950    2.7207
   10.965    2.7383
   10.980    2.9840
   10.995    2.9314
   11.010    2.4399
   11.025    2.5979
   11.040    2.7032
   11.055    2.3872
   11.070    2.5979
   11.085    2.6330
   11.100    2.8963
   11.115    2.7383
   11.130    2.9138
   11.145    2.7383
   11.160    2.5452
   11.175    2.5979
   11.190    2.8085
   11.205    2.9138
   11.220    2.7909
   11.235    2.7207
   11.250    3.0367
   11.265    2.5452
   11.280    2.5979
   11.295    2.8963
   11.310    2.6681
   11.325    2.7558
   11.340    2.8612
   11.355    3.0542
   11.370    2.9314
   11.385    2.5452
   11.400    2.3170
   11.415    2.8085
   11.430    2.7032
   11.445    2.6681
   11.460    2.2995
   11.475    2.5276
   11.490    2.6681
   11.505    2.5979
   11.520    2.7383
   11.535    2.4223
   11.550    2.5803
   11.565    2.9314
   11.580    2.4750
   11.595    2.2468
   11.610    2.7383
   11.625    2.4574
   11.640    2.3346
   11.655    2.5979
   11.670    2.8085
   11.685    2.6681
   11.700    2.4750
   11.715    2.3346
   11.730    2.6505
   11.745    2.6505
   11.760    2.4399
   11.775    2.4925
   11.790    2.9138
   11.805    2.8085
   11.820    2.4574
   11.835    2.5276
   11.850    2.5803
   11.865    2.3170
   11.880    2.3872
   11.895    2.4750
   11.910    2.3346
   11.925    2.4223
   11.940    2.4750
   11.955    2.4574
   11.970    2.6681
   11.985    2.7032
   12.000    2.4574
   12.015    2.2292
   12.030    2.5101
   12.045    2.6681
   12.060    2.6681
   12.075    2.5979
   12.090    2.5452
   12.105    2.4048
   12.120    2.5452
   12.135    2.3872
   12.150    2.5628
   12.165    2.5803
   12.180    2.4574
   12.195    2.5452
   12.210    2.4574
   12.225    2.7207
   12.240    2.5628
   12.255    2.5101
   12.270    2.7207
   12.285    2.7032
   12.300    2.6505
   12.315    2.6505
   12.330    2.6681
   12.345    2.6856
   12.360    2.4223
   12.375    2.4223
   12.390    2.3521
   12.405    2.4399
   12.420    2.6330
   12.435    2.5803
   12.450    2.4574
   12.465    2.2292
   12.480    2.5979
   12.495    2.4399
   12.510    2.5628
   12.525    2.8963
   12.540    2.6330
   12.555    2.9138
   12.570    2.7383
   12.585    2.5452
   12.600    2.7383
   12.615    2.5452
   12.630    2.4399
   12.645    2.5101
   12.660    2.7734
   12.675    2.6681
   12.690    2.5628
   12.705    1.9484
   12.720    2.1415
   12.735    2.6154
   12.750    2.3697
   12.765    2.7558
   12.780    2.5276
   12.795    2.2819
   12.810    2.5979
   12.825    2.4925
   12.840    2.5452
   12.855    2.7383
   12.870    2.3872
   12.885    2.7909
   12.900    2.7207
   12.915    2.4925
   12.930    2.5979
   12.945    2.3521
   12.960    2.5803
   12.975    2.6681
   12.990    2.5628
   13.005    1.9308
   13.020    2.2468
   13.035    2.6856
   13.050    2.4574
   13.065    2.4750
   13.080    2.4223
   13.095    2.8085
   13.110    2.7032
   13.125    2.6856
   13.140    2.2292
   13.155    2.4048
   13.170    2.5276
   13.185    2.6154
   13.200    2.6154
   13.215    2.4399
   13.230    2.3521
   13.245    2.2468
   13.260    2.4574
   13.275    2.5276
   13.290    2.5979
   13.305    2.6856
   13.320    2.5628
   13.335    2.4223
   13.350    2.5101
   13.365    2.4574
   13.380    2.5979
   13.395    2.6154
   13.410    2.2292
   13.425    2.4399
   13.440    2.5101
   13.455    2.5803
   13.470    2.4399
   13.485    2.6154
   13.500    2.8085
   13.515    2.5803
   13.530    2.8787
   13.545    2.4399
   13.560    2.3170
   13.575    2.6330
   13.590    2.2292
   13.605    2.1590
   13.620    2.4925
   13.635    2.4925
   13.650    2.3872
   13.665    2.6154
   13.680    2.9138
   13.695    2.7558
   13.710    2.7207
   13.725    2.6505
   13.740    2.4399
   13.755    2.6681
   13.770    2.3521
   13.785    2.3521
   13.800    2.5628
   13.815    2.7032
   13.830    2.4574
   13.845    2.1766
   13.860    2.4750
   13.875    2.5628
   13.890    2.4750
   13.905    2.5628
   13.920    2.5628
   13.935    2.8787
   13.950    2.7383
   13.965    2.5452
   13.980    2.4399
   13.995    2.7558
   14.010    2.7207
   14.025    2.8612
   14.040    2.5452
   14.055    2.6154
   14.070    2.4574
   14.085    2.6856
   14.100    2.6681
   14.115    2.7558
   14.130    2.6681
   14.145    2.4925
   14.160    2.7032
   14.175    2.7558
   14.190    2.6856
   14.205    2.3346
   14.220    2.6856
   14.235    2.6856
   14.250    3.0893
   14.265    3.0542
   14.280    2.5452
   14.295    2.5101
   14.310    2.4574
   14.325    2.6856
   14.340    2.8436
   14.355    2.7032
   14.370    2.7909
   14.385    2.5276
   14.400    2.7734
   14.415    2.5628
   14.430    2.8260
   14.445    2.6681
   14.460    2.7032
   14.475    2.7734
   14.490    3.1245
   14.505    2.6330
   14.520    2.8085
   14.535    2.5101
   14.550    2.7558
   14.565    2.7558
   14.580    2.9489
   14.595    2.8436
   14.610    2.7558
   14.625    2.9840
   14.640    2.9314
   14.655    2.4925
   14.670    2.6330
   14.685    2.4925
   14.700    2.7558
   14.715    2.8436
   14.730    2.6681
   14.745    2.8963
   14.760    2.8085
   14.775    2.5803
   14.790    2.7383
   14.805    2.9489
   14.820    2.6505
   14.835    2.5979
   14.850    2.6154
   14.865    2.7909
   14.880    2.8085
   14.895    2.5979
   14.910    2.4750
   14.925    2.4048
   14.940    2.5101
   14.955    2.1415
   14.970    2.4399
   14.985    2.5101
   15.000    2.7558
   15.015    2.6154
   15.030    2.4750
   15.045    2.6856
   15.060    2.3346
   15.075    2.2819
   15.090    2.8085
   15.105    2.1941
   15.120    2.4399
   15.135    2.5803
   15.150    2.5276
   15.165    2.2995
   15.180    2.2292
   15.195    2.5628
   15.210    2.6681
   15.225    2.6330
   15.240    2.3521
   15.255    2.3346
   15.270    2.4925
   15.285    2.5452
   15.300    2.5979
   15.315    2.5803
   15.330    2.3872
   15.345    2.5452
   15.360    2.4048
   15.375    2.3521
   15.390    2.4223
   15.405    2.5452
   15.420    2.2819
   15.435    2.6154
   15.450    2.4048
   15.465    2.4925
   15.480    2.4574
   15.495    2.5452
   15.510    2.4925
   15.525    2.6505
   15.540    2.5452
   15.555    2.5101
   15.570    2.3346
   15.585    2.5101
   15.600    2.3521
   15.615    2.2643
   15.630    2.4048
   15.645    2.7558
   15.660    2.5452
   15.675    2.4925
   15.690    2.3170
   15.705    2.6856
   15.720    2.4750
   15.735    2.6505
   15.750    2.5803
   15.765    2.5452
   15.780    2.5452
   15.795    2.5452
   15.810    2.8436
   15.825    2.5101
   15.840    2.2643
   15.855    2.0362
   15.870    2.5979
   15.885    2.3521
   15.900    2.4574
   15.915    2.4750
   15.930    2.6681
   15.945    2.5101
   15.960    2.3521
   15.975    2.4223
   15.990    2.5803
   16.005    2.1590
   16.020    2.6505
   16.035    2.7909
   16.050    2.1766
   16.065    2.3170
   16.080    2.5628
   16.095    2.5628
   16.110    2.3872
   16.125    2.5628
   16.140    2.3872
   16.155    2.5979
   16.170    2.6681
   16.185    2.4048
   16.200    2.5452
   16.215    2.6681
   16.230    2.6505
   16.245    2.4750
   16.260    2.5452
   16.275    2.5101
   16.290    2.5628
   16.305    2.3346
   16.320    2.2468
   16.335    2.4399
   16.350    2.1590
   16.365    2.1766
   16.380    2.4399
   16.395    2.4574
   16.410    2.3697
   16.425    2.5803
   16.440    2.5276
   16.455    2.4750
   16.470    2.3872
   16.485    2.4048
   16.500    2.4574
   16.515    2.3521
   16.530    2.3346
   16.545    2.1941
   16.560    2.3697
   16.575    2.2468
   16.590    2.5101
   16.605    2.4048
   16.620    2.4750
   16.635    2.5101
   16.650    2.3170
   16.665    2.2643
   16.680    2.2468
   16.695    2.5628
   16.710    2.4399
   16.725    2.3872
   16.740    2.3872
   16.755    2.2117
   16.770    2.1941
   16.785    2.4925
   16.800    2.4048
   16.815    2.4223
   16.830    2.5979
   16.845    2.6505
   16.860    2.4399
   16.875    2.3872
   16.890    2.2292
   16.905    2.3346
   16.920    2.1766
   16.935    2.4399
   16.950    2.6154
   16.965    2.4925
   16.980    2.4399
   16.995    2.4750
   17.010    2.4925
   17.025    2.2117
   17.040    2.2819
   17.055    2.5979
   17.070    2.5979
   17.085    2.0537
   17.100    2.5276
   17.115    2.4574
   17.130    2.5628
   17.145    2.5628
   17.160    2.4399
   17.175    2.2643
   17.190    2.3872
   17.205    2.6154
   17.220    2.4223
   17.235    2.2117
   17.250    2.5452
   17.265    2.4750
   17.280    2.1766
   17.295    2.1590
   17.310    2.4048
   17.325    2.3697
   17.340    2.3521
   17.355    2.2819
   17.370    2.3170
   17.385    2.2292
   17.400    2.0186
   17.415    2.2292
   17.430    2.2117
   17.445    2.2643
   17.460    2.1941
   17.475    2.2292
   17.490    2.2468
   17.505    2.3170
   17.520    2.4223
   17.535    2.4223
   17.550    2.4223
   17.565    2.5979
   17.580    2.5452
   17.595    2.3872
   17.610    2.3521
   17.625    2.0888
   17.640    2.5101
   17.655    2.2468
   17.670    2.2292
   17.685    2.3872
   17.700    2.3346
   17.715    2.4399
   17.730    2.3872
   17.745    2.5452
   17.760    2.1766
   17.775    2.2995
   17.790    2.3170
   17.805    2.1590
   17.820    2.4399
   17.835    2.4925
   17.850    1.9835
   17.865    2.1590
   17.880    2.0011
   17.895    2.0362
   17.910    2.3872
   17.925    2.5803
   17.940    2.5452
   17.955    2.6154
   17.970    2.4399
   17.985    2.5452
   18.000    2.6505
   18.015    2.6505
   18.030    2.3346
   18.045    2.4750
   18.060    2.3697
   18.075    2.5101
   18.090    2.5101
   18.105    2.0011
   18.120    2.3346
   18.135    2.2995
   18.150    2.4223
   18.165    2.3170
   18.180    2.1064
   18.195    2.2819
   18.210    2.4399
   18.225    2.2819
   18.240    2.3170
   18.255    2.5803
   18.270    2.4925
   18.285    2.4574
   18.300    2.3346
   18.315    2.4223
   18.330    2.3872
   18.345    2.1064
   18.360    2.3872
   18.375    2.3521
   18.390    2.2819
   18.405    2.5276
   18.420    2.2995
   18.435    2.1941
   18.450    2.0362
   18.465    2.2468
   18.480    2.1415
   18.495    2.2643
   18.510    2.7207
   18.525    2.6681
   18.540    2.5276
   18.555    1.9484
   18.570    2.1415
   18.585    2.1415
   18.600    2.1239
   18.615    2.1064
   18.630    2.1064
   18.645    2.3697
   18.660    2.3697
   18.675    2.3697
   18.690    2.2292
   18.705    2.2819
   18.720    2.5803
   18.735    2.5979
   18.750    2.2643
   18.765    2.1239
   18.780    2.3521
   18.795    2.2995
   18.810    2.1941
   18.825    2.1415
   18.840    2.5628
   18.855    2.2819
   18.870    2.3521
   18.885    2.2292
   18.900    2.2117
   18.915    2.4574
   18.930    2.2819
   18.945    2.5628
   18.960    2.2643
   18.975    2.1941
   18.990    2.4750
   19.005    2.4223
   19.020    2.3872
   19.035    2.3170
   19.050    2.3170
   19.065    2.0362
   19.080    2.4399
   19.095    2.3697
   19.110    2.1941
   19.125    2.2643
   19.140    2.2995
   19.155    2.3346
   19.170    2.2643
   19.185    2.1590
   19.200    2.3872
   19.215    2.4048
   19.230    2.2117
   19.245    2.4048
   19.260    2.4750
   19.275    2.2117
   19.290    2.1941
   19.305    2.0537
   19.320    2.1239
   19.335    2.1766
   19.350    2.2643
   19.365    1.9835
   19.380    2.3346
   19.395    2.2292
   19.410    2.0011
   19.425    1.8431
   19.440    2.2292
   19.455    2.0888
   19.470    2.3697
   19.485    2.0537
   19.500    2.2468
   19.515    2.0362
   19.530    2.0888
   19.545    2.4223
   19.560    2.2819
   19.575    2.2643
   19.590    2.3697
   19.605    2.5276
   19.620    2.2292
   19.635    2.1766
   19.650    2.0713
   19.665    2.4399
   19.680    2.2117
   19.695    2.1766
   19.710    2.1239
   19.725    2.1766
   19.740    2.4048
   19.755    2.4574
   19.770    2.2643
   19.785    2.4223
   19.800    2.4925
   19.815    2.0888
   19.830    2.1415
   19.845    2.2819
   19.860    2.1239
   19.875    2.0186
   19.890    2.1590
   19.905    2.2292
   19.920    2.0888
   19.935    1.9835
   19.950    1.9308
   19.965    2.0011
   19.980    2.3170
   19.995    2.3170
   20.010    2.1415
   20.025    2.5452
   20.040    2.4925
   20.055    2.3346
   20.070    2.2643
   20.085    2.3697
   20.100    2.3697
   20.115    2.0713
   20.130    2.0537
   20.145    2.4574
   20.160    2.2292
   20.175    2.5803
   20.190    2.2292
   20.205    2.1941
   20.220    2.0362
   20.235    1.9484
   20.250    2.1415
   20.265    2.2292
   20.280    2.2292
   20.295    2.2819
   20.310    1.9308
   20.325    2.2643
   20.340    2.2292
   20.355    2.1766
   20.370    2.0713
   20.385    2.3346
   20.400    2.2995
   20.415    2.2292
   20.430    2.2643
   20.445    2.0537
   20.460    2.3170
   20.475    2.3872
   20.490    2.0888
   20.505    2.2819
   20.520    2.4399
   20.535    2.3697
   20.550    2.3346
   20.565    2.0888
   20.580    2.0888
   20.595    2.0011
   20.610    2.1941
   20.625    2.4223
   20.640    2.1766
   20.655    2.3170
   20.670    2.3697
   20.685    2.0537
   20.700    2.1064
   20.715    2.2643
   20.730    2.1064
   20.745    2.2468
   20.760    2.0713
   20.775    2.0713
   20.790    2.0011
   20.805    1.9308
   20.820    2.0713
   20.835    2.0186
   20.850    1.8080
   20.865    2.1415
   20.880    1.8606
   20.895    1.9308
   20.910    2.0362
   20.925    1.8782
   20.940    2.0362
   20.955    2.0713
   20.970    2.4048
   20.985    1.8606
   21.000    2.0362
   21.015    2.1239
   21.030    2.1941
   21.045    1.9835
   21.060    2.3697
   21.075    2.1766
   21.090    2.1064
   21.105    2.1590
   21.120    2.0186
   21.135    1.9308
   21.150    2.0888
   21.165    2.1766
   21.180    2.2292
   21.195    2.0186
   21.210    2.1941
   21.225    2.0362
   21.240    2.0186
   21.255    2.1415
   21.270    2.0537
   21.285    2.3346
   21.300    1.9308
   21.315    2.2468
   21.330    2.0713
   21.345    1.9659
   21.360    1.9484
   21.375    2.0011
   21.390    1.9308
   21.405    2.1766
   21.420    2.2292
   21.435    2.0888
   21.450    2.0888
   21.465    2.2117
   21.480    2.3170
   21.495    2.4223
   21.510    1.9659
   21.525    2.0537
   21.540    2.2292
   21.555    1.9308
   21.570    2.0888
   21.585    2.3697
   21.600    2.1590
   21.615    2.2292
   21.630    2.2643
   21.645    2.0186
   21.660    2.2292
   21.675    2.4399
   21.690    2.1064
   21.705    2.1415
   21.720    2.1415
   21.735    1.9659
   21.750    2.1590
   21.765    1.9835
   21.780    1.8957
   21.795    2.2643
   21.810    2.1239
   21.825    2.0537
   21.840    2.1239
   21.855    2.1766
   21.870    2.1064
   21.885    2.0186
   21.900    1.8431
   21.915    2.0713
   21.930    2.1239
   21.945    2.3697
   21.960    2.1590
   21.975    2.1064
   21.990    2.1415
   22.005    2.0713
   22.020    2.0537
   22.035    2.0888
   22.050    1.9484
   22.065    1.9835
   22.080    1.8080
   22.095    2.0011
   22.110    2.0713
   22.125    1.8431
   22.140    2.0362
   22.155    1.8255
   22.170    1.9308
   22.185    2.0186
   22.200    2.1941
   22.215    2.1766
   22.230    2.0186
   22.245    1.8957
   22.260    1.8431
   22.275    2.1766
   22.290    2.0713
   22.305    1.9308
   22.320    2.0713
   22.335    1.9835
   22.350    1.9133
   22.365    1.8431
   22.380    2.1590
   22.395    1.8431
   22.410    2.0537
   22.425    1.9133
   22.440    1.9484
   22.455    2.1415
   22.470    1.7729
   22.485    1.8080
   22.500    1.8782
   22.515    1.9308
   22.530    2.1766
   22.545    2.1064
   22.560    1.9659
   22.575    1.8606
   22.590    2.0011
   22.605    2.0011
   22.620    1.9308
   22.635    1.8606
   22.650    1.9484
   22.665    1.8957
   22.680    1.9835
   22.695    2.0362
   22.710    1.9835
   22.725    2.1941
   22.740    1.8431
   22.755    1.5973
   22.770    1.9133
   22.785    1.8431
   22.800    1.8606
   22.815    2.1590
   22.830    2.0537
   22.845    2.0186
   22.860    1.8782
   22.875    2.0186
   22.890    2.1239
   22.905    1.8782
   22.920    1.9484
   22.935    1.8782
   22.950    2.1064
   22.965    1.9308
   22.980    1.9835
   22.995    2.1415
   23.010    1.8782
   23.025    1.7202
   23.040    2.1064
   23.055    2.0186
   23.070    1.9484
   23.085    1.8606
   23.100    1.9308
   23.115    1.8957
   23.130    1.9133
   23.145    2.0713
   23.160    2.0011
   23.175    1.9835
   23.190    1.7729
   23.205    1.9133
   23.220    1.8606
   23.235    1.7729
   23.250    1.6851
   23.265    1.8431
   23.280    2.2117
   23.295    1.9308
   23.310    1.8255
   23.325    1.8782
   23.340    1.8782
   23.355    1.8957
   23.370    2.0011
   23.385    1.8606
   23.400    2.0011
   23.415    2.0537
   23.430    1.7729
   23.445    1.7553
   23.460    1.9659
   23.475    1.8782
   23.490    1.5973
   23.505    1.6851
   23.520    1.8606
   23.535    1.8782
   23.550    1.8606
   23.565    2.1064
   23.580    1.9133
   23.595    1.9659
   23.610    1.7904
   23.625    1.5798
   23.640    1.5798
   23.655    1.8606
   23.670    1.5973
   23.685    1.7027
   23.700    1.5622
   23.715    1.8782
   23.730    1.7729
   23.745    1.9484
   23.760    1.5096
   23.775    1.7378
   23.790    1.6675
   23.805    1.6851
   23.820    2.0186
   23.835    1.9133
   23.850    1.8080
   23.865    1.9133
   23.880    1.8957
   23.895    1.8782
   23.910    1.9659
   23.925    1.7378
   23.940    1.7202
   23.955    1.6149
   23.970    1.8782
   23.985    1.8606
   24.000    2.1590
   24.015    1.8255
   24.030    1.8431
   24.045    1.7553
   24.060    1.7904
   24.075    1.7378
   24.090    1.6324
   24.105    1.8255
   24.120    1.8080
   24.135    1.8080
   24.150    1.5622
   24.165    1.7202
   24.180    1.8782
   24.195    1.8255
   24.210    1.7553
   24.225    1.8255
   24.240    1.7378
   24.255    1.6500
   24.270    1.6500
   24.285    1.8606
   24.300    2.0537
   24.315    1.7553
   24.330    1.5622
   24.345    1.7378
   24.360    2.0011
   24.375    1.8080
   24.390    1.5447
   24.405    1.5622
   24.420    1.6324
   24.435    1.9484
   24.450    1.6851
   24.465    1.6500
   24.480    1.6500
   24.495    1.5973
   24.510    1.7904
   24.525    1.9308
   24.540    1.7378
   24.555    1.5271
   24.570    1.6851
   24.585    1.7553
   24.600    1.6851
   24.615    1.8782
   24.630    1.9484
   24.645    1.8255
   24.660    1.7378
   24.675    1.9484
   24.690    1.7904
   24.705    1.5973
   24.720    1.9308
   24.735    1.9308
   24.750    1.8957
   24.765    1.7202
   24.780    1.8255
   24.795    1.9659
   24.810    1.6324
   24.825    1.7729
   24.840    1.7027
   24.855    1.8080
   24.870    1.6851
   24.885    1.7378
   24.900    1.6500
   24.915    1.6851
   24.930    1.9659
   24.945    2.0011
   24.960    1.9835
   24.975    1.8080
   24.990    1.5271
   25.005    1.7729
   25.020    1.8255
   25.035    1.6675
   25.050    1.7027
   25.065    1.9659
   25.080    1.7202
   25.095    1.7027
   25.110    2.1239
   25.125    1.7202
   25.140    1.8957
   25.155    2.0186
   25.170    1.6851
   25.185    1.5798
   25.200    1.5973
   25.215    1.4042
   25.230    1.5973
   25.245    1.7378
   25.260    1.6675
   25.275    1.4569
   25.290    1.6324
   25.305    1.7202
   25.320    1.7904
   25.335    1.7027
   25.350    1.6675
   25.365    1.7553
   25.380    1.6851
   25.395    1.4569
   25.410    1.4569
   25.425    1.5271
   25.440    1.5447
   25.455    1.4042
   25.470    1.6324
   25.485    1.8957
   25.500    1.8782
   25.515    1.7553
   25.530    1.9133
   25.545    1.7553
   25.560    1.6851
   25.575    1.8606
   25.590    1.5798
   25.605    1.5798
   25.620    1.5447
   25.635    1.7027
   25.650    1.8431
   25.665    1.5271
   25.680    1.5622
   25.695    1.5973
   25.710    1.5622
   25.725    1.7027
   25.740    1.6149
   25.755    1.6324
   25.770    1.4394
   25.785    1.7378
   25.800    1.6675
   25.815    1.5973
   25.830    1.5447
   25.845    1.7202
   25.860    1.6324
   25.875    1.2463
   25.890    1.4920
   25.905    1.5973
   25.920    1.4569
   25.935    1.5622
   25.950    1.3516
   25.965    1.4218
   25.980    1.5622
   25.995    1.3516
   26.010    1.7027
   26.025    1.4569
   26.040    1.6149
   26.055    1.7553
   26.070    1.6675
   26.085    1.5973
   26.100    1.6324
   26.115    1.5973
   26.130    1.6500
   26.145    1.7027
   26.160    1.4394
   26.175    1.4920
   26.190    1.4218
   26.205    1.4218
   26.220    1.3165
   26.235    1.4920
   26.250    1.3516
   26.265    1.3165
   26.280    1.6500
   26.295    1.7027
   26.310    1.4218
   26.325    1.5973
   26.340    1.6149
   26.355    1.5973
   26.370    1.5973
   26.385    1.5271
   26.400    1.4394
   26.415    1.8080
   26.430    1.6851
   26.445    1.4218
   26.460    1.7553
   26.475    1.6675
   26.490    1.5622
   26.505    1.4745
   26.520    1.5798
   26.535    1.6675
   26.550    1.5096
   26.565    1.2814
   26.580    1.4745
   26.595    1.5798
   26.610    1.4218
   26.625    1.5096
   26.640    1.5973
   26.655    1.5447
   26.670    1.4218
   26.685    1.6500
   26.700    1.4569
   26.715    1.6149
   26.730    1.5798
   26.745    1.4394
   26.760    1.3867
   26.775    1.3867
   26.790    1.4394
   26.805    1.3867
   26.820    1.5096
   26.835    1.4920
   26.850    1.7378
   26.865    1.7729
   26.880    1.4745
   26.895    1.7202
   26.910    1.5096
   26.925    1.1410
   26.940    1.3165
   26.955    1.4920
   26.970    1.5096
   26.985    1.3867
   27.000    1.3867
   27.015    1.6149
   27.030    1.6324
   27.045    1.6851
   27.060    1.7378
   27.075    1.5973
   27.090    1.4394
   27.105    1.4218
   27.120    1.5096
   27.135    1.5622
   27.150    1.4569
   27.165    1.5271
   27.180    1.4042
   27.195    1.5798
   27.210    1.4920
   27.225    1.5096
   27.240    1.4394
   27.255    1.1936
   27.270    1.2638
   27.285    1.4569
   27.300    1.3691
   27.315    1.4569
   27.330    1.5447
   27.345    1.6851
   27.360    1.6675
   27.375    1.4218
   27.390    1.4218
   27.405    1.6149
   27.420    1.4218
   27.435    1.5271
   27.450    1.3340
   27.465    1.4042
   27.480    1.3867
   27.495    1.5798
   27.510    1.5447
   27.525    1.5973
   27.540    1.6675
   27.555    1.5271
   27.570    1.4745
   27.585    1.4394
   27.600    1.4920
   27.615    1.6500
   27.630    1.4920
   27.645    1.2989
   27.660    1.4042
   27.675    1.5622
   27.690    1.6149
   27.705    1.3340
   27.720    1.2638
   27.735    1.4745
   27.750    1.5096
   27.765    1.4394
   27.780    1.6324
   27.795    1.5271
   27.810    1.3165
   27.825    1.5096
   27.840    1.4042
   27.855    1.3691
   27.870    1.4218
   27.885    1.3691
   27.900    1.2989
   27.915    1.2638
   27.930    1.3165
   27.945    1.3867
   27.960    1.4745
   27.975    1.4920
   27.990    1.4218
   28.005    1.5096
   28.020    1.3867
   28.035    1.4920
   28.050    1.3516
   28.065    1.2287
   28.080    1.5096
   28.095    1.4042
   28.110    1.4394
   28.125    1.2989
   28.140    1.5447
   28.155    1.5096
   28.170    1.5622
   28.185    1.2814
   28.200    1.4920
   28.215    1.5271
   28.230    1.5622
   28.245    1.5271
   28.260    1.6324
   28.275    1.5622
   28.290    1.5622
   28.305    1.4218
   28.320    1.4218
   28.335    1.4745
   28.350    1.4218
   28.365    1.3867
   28.380    1.4569
   28.395    1.4394
   28.410    1.2112
   28.425    1.3340
   28.440    1.3340
   28.455    1.4218
   28.470    1.3165
   28.485    1.4042
   28.500    1.3691
   28.515    1.3340
   28.530    1.3340
   28.545    1.2814
   28.560    1.5622
   28.575    1.4042
   28.590    1.4218
   28.605    1.4218
   28.620    1.3516
   28.635    1.5271
   28.650    1.5096
   28.665    1.5096
   28.680    1.2638
   28.695    1.5271
   28.710    1.5798
   28.725    1.2112
   28.740    1.1761
   28.755    1.4394
   28.770    1.4218
   28.785    1.5096
   28.800    1.5622
   28.815    1.3165
   28.830    1.2989
   28.845    1.1585
   28.860    1.3691
   28.875    1.2463
   28.890    1.2638
   28.905    1.4218
   28.920    1.4218
   28.935    1.2638
   28.950    1.4042
   28.965    1.2638
   28.980    1.4042
   28.995    1.3516
   29.010    1.3691
   29.025    1.3691
   29.040    1.5271
   29.055    1.3340
   29.070    1.3516
   29.085    1.3165
   29.100    1.2989
   29.115    1.3516
   29.130    1.3516
   29.145    1.4042
   29.160    1.7202
   29.175    1.4218
   29.190    1.2814
   29.205    1.2814
   29.220    1.0883
   29.235    1.0883
   29.250    1.2814
   29.265    1.5447
   29.280    1.5447
   29.295    1.2112
   29.310    1.2989
   29.325    1.4745
   29.340    1.3516
   29.355    1.0883
   29.370    1.4569
   29.385    1.4218
   29.400    1.3691
   29.415    1.2814
   29.430    1.1936
   29.445    1.1585
   29.460    1.1234
   29.475    1.0356
   29.490    1.2287
   29.505    1.2989
   29.520    1.1585
   29.535    1.2638
   29.550    1.4042
   29.565    1.4920
   29.580    1.3516
   29.595    1.1936
   29.610    1.0883
   29.625    1.1936
   29.640    1.2463
   29.655    1.1234
   29.670    1.2112
   29.685    1.2112
   29.700    1.1058
   29.715    0.9479
   29.730    1.2287
   29.745    1.5096
   29.760    1.2989
   29.775    1.2287
   29.790    1.3691
   29.805    1.1936
   29.820    1.1234
   29.835    1.4218
   29.850    1.2463
   29.865    1.1585
   29.880    1.2112
   29.895    1.4042
   29.910    1.2989
   29.925    1.2112
   29.940    1.1234
   29.955    1.2814
   29.970    1.2463
   29.985    1.5798
   30.000    1.1936
   30.015    1.2112
   30.030    1.2287
   30.045    1.2112
   30.060    1.0883
   30.075    1.2112
   30.090    1.0883
   30.105    1.1936
   30.120    1.0883
   30.135    1.2287
   30.150    1.2112
   30.165    1.2463
   30.180    1.1058
   30.195    0.9479
   30.210    1.0356
   30.225    1.1234
   30.240    1.2112
   30.255    1.1234
   30.270    1.1585
   30.285    0.8777
   30.300    0.9479
   30.315    1.1761
   30.330    1.1058
   30.345    1.2112
   30.360    1.3165
   30.375    1.2463
   30.390    1.2463
   30.405    1.4569
   30.420    1.2638
   30.435    1.1936
   30.450    1.1410
   30.465    1.1234
   30.480    1.1585
   30.495    1.3165
   30.510    1.0883
   30.525    1.0883
   30.540    1.4745
   30.555    1.2287
   30.570    1.0356
   30.585    1.1936
   30.600    1.2287
   30.615    1.1410
   30.630    1.2814
   30.645    1.2287
   30.660    1.0005
   30.675    1.0883
   30.690    1.0707
   30.705    1.0005
   30.720    0.9479
   30.735    0.9830
   30.750    0.9303
   30.765    1.2287
   30.780    1.3691
   30.795    1.1234
   30.810    1.0532
   30.825    1.2112
   30.840    1.5271
   30.855    1.1058
   30.870    1.0005
   30.885    1.0532
   30.900    1.0181
   30.915    1.3340
   30.930    1.1936
   30.945    1.0005
   30.960    1.1234
   30.975    1.1410
   30.990    1.1936
   31.005    1.3165
   31.020    1.2989
   31.035    1.0707
   31.050    1.0532
   31.065    1.0181
   31.080    1.1936
   31.095    1.2463
   31.110    1.0356
   31.125    0.8952
   31.140    1.0005
   31.155    1.1761
   31.170    1.2463
   31.185    1.1936
   31.200    1.0005
   31.215    1.0532
   31.230    0.9479
   31.245    1.0883
   31.260    1.1410
   31.275    1.1761
   31.290    1.1058
   31.305    1.0883
   31.320    1.0356
   31.335    1.1410
   31.350    1.0181
   31.365    1.0181
   31.380    1.0532
   31.395    1.1761
   31.410    1.0707
   31.425    0.8777
   31.440    1.1410
   31.455    1.3691
   31.470    0.8601
   31.485    1.0005
   31.500    1.0181
   31.515    1.0005
   31.530    1.1410
   31.545    1.0356
   31.560    0.9303
   31.575    0.9128
   31.590    1.1234
   31.605    1.1058
   31.620    1.0707
   31.635    1.1585
   31.650    1.2463
   31.665    1.0356
   31.680    0.9303
   31.695    0.9479
   31.710    1.0356
   31.725    1.1936
   31.740    0.9479
   31.755    1.1585
   31.770    1.1234
   31.785    1.0707
   31.800    0.9303
   31.815    0.9830
   31.830    1.0707
   31.845    0.9654
   31.860    1.0181
   31.875    1.0356
   31.890    1.1058
   31.905    1.2112
   31.920    1.0707
   31.935    1.0356
   31.950    0.9654
   31.965    1.1761
   31.980    1.1410
   31.995    1.0707
   32.010    0.9303
   32.025    0.8601
   32.040    0.9479
   32.055    1.1234
   32.070    0.9303
   32.085    0.8425
   32.100    1.1410
   32.115    0.9479
   32.130    0.8074
   32.145    0.9479
   32.160    0.8601
   32.175    1.0181
   32.190    0.8425
   32.205    0.8601
   32.220    1.0707
   32.235    1.0883
   32.250    0.9128
   32.265    0.9303
   32.280    0.9303
   32.295    1.0707
   32.310    1.1410
   32.325    1.1234
   32.340    0.8250
   32.355    0.7899
   32.370    0.8952
   32.385    0.8777
   32.400    1.0883
   32.415    1.1410
   32.430    0.9654
   32.445    0.7899
   32.460    0.9303
   32.475    1.0532
   32.490    1.1410
   32.505    1.1234
   32.520    1.1585
   32.535    0.9479
   32.550    1.0356
   32.565    0.9303
   32.580    0.9128
   32.595    0.7723
   32.610    0.9654
   32.625    0.9479
   32.640    1.1410
   32.655    1.0181
   32.670    0.7899
   32.685    1.1936
   32.700    1.0883
   32.715    1.0356
   32.730    0.9479
   32.745    0.8777
   32.760    1.0532
   32.775    0.9128
   32.790    0.9479
   32.805    0.8425
   32.820    0.9479
   32.835    0.8601
   32.850    1.0356
   32.865    1.1058
   32.880    1.0883
   32.895    1.0181
   32.910    1.0356
   32.925    0.9830
   32.940    1.1585
   32.955    0.9128
   32.970    0.9128
   32.985    0.8425
   33.000    0.8074
   33.015    1.1058
   33.030    0.8425
   33.045    0.8952
   33.060    0.8952
   33.075    0.8074
   33.090    0.8777
   33.105    0.8425
   33.120    0.8777
   33.135    0.9303
   33.150    0.8952
   33.165    0.7723
   33.180    1.0532
   33.195    0.7899
   33.210    0.7899
   33.225    1.0181
   33.240    0.8952
   33.255    0.9479
   33.270    0.9830
   33.285    0.9654
   33.300    0.7548
   33.315    0.8425
   33.330    1.1410
   33.345    0.8952
   33.360    0.9128
   33.375    0.8425
   33.390    0.8250
   33.405    0.9303
   33.420    1.0005
   33.435    0.8425
   33.450    0.7372
   33.465    0.7021
   33.480    0.9128
   33.495    0.9830
   33.510    0.8074
   33.525    0.8074
   33.540    0.9128
   33.555    0.9479
   33.570    0.9830
   33.585    0.9830
   33.600    0.9303
   33.615    1.0005
   33.630    0.8250
   33.645    0.9128
   33.660    0.8425
   33.675    0.9830
   33.690    0.8952
   33.705    0.9479
   33.720    0.9128
   33.735    1.0181
   33.750    1.1410
   33.765    0.8601
   33.780    0.8952
   33.795    0.7021
   33.810    0.9303
   33.825    0.9479
   33.840    1.1234
   33.855    1.0005
   33.870    1.1058
   33.885    0.9830
   33.900    1.0005
   33.915    0.8777
   33.930    0.7372
   33.945    0.9128
   33.960    0.8250
   33.975    0.7723
   33.990    0.9128
   34.005    0.8952
   34.020    0.8425
   34.035    0.9654
   34.050    0.8601
   34.065    0.8425
   34.080    0.6670
   34.095    0.8250
   34.110    1.0532
   34.125    0.9303
   34.140    0.9479
   34.155    1.1410
   34.170    0.9654
   34.185    0.8777
   34.200    0.9830
   34.215    0.9479
   34.230    0.8952
   34.245    0.8425
   34.260    0.9303
   34.275    1.0356
   34.290    0.8952
   34.305    0.9128
   34.320    0.8425
   34.335    0.9128
   34.350    0.9654
   34.365    0.7372
   34.380    0.8074
   34.395    0.8250
   34.410    1.0181
   34.425    0.9303
   34.440    0.7021
   34.455    0.8777
   34.470    0.9479
   34.485    0.9479
   34.500    0.7372
   34.515    0.9303
   34.530    1.0532
   34.545    0.9303
   34.560    0.8250
   34.575    0.9830
   34.590    0.8777
   34.605    0.8074
   34.620    0.8074
   34.635    0.9830
   34.650    1.0181
   34.665    0.8777
   34.680    0.8425
   34.695    0.7372
   34.710    0.8425
   34.725    0.9128
   34.740    0.7548
   34.755    0.7899
   34.770    0.7548
   34.785    0.7548
   34.800    0.6319
   34.815    0.7021
   34.830    0.8601
   34.845    1.0532
   34.860    0.8952
   34.875    0.8425
   34.890    0.7723
   34.905    1.0181
   34.920    0.8425
   34.935    0.7723
   34.950    0.9303
   34.965    0.9128
   34.980    0.9303
   34.995    0.7899
   35.010    0.8250
   35.025    0.8250
   35.040    0.8425
   35.055    0.8425
   35.070    0.6495
   35.085    0.8425
   35.100    0.7372
   35.115    0.7723
   35.130    0.9303
   35.145    0.8777
   35.160    0.8250
   35.175    0.8777
   35.190    0.8601
   35.205    0.7899
   35.220    0.9830
   35.235    0.8777
   35.250    0.7899
   35.265    0.8074
   35.280    0.8952
   35.295    0.7548
   35.310    0.8425
   35.325    0.7021
   35.340    0.7723
   35.355    1.1234
   35.370    0.9128
   35.385    0.9830
   35.400    0.9128
   35.415    0.7197
   35.430    1.0356
   35.445    1.1058
   35.460    0.8425
   35.475    0.7548
   35.490    0.8952
   35.505    0.9303
   35.520    0.8074
   35.535    0.9830
   35.550    0.8250
   35.565    0.7899
   35.580    0.7723
   35.595    0.8250
   35.610    0.9654
   35.625    0.6670
   35.640    0.6846
   35.655    0.6670
   35.670    0.8425
   35.685    0.8074
   35.700    0.7548
   35.715    0.8250
   35.730    0.8425
   35.745    0.8425
   35.760    0.9479
   35.775    0.7899
   35.790    0.7899
   35.805    0.8074
   35.820    0.7372
   35.835    0.7372
   35.850    0.7899
   35.865    0.8250
   35.880    0.6670
   35.895    0.6319
   35.910    0.9479
   35.925    1.0181
   35.940    0.9654
   35.955    0.9303
   35.970    1.0532
   35.985    0.9654
   36.000    0.8601
   36.015    0.7372
   36.030    0.8250
   36.045    0.7372
   36.060    0.8250
   36.075    0.7899
   36.090    0.7548
   36.105    0.7372
   36.120    0.8777
   36.135    0.9303
   36.150    0.8777
   36.165    1.0181
   36.180    0.9654
   36.195    0.8777
   36.210    0.7372
   36.225    0.9654
   36.240    0.9303
   36.255    0.8777
   36.270    0.7899
   36.285    0.7197
   36.300    0.8601
   36.315    0.9303
   36.330    0.8250
   36.345    0.7899
   36.360    0.7372
   36.375    0.7723
   36.390    0.8074
   36.405    0.8425
   36.420    0.6846
   36.435    0.8250
   36.450    0.7723
   36.465    0.8250
   36.480    0.7899
   36.495    0.8425
   36.510    0.6846
   36.525    0.8425
   36.540    0.8777
   36.555    0.8074
   36.570    0.7372
   36.585    0.7021
   36.600    0.8777
   36.615    0.7899
   36.630    0.7197
   36.645    0.7548
   36.660    0.7197
   36.675    0.7723
   36.690    0.6670
   36.705    0.7548
   36.720    0.8425
   36.735    0.8074
   36.750    0.8425
   36.765    0.8952
   36.780    0.9830
   36.795    0.8601
   36.810    0.8074
   36.825    0.6846
   36.840    0.7899
   36.855    0.7021
   36.870    0.8601
   36.885    0.7197
   36.900    0.7899
   36.915    0.8777
   36.930    0.7197
   36.945    0.9128
   36.960    1.0532
   36.975    0.9830
   36.990    0.6495
   37.005    0.8074
   37.020    1.0005
   37.035    1.0181
   37.050    0.7723
   37.065    0.7899
   37.080    0.7372
   37.095    0.7723
   37.110    0.8777
   37.125    0.7021
   37.140    0.7899
   37.155    0.8425
   37.170    0.7548
   37.185    0.5968
   37.200    0.6846
   37.215    0.6144
   37.230    0.7021
   37.245    0.8777
   37.260    0.7372
   37.275    0.8074
   37.290    0.8250
   37.305    0.9654
   37.320    0.7021
   37.335    0.7723
   37.350    0.5793
   37.365    0.8425
   37.380    0.8250
   37.395    0.7372
   37.410    0.8250
   37.425    0.8250
   37.440    0.9303
   37.455    0.7372
   37.470    0.8425
   37.485    0.8074
   37.500    0.8074
   37.515    0.9479
   37.530    0.9128
   37.545    0.9303
   37.560    0.9479
   37.575    0.7723
   37.590    0.7723
   37.605    0.8425
   37.620    0.7899
   37.635    0.7723
   37.650    0.8601
   37.665    0.7723
   37.680    0.6846
   37.695    0.7197
   37.710    0.8601
   37.725    0.7372
   37.740    0.8074
   37.755    0.7548
   37.770    0.8074
   37.785    0.9479
   37.800    0.7723
   37.815    0.8074
   37.830    0.7372
   37.845    0.9654
   37.860    0.8777
   37.875    0.8777
   37.890    0.8952
   37.905    0.7372
   37.920    0.5793
   37.935    0.7548
   37.950    0.7197
   37.965    0.7021
   37.980    0.9654
   37.995    0.8777
   38.010    0.7899
   38.025    0.7723
   38.040    0.7021
   38.055    0.6495
   38.070    0.6846
   38.085    0.9303
   38.100    0.9303
   38.115    0.8777
   38.130    0.7372
   38.145    0.8601
   38.160    0.8250
   38.175    0.7548
   38.190    1.0532
   38.205    0.9830
   38.220    0.8425
   38.235    0.7372
   38.250    0.7372
   38.265    0.7021
   38.280    0.6670
   38.295    0.6846
   38.310    0.7372
   38.325    0.7548
   38.340    0.7197
   38.355    0.8074
   38.370    0.7372
   38.385    0.6846
   38.400    0.7197
   38.415    0.7197
   38.430    0.7197
   38.445    0.7372
   38.460    0.7548
   38.475    0.7723
   38.490    0.7197
   38.505    0.7899
   38.520    0.6144
   38.535    0.7723
   38.550    0.8425
   38.565    0.8250
   38.580    0.6670
   38.595    0.7197
   38.610    0.7197
   38.625    0.9303
   38.640    1.0356
   38.655    0.8425
   38.670    0.9128
   38.685    0.7548
   38.700    0.7197
   38.715    0.7548
   38.730    0.6144
   38.745    0.7372
   38.760    0.8425
   38.775    0.7197
   38.790    0.6670
   38.805    0.6144
   38.820    0.9479
   38.835    0.8425
   38.850    0.7021
   38.865    0.8074
   38.880    0.7899
   38.895    0.8074
   38.910    0.7723
   38.925    0.7899
   38.940    0.9479
   38.955    0.7197
   38.970    0.7548
   38.985    0.9654
   39.000    0.7548
   39.015    0.7723
   39.030    0.8074
   39.045    0.7548
   39.060    0.7723
   39.075    0.7899
   39.090    0.8074
   39.105    0.8074
   39.120    0.8425
   39.135    0.8074
   39.150    0.7197
   39.165    0.8777
   39.180    0.7723
   39.195    0.8074
   39.210    0.6670
   39.225    0.6495
   39.240    0.7197
   39.255    0.8952
   39.270    0.8601
   39.285    0.7372
   39.300    0.9479
   39.315    0.8425
   39.330    0.6495
   39.345    0.6319
   39.360    0.7021
   39.375    0.7197
   39.390    0.8952
   39.405    0.7372
   39.420    0.7548
   39.435    0.7548
   39.450    0.6670
   39.465    0.6846
   39.480    0.7548
   39.495    0.7899
   39.510    0.7197
   39.525    0.8250
   39.540    0.7899
   39.555    0.8250
   39.570    0.7723
   39.585    0.7021
   39.600    0.6495
   39.615    0.5968
   39.630    0.7372
   39.645    0.6670
   39.660    0.6495
   39.675    0.7021
   39.690    0.7021
   39.705    0.7899
   39.720    0.5968
   39.735    0.7021
   39.750    0.7197
   39.765    0.6319
   39.780    0.5968
   39.795    0.7197
   39.810    0.8425
   39.825    0.7548
   39.840    0.8777
   39.855    0.7021
   39.870    0.7723
   39.885    0.8250
   39.900    0.6670
   39.915    0.8777
   39.930    0.6670
   39.945    0.8425
   39.960    0.7899
   39.975    0.8425
   39.990    0.8425
