    1.500   17.7567
    1.515   17.6935
    1.530   17.8199
    1.545   17.4829
    1.560   17.2933
    1.575   17.0616
    1.590   16.8194
    1.605   16.5456
    1.620   16.4508
    1.635   16.7246
    1.650   16.2296
    1.665   15.7662
    1.680   15.1975
    1.695   14.8289
    1.710   15.1027
    1.725   15.2501
    1.740   14.7235
    1.755   14.0600
    1.770   13.8705
    1.785   13.8599
    1.800   13.9547
    1.815   14.0600
    1.830   13.8705
    1.845   13.6598
    1.860   13.3965
    1.875   13.0174
    1.890   12.5434
    1.905   12.7751
    1.920   13.0595
    1.935   13.0700
    1.950   12.8067
    1.965   12.3749
    1.980   11.4060
    1.995   11.3112
    2.010   11.4481
    2.025   11.7746
    2.040   11.3744
    2.055   11.5956
    2.070   11.9642
    2.085   11.5113
    2.100   10.5213
    2.115   10.6898
    2.130   10.5951
    2.145   10.7530
    2.160   10.8689
    2.175   10.3212
    2.190   10.3423
    2.205   10.1948
    2.220   10.3844
    2.235    9.9105
    2.250   10.2370
    2.265    9.7525
    2.280    9.8473
    2.295    9.2996
    2.310    9.7736
    2.325    9.4787
    2.340    9.4155
    2.355    9.2996
    2.370    8.6783
    2.385    9.0679
    2.400    9.1732
    2.415    9.0679
    2.430    9.1943
    2.445    8.7098
    2.460    8.7520
    2.475    8.5940
    2.490    8.3623
    2.505    8.5203
    2.520    8.6677
    2.535    8.5940
    2.550    8.0990
    2.565    8.6256
    2.580    8.3834
    2.595    8.1517
    2.610    8.1201
    2.625    8.3412
    2.640    8.3202
    2.655    7.9831
    2.670    8.0885
    2.685    8.1411
    2.700    8.0674
    2.715    7.8462
    2.730    7.7830
    2.745    7.5619
    2.760    8.1938
    2.775    7.6251
    2.790    7.3196
    2.805    7.3512
    2.820    8.1411
    2.835    8.1411
    2.850    7.7199
    2.865    7.9516
    2.880    7.8041
    2.895    7.3934
    2.910    7.7514
    2.925    7.8989
    2.940    7.5303
    2.955    7.7620
    2.970    7.9726
    2.985    7.8673
    3.000    8.2675
    3.015    8.0779
    3.030    7.8989
    3.045    8.0779
    3.060    8.1727
    3.075    8.4676
    3.090    8.8046
    3.105    9.0574
    3.120    9.2680
    3.135    8.8784
    3.150    8.8468
    3.165    9.3944
    3.180    9.2364
    3.195    9.3734
    3.210    9.6998
    3.225   10.2370
    3.240   10.5951
    3.255   10.7741
    3.270   11.4692
    3.285   12.2907
    3.300   12.6172
    3.315   13.0490
    3.330   13.3123
    3.345   14.5972
    3.360   15.3976
    3.375   15.7662
    3.390   16.3033
    3.405   17.5040
    3.420   18.6519
    3.435   19.0627
    3.450   20.0527
    3.465   19.8736
    3.480   19.5471
    3.495   18.0200
    3.510   17.0090
    3.525   16.3665
    3.540   16.6193
    3.555   17.0932
    3.570   18.2096
    3.585   19.0416
    3.600   20.4318
    3.615   21.0532
    3.630   21.1796
    3.645   21.8220
    3.660   22.4013
    3.675   23.4860
    3.690   26.4771
    3.705   29.8999
    3.720   32.2591
    3.735   36.0295
    3.750   39.2101
    3.765   43.7809
    3.780   49.9105
    3.795   56.7457
    3.810   68.2254
    3.825   82.4118
    3.840   93.0069
    3.855   95.8715
    3.870   91.0163
    3.885   78.8204
    3.900   56.9563
    3.915   29.7841
    3.930   13.5229
    3.945    9.3312
    3.960    8.7520
    3.975    8.0147
    3.990    8.1411
    4.005    8.4150
    4.020    8.7414
    4.035    7.8252
    4.050    7.8673
    4.065    7.8568
    4.080    7.9410
    4.095    7.6461
    4.110    7.5619
    4.125    7.1511
    4.140    7.2249
    4.155    6.8668
    4.170    6.9194
    4.185    6.4876
    4.200    6.4139
    4.215    6.1611
    4.230    6.2243
    4.245    5.9821
    4.260    5.7715
    4.275    5.5924
    4.290    5.4555
    4.305    5.4134
    4.320    5.4028
    4.335    4.9394
    4.350    5.0026
    4.365    4.8657
    4.380    4.6024
    4.395    4.4655
    4.410    4.6761
    4.425    4.5392
    4.440    4.7920
    4.455    4.7604
    4.470    4.5498
    4.485    4.4760
    4.500    4.2865
    4.515    4.8025
    4.530    4.6235
    4.545    4.3707
    4.560    4.5287
    4.575    4.6445
    4.590    4.3918
    4.605    4.4760
    4.620    4.3813
    4.635    4.3813
    4.650    4.4444
    4.665    4.4655
    4.680    4.3497
    4.695    4.2970
    4.710    3.9284
    4.725    4.1811
    4.740    4.4023
    4.755    4.2022
    4.770    4.3391
    4.785    4.3391
    4.800    4.0337
    4.815    4.1601
    4.830    4.3497
    4.845    4.5076
    4.860    4.0969
    4.875    4.2022
    4.890    4.1917
    4.905    4.2759
    4.920    4.1074
    4.935    4.2970
    4.950    4.1601
    4.965    4.2443
    4.980    4.3286
    4.995    4.0758
    5.010    4.0864
    5.025    4.1601
    5.040    4.3497
    5.055    4.8025
    5.070    4.6130
    5.085    4.5919
    5.100    4.5287
    5.115    4.5498
    5.130    4.7920
    5.145    4.9394
    5.160    5.2975
    5.175    5.2027
    5.190    5.2554
    5.205    5.1290
    5.220    5.4450
    5.235    6.0242
    5.250    6.3612
    5.265    6.7404
    5.280    6.7193
    5.295    6.5719
    5.310    7.9937
    5.325    8.7414
    5.340    9.2154
    5.355   10.2264
    5.370   11.1954
    5.385   11.8799
    5.400   12.7120
    5.415   15.5240
    5.430   19.7894
    5.445   22.4329
    5.460   25.9294
    5.475   27.0248
    5.490   26.6456
    5.505   22.1590
    5.520   15.8715
    5.535    9.7736
    5.550    5.8347
    5.565    4.1601
    5.580    3.8547
    5.595    3.9705
    5.610    3.5492
    5.625    3.7493
    5.640    3.6862
    5.655    3.5176
    5.670    3.7599
    5.685    3.8547
    5.700    3.4334
    5.715    3.5387
    5.730    3.5808
    5.745    3.8757
    5.760    3.8547
    5.775    3.2965
    5.790    3.0648
    5.805    3.4860
    5.820    3.7072
    5.835    3.5387
    5.850    3.5492
    5.865    3.6651
    5.880    3.2333
    5.895    3.4229
    5.910    3.4755
    5.925    3.5282
    5.940    3.6335
    5.955    3.4229
    5.970    3.3491
    5.985    3.4018
    6.000    3.4439
    6.015    3.4123
    6.030    3.5071
    6.045    3.5387
    6.060    3.2649
    6.075    3.6967
    6.090    3.4966
    6.105    3.6862
    6.120    3.7283
    6.135    3.8336
    6.150    3.8652
    6.165    3.6230
    6.180    3.3175
    6.195    3.4544
    6.210    3.3807
    6.225    3.5492
    6.240    3.6440
    6.255    3.3702
    6.270    3.5703
    6.285    3.4544
    6.300    3.5176
    6.315    3.6862
    6.330    3.4966
    6.345    3.6019
    6.360    3.5703
    6.375    3.4544
    6.390    3.5071
    6.405    3.8441
    6.420    3.6230
    6.435    3.7072
    6.450    3.4123
    6.465    3.8757
    6.480    3.7388
    6.495    3.8441
    6.510    4.0758
    6.525    4.2759
    6.540    4.2233
    6.555    4.5287
    6.570    4.6761
    6.585    4.9710
    6.600    4.8341
    6.615    5.1185
    6.630    5.3081
    6.645    5.8347
    6.660    6.1822
    6.675    6.9721
    6.690    7.7725
    6.705    8.7625
    6.720    9.0785
    6.735    9.2891
    6.750    8.2149
    6.765    6.6667
    6.780    5.5819
    6.795    4.2443
    6.810    3.7599
    6.825    3.6124
    6.840    4.0021
    6.855    3.8757
    6.870    3.8547
    6.885    4.1390
    6.900    4.0548
    6.915    3.9073
    6.930    3.9600
    6.945    4.2022
    6.960    3.9916
    6.975    4.3813
    6.990    4.2233
    7.005    4.0758
    7.020    3.9284
    7.035    3.7388
    7.050    3.4755
    7.065    3.4860
    7.080    3.3807
    7.095    3.6651
    7.110    3.5914
    7.125    3.6440
    7.140    3.6230
    7.155    3.3070
    7.170    3.2333
    7.185    3.3913
    7.200    3.5282
    7.215    3.4544
    7.230    3.6019
    7.245    3.4755
    7.260    3.3070
    7.275    3.5492
    7.290    3.3070
    7.305    3.5703
    7.320    3.5282
    7.335    3.6335
    7.350    3.7072
    7.365    3.5703
    7.380    3.5492
    7.395    3.4966
    7.410    3.5492
    7.425    3.6440
    7.440    3.7283
    7.455    3.5703
    7.470    3.2438
    7.485    3.5282
    7.500    3.4966
    7.515    3.7809
    7.530    3.5914
    7.545    3.7915
    7.560    3.7809
    7.575    3.8020
    7.590    4.1180
    7.605    4.0969
    7.620    4.5076
    7.635    4.3181
    7.650    4.3181
    7.665    4.7604
    7.680    5.2975
    7.695    5.2870
    7.710    6.0769
    7.725    6.3402
    7.740    7.0248
    7.755    7.5724
    7.770    8.2780
    7.785    8.7520
    7.800    8.4466
    7.815    6.6035
    7.830    5.1290
    7.845    4.1706
    7.860    3.7599
    7.875    3.8020
    7.890    3.6546
    7.905    3.4755
    7.920    3.4650
    7.935    3.7809
    7.950    3.6440
    7.965    3.5914
    7.980    3.4860
    7.995    3.7809
    8.010    3.6019
    8.025    3.5808
    8.040    3.4123
    8.055    3.6124
    8.070    3.8020
    8.085    4.0548
    8.100    3.8231
    8.115    3.7493
    8.130    3.7072
    8.145    3.5598
    8.160    3.5282
    8.175    3.4334
    8.190    3.5071
    8.205    3.4018
    8.220    3.4860
    8.235    3.8441
    8.250    3.8441
    8.265    3.9284
    8.280    3.6651
    8.295    3.6862
    8.310    3.6546
    8.325    3.5071
    8.340    3.8652
    8.355    3.5808
    8.370    3.6756
    8.385    3.7704
    8.400    3.7388
    8.415    3.5808
    8.430    3.6756
    8.445    3.6651
    8.460    3.4966
    8.475    3.5598
    8.490    3.4650
    8.505    3.6124
    8.520    3.5914
    8.535    3.4860
    8.550    3.6335
    8.565    3.5703
    8.580    3.5282
    8.595    3.6967
    8.610    3.6546
    8.625    3.6862
    8.640    3.8125
    8.655    3.8652
    8.670    3.7283
    8.685    3.7493
    8.700    3.8968
    8.715    3.9284
    8.730    3.8020
    8.745    3.5492
    8.760    3.6230
    8.775    3.4229
    8.790    3.1806
    8.805    3.6124
    8.820    3.5282
    8.835    3.3702
    8.850    2.9910
    8.865    3.2754
    8.880    3.4229
    8.895    3.4544
    8.910    3.4334
    8.925    3.4755
    8.940    3.3386
    8.955    3.4334
    8.970    3.2754
    8.985    3.3281
    9.000    3.2438
    9.015    3.3597
    9.030    3.3807
    9.045    3.4755
    9.060    3.3597
    9.075    3.3491
    9.090    3.4755
    9.105    3.5914
    9.120    3.5176
    9.135    3.2017
    9.150    3.1596
    9.165    3.2754
    9.180    3.4966
    9.195    3.6019
    9.210    3.4123
    9.225    3.1701
    9.240    3.5071
    9.255    3.6546
    9.270    3.4966
    9.285    3.5492
    9.300    3.4018
    9.315    3.5387
    9.330    3.8441
    9.345    3.9810
    9.360    4.1601
    9.375    4.1601
    9.390    4.3391
    9.405    4.4444
    9.420    4.8763
    9.435    5.4450
    9.450    5.8873
    9.465    6.6772
    9.480    7.7936
    9.495    9.7209
    9.510   11.7852
    9.525   14.3549
    9.540   14.0284
    9.555   13.0279
    9.570   10.2264
    9.585    7.4566
    9.600    5.4344
    9.615    4.1074
    9.630    3.7072
    9.645    3.6546
    9.660    3.2017
    9.675    3.2122
    9.690    3.3175
    9.705    3.2122
    9.720    3.3702
    9.735    3.2227
    9.750    3.2227
    9.765    3.3175
    9.780    3.2754
    9.795    3.2438
    9.810    3.3281
    9.825    3.2543
    9.840    3.1174
    9.855    3.0753
    9.870    3.1280
    9.885    2.9279
    9.900    2.9279
    9.915    3.3175
    9.930    3.4229
    9.945    3.2333
    9.960    3.3913
    9.975    3.2438
    9.990    3.4334
   10.005    3.2859
   10.020    3.1280
   10.035    3.2543
   10.050    2.8963
   10.065    3.3702
   10.080    3.6440
   10.095    3.2649
   10.110    3.4544
   10.125    3.7704
   10.140    3.6335
   10.155    3.4544
   10.170    3.6440
   10.185    3.6967
   10.200    3.9073
   10.215    4.2759
   10.230    4.1180
   10.245    4.8025
   10.260    5.0448
   10.275    5.4344
   10.290    6.4034
   10.305    6.7404
   10.320    6.4244
   10.335    5.8873
   10.350    5.1711
   10.365    4.2865
   10.380    3.7704
   10.395    3.5176
   10.410    3.5492
   10.425    3.2543
   10.440    3.1069
   10.455    3.0332
   10.470    3.3386
   10.485    3.1069
   10.500    3.2122
   10.515    3.3913
   10.530    3.3597
   10.545    3.0964
   10.560    3.2649
   10.575    3.3597
   10.590    3.2438
   10.605    2.9173
   10.620    3.3281
   10.635    3.1912
   10.650    3.3597
   10.665    3.2122
   10.680    3.3913
   10.695    3.1912
   10.710    3.4439
   10.725    3.4966
   10.740    3.1806
   10.755    2.8436
   10.770    3.1806
   10.785    3.3175
   10.800    3.2965
   10.815    3.0753
   10.830    3.3597
   10.845    3.2333
   10.860    3.4966
   10.875    3.5282
   10.890    3.6756
   10.905    3.9810
   10.920    3.8231
   10.935    4.0548
   10.950    4.3918
   10.965    4.6130
   10.980    5.2765
   10.995    5.5082
   11.010    5.8347
   11.025    6.0242
   11.040    6.0874
   11.055    5.9400
   11.070    4.7604
   11.085    4.3918
   11.100    3.5071
   11.115    3.4123
   11.130    3.5598
   11.145    3.3491
   11.160    3.1912
   11.175    3.2333
   11.190    2.9489
   11.205    3.2333
   11.220    3.0226
   11.235    3.2227
   11.250    3.1806
   11.265    3.1701
   11.280    3.0121
   11.295    3.0964
   11.310    3.0016
   11.325    2.8331
   11.340    3.1490
   11.355    3.1490
   11.370    3.1806
   11.385    2.6646
   11.400    3.2017
   11.415    3.2649
   11.430    3.0858
   11.445    3.0858
   11.460    3.4123
   11.475    3.3070
   11.490    3.2438
   11.505    3.1280
   11.520    3.2017
   11.535    3.1806
   11.550    3.2333
   11.565    3.5598
   11.580    3.7177
   11.595    3.8125
   11.610    4.3391
   11.625    4.2443
   11.640    4.7393
   11.655    5.4871
   11.670    5.7399
   11.685    6.5508
   11.700    6.8668
   11.715    6.7720
   11.730    6.3402
   11.745    5.0132
   11.760    4.2233
   11.775    3.6440
   11.790    3.1596
   11.805    3.2333
   11.820    2.9489
   11.835    3.1912
   11.850    3.0437
   11.865    3.0858
   11.880    3.2754
   11.895    2.8436
   11.910    2.9384
   11.925    3.1490
   11.940    3.4966
   11.955    3.2754
   11.970    3.2649
   11.985    2.9700
   12.000    3.0964
   12.015    3.3386
   12.030    2.9910
   12.045    3.0121
   12.060    3.1280
   12.075    3.0121
   12.090    3.0226
   12.105    2.8857
   12.120    3.0648
   12.135    3.0016
   12.150    3.1385
   12.165    3.1174
   12.180    3.1490
   12.195    2.9595
   12.210    3.0964
   12.225    3.1280
   12.240    2.9384
   12.255    2.9279
   12.270    3.3491
   12.285    3.1912
   12.300    3.3597
   12.315    3.6019
   12.330    3.4966
   12.345    3.6019
   12.360    3.5598
   12.375    3.4334
   12.390    3.4018
   12.405    3.3386
   12.420    2.9700
   12.435    2.9173
   12.450    3.1280
   12.465    2.9173
   12.480    3.0121
   12.495    3.0437
   12.510    3.0016
   12.525    3.1174
   12.540    3.0858
   12.555    3.1701
   12.570    3.1490
   12.585    2.8541
   12.600    2.9173
   12.615    3.0121
   12.630    2.8541
   12.645    3.1701
   12.660    3.1174
   12.675    2.9805
   12.690    3.0016
   12.705    2.9384
   12.720    3.0226
   12.735    3.3070
   12.750    2.9384
   12.765    3.0226
   12.780    3.1069
   12.795    3.2017
   12.810    3.2965
   12.825    3.2438
   12.840    3.2333
   12.855    3.3597
   12.870    3.4966
   12.885    4.1074
   12.900    4.3075
   12.915    5.1395
   12.930    4.9394
   12.945    5.3186
   12.960    5.4976
   12.975    4.9289
   12.990    4.2443
   13.005    4.0653
   13.020    3.3913
   13.035    3.1385
   13.050    3.0332
   13.065    2.8331
   13.080    3.0437
   13.095    3.3702
   13.110    3.2649
   13.125    3.1280
   13.140    3.1385
   13.155    3.0437
   13.170    2.9173
   13.185    3.0121
   13.200    2.9173
   13.215    2.8436
   13.230    3.0858
   13.245    3.1174
   13.260    3.0648
   13.275    2.8647
   13.290    2.8752
   13.305    2.9068
   13.320    2.8752
   13.335    2.8857
   13.350    2.8963
   13.365    2.9700
   13.380    2.8015
   13.395    3.0016
   13.410    3.1069
   13.425    3.0226
   13.440    3.3386
   13.455    3.4334
   13.470    3.5598
   13.485    3.8968
   13.500    4.0021
   13.515    3.8652
   13.530    4.0337
   13.545    3.9389
   13.560    3.7072
   13.575    3.6651
   13.590    3.1912
   13.605    2.8857
   13.620    3.2859
   13.635    2.9805
   13.650    3.0226
   13.665    3.0964
   13.680    2.7699
   13.695    3.0964
   13.710    3.1490
   13.725    3.0964
   13.740    3.0121
   13.755    3.1069
   13.770    3.0753
   13.785    2.8436
   13.800    3.2017
   13.815    3.0648
   13.830    3.2859
   13.845    3.1280
   13.860    2.9595
   13.875    2.9384
   13.890    3.0226
   13.905    3.1280
   13.920    3.1912
   13.935    3.0226
   13.950    2.9700
   13.965    3.0437
   13.980    3.3281
   13.995    3.2754
   14.010    3.3597
   14.025    3.5914
   14.040    4.2338
   14.055    4.5603
   14.070    4.6130
   14.085    4.9289
   14.100    4.7499
   14.115    4.2970
   14.130    4.0864
   14.145    3.6967
   14.160    3.3281
   14.175    3.1280
   14.190    3.0016
   14.205    2.8647
   14.220    2.9068
   14.235    2.9068
   14.250    3.0542
   14.265    2.8120
   14.280    2.8647
   14.295    3.0016
   14.310    3.0753
   14.325    2.7067
   14.340    2.7699
   14.355    2.8120
   14.370    2.9068
   14.385    3.0437
   14.400    2.8857
   14.415    2.9489
   14.430    2.9068
   14.445    2.9279
   14.460    2.9068
   14.475    2.6330
   14.490    2.8331
   14.505    2.8436
   14.520    2.9173
   14.535    3.0542
   14.550    2.8647
   14.565    3.0542
   14.580    2.6330
   14.595    2.9489
   14.610    3.1596
   14.625    2.7699
   14.640    2.8857
   14.655    2.7699
   14.670    2.7699
   14.685    2.9700
   14.700    2.8331
   14.715    2.9805
   14.730    3.2122
   14.745    3.0332
   14.760    3.0753
   14.775    2.9910
   14.790    2.9173
   14.805    2.8857
   14.820    3.0332
   14.835    2.8752
   14.850    2.9068
   14.865    3.0964
   14.880    2.9384
   14.895    2.8331
   14.910    2.9700
   14.925    2.8331
   14.940    2.9068
   14.955    2.9384
   14.970    2.9173
   14.985    2.9595
   15.000    3.0753
   15.015    3.1806
   15.030    2.9805
   15.045    3.1280
   15.060    3.0226
   15.075    3.0964
   15.090    3.0753
   15.105    3.3070
   15.120    3.3175
   15.135    3.3807
   15.150    3.5387
   15.165    3.0332
   15.180    3.1069
   15.195    3.1385
   15.210    2.8857
   15.225    3.0858
   15.240    3.0226
   15.255    3.2333
   15.270    3.1385
   15.285    2.8015
   15.300    3.0753
   15.315    2.8647
   15.330    3.0437
   15.345    2.8120
   15.360    2.8015
   15.375    2.9279
   15.390    3.0858
   15.405    3.0332
   15.420    2.7699
   15.435    2.7067
   15.450    2.9384
   15.465    2.9279
   15.480    3.1280
   15.495    3.1596
   15.510    3.0016
   15.525    2.8752
   15.540    3.0648
   15.555    2.9489
   15.570    2.8225
   15.585    2.7909
   15.600    3.1069
   15.615    2.9489
   15.630    3.0016
   15.645    3.0437
   15.660    2.9805
   15.675    3.0226
   15.690    2.9173
   15.705    2.8225
   15.720    3.1069
   15.735    2.7383
   15.750    3.0016
   15.765    2.7488
   15.780    2.9173
   15.795    3.2859
   15.810    3.2649
   15.825    2.8331
   15.840    2.8963
   15.855    2.7172
   15.870    2.7804
   15.885    2.9595
   15.900    3.0226
   15.915    3.2965
   15.930    2.8857
   15.945    2.7488
   15.960    3.1490
   15.975    3.0964
   15.990    2.9595
   16.005    2.7278
   16.020    2.9805
   16.035    3.1385
   16.050    3.2122
   16.065    3.2122
   16.080    3.4018
   16.095    3.2227
   16.110    3.3070
   16.125    3.5387
   16.140    3.6124
   16.155    3.1806
   16.170    3.2438
   16.185    3.1701
   16.200    2.8120
   16.215    2.9068
   16.230    2.9279
   16.245    2.9700
   16.260    3.1490
   16.275    2.7909
   16.290    2.7909
   16.305    2.9279
   16.320    2.9910
   16.335    2.9910
   16.350    2.5698
   16.365    2.7909
   16.380    2.8963
   16.395    2.9595
   16.410    2.8963
   16.425    2.9595
   16.440    2.9700
   16.455    2.9384
   16.470    3.0332
   16.485    3.1174
   16.500    3.1490
   16.515    3.0964
   16.530    2.9595
   16.545    3.3491
   16.560    3.6440
   16.575    3.4334
   16.590    3.6440
   16.605    3.3175
   16.620    3.4650
   16.635    3.8336
   16.650    3.3175
   16.665    3.2754
   16.680    2.9595
   16.695    2.8331
   16.710    2.9279
   16.725    3.0226
   16.740    2.9384
   16.755    2.6751
   16.770    3.0753
   16.785    3.2122
   16.800    3.0016
   16.815    2.8857
   16.830    2.8225
   16.845    3.0964
   16.860    2.9173
   16.875    3.2333
   16.890    2.9489
   16.905    3.1069
   16.920    2.9489
   16.935    2.9595
   16.950    3.0858
   16.965    3.2333
   16.980    3.2122
   16.995    3.4544
   17.010    3.8231
   17.025    4.0864
   17.040    4.4234
   17.055    4.8131
   17.070    4.5814
   17.085    4.3181
   17.100    4.0548
   17.115    3.7915
   17.130    3.3597
   17.145    3.1490
   17.160    3.0016
   17.175    2.9384
   17.190    3.0226
   17.205    2.7488
   17.220    2.9173
   17.235    3.2122
   17.250    3.0121
   17.265    2.9384
   17.280    3.0121
   17.295    2.6435
   17.310    2.8225
   17.325    2.9279
   17.340    2.8225
   17.355    2.9700
   17.370    2.8225
   17.385    2.8752
   17.400    2.8331
   17.415    2.7909
   17.430    3.0332
   17.445    2.8331
   17.460    3.0542
   17.475    3.1912
   17.490    3.3175
   17.505    3.5598
   17.520    3.3702
   17.535    3.1701
   17.550    3.0121
   17.565    2.8963
   17.580    2.9173
   17.595    2.8752
   17.610    3.1385
   17.625    3.0332
   17.640    2.9279
   17.655    2.7909
   17.670    2.8015
   17.685    2.9384
   17.700    3.0016
   17.715    2.7909
   17.730    2.6751
   17.745    3.0437
   17.760    2.8541
   17.775    2.7593
   17.790    2.8857
   17.805    2.8752
   17.820    3.1280
   17.835    2.8752
   17.850    3.0016
   17.865    3.0226
   17.880    3.2859
   17.895    3.2649
   17.910    3.3597
   17.925    3.3491
   17.940    3.3281
   17.955    3.2965
   17.970    3.1912
   17.985    3.1385
   18.000    3.2859
   18.015    3.3386
   18.030    2.9805
   18.045    2.7909
   18.060    2.9595
   18.075    2.7699
   18.090    3.0226
   18.105    2.9173
   18.120    3.1069
   18.135    2.6540
   18.150    2.7909
   18.165    3.0858
   18.180    3.0226
   18.195    3.0964
   18.210    2.9279
   18.225    2.9173
   18.240    3.1701
   18.255    2.9173
   18.270    2.7383
   18.285    2.8963
   18.300    3.2754
   18.315    3.4544
   18.330    3.1280
   18.345    3.3702
   18.360    3.5492
   18.375    3.4123
   18.390    3.4966
   18.405    3.4966
   18.420    3.2754
   18.435    3.0016
   18.450    2.8436
   18.465    2.8541
   18.480    2.9910
   18.495    2.8436
   18.510    2.7383
   18.525    2.9910
   18.540    3.1490
   18.555    3.3597
   18.570    2.8436
   18.585    3.1069
   18.600    2.9805
   18.615    2.9805
   18.630    2.9384
   18.645    2.9805
   18.660    3.2122
   18.675    3.0964
   18.690    2.8015
   18.705    2.9805
   18.720    2.9173
   18.735    3.0332
   18.750    2.8963
   18.765    3.0016
   18.780    3.0332
   18.795    3.0121
   18.810    3.0332
   18.825    3.0753
   18.840    2.9595
   18.855    3.1280
   18.870    2.9068
   18.885    3.0437
   18.900    3.3913
   18.915    3.4123
   18.930    3.4229
   18.945    3.8231
   18.960    3.7493
   18.975    4.0969
   18.990    4.2338
   19.005    3.9073
   19.020    3.7493
   19.035    3.4860
   19.050    3.3597
   19.065    3.3491
   19.080    3.1701
   19.095    2.9700
   19.110    3.1280
   19.125    3.0437
   19.140    3.1490
   19.155    3.0437
   19.170    3.0648
   19.185    3.0648
   19.200    2.9910
   19.215    3.1280
   19.230    2.8225
   19.245    3.0437
   19.260    3.2122
   19.275    3.2122
   19.290    3.2754
   19.305    3.0332
   19.320    3.2859
   19.335    2.7804
   19.350    2.8331
   19.365    3.0437
   19.380    3.1385
   19.395    3.2333
   19.410    2.8120
   19.425    2.7383
   19.440    2.9805
   19.455    2.9279
   19.470    3.1912
   19.485    3.1596
   19.500    3.1806
   19.515    3.3913
   19.530    3.0542
   19.545    3.7809
   19.560    3.4123
   19.575    3.3913
   19.590    3.2754
   19.605    3.2649
   19.620    3.7283
   19.635    3.1280
   19.650    3.2438
   19.665    3.2438
   19.680    3.2438
   19.695    3.1806
   19.710    3.0648
   19.725    3.1280
   19.740    2.8331
   19.755    2.9068
   19.770    2.9805
   19.785    2.9173
   19.800    3.0332
   19.815    2.9700
   19.830    2.7699
   19.845    2.7804
   19.860    2.8225
   19.875    3.0964
   19.890    3.0016
   19.905    2.8857
   19.920    3.0437
   19.935    3.0226
   19.950    3.1385
   19.965    2.8436
   19.980    3.0121
   19.995    2.9595
   20.010    3.0753
   20.025    3.2122
   20.040    3.3386
   20.055    3.2017
   20.070    3.0964
   20.085    3.2333
   20.100    3.0648
   20.115    3.1385
   20.130    2.8647
   20.145    3.0753
   20.160    3.1490
   20.175    3.1385
   20.190    3.0542
   20.205    3.1385
   20.220    3.1385
   20.235    2.9279
   20.250    2.9068
   20.265    3.1490
   20.280    3.0858
   20.295    3.2017
   20.310    3.1701
   20.325    3.8863
   20.340    4.0653
   20.355    4.0758
   20.370    4.0969
   20.385    4.2549
   20.400    4.0548
   20.415    3.6230
   20.430    3.3597
   20.445    3.7283
   20.460    3.4544
   20.475    3.0753
   20.490    2.8647
   20.505    3.1280
   20.520    2.9805
   20.535    3.0753
   20.550    2.8857
   20.565    2.9700
   20.580    2.9700
   20.595    3.1174
   20.610    3.0121
   20.625    3.3281
   20.640    3.1701
   20.655    2.8120
   20.670    3.1490
   20.685    2.9595
   20.700    3.0964
   20.715    2.9805
   20.730    3.1280
   20.745    3.0858
   20.760    3.2227
   20.775    3.1174
   20.790    3.0858
   20.805    3.1806
   20.820    3.0964
   20.835    3.0753
   20.850    2.9910
   20.865    3.0858
   20.880    3.2122
   20.895    3.0753
   20.910    3.1069
   20.925    2.9384
   20.940    3.1912
   20.955    2.9700
   20.970    2.8225
   20.985    3.0542
   21.000    3.2649
   21.015    3.0648
   21.030    3.1069
   21.045    2.8647
   21.060    3.1490
   21.075    3.0332
   21.090    2.8857
   21.105    3.0332
   21.120    3.0121
   21.135    3.3070
   21.150    3.0121
   21.165    3.0964
   21.180    3.0542
   21.195    3.1385
   21.210    3.0226
   21.225    3.0332
   21.240    3.0753
   21.255    3.0121
   21.270    3.0121
   21.285    3.2965
   21.300    2.9595
   21.315    3.2543
   21.330    3.0121
   21.345    3.0542
   21.360    2.8331
   21.375    2.8857
   21.390    3.0332
   21.405    3.2227
   21.420    3.3070
   21.435    3.0753
   21.450    2.8647
   21.465    2.9910
   21.480    3.3175
   21.495    3.1385
   21.510    3.1280
   21.525    3.2227
   21.540    3.0437
   21.555    2.9068
   21.570    2.7699
   21.585    2.9489
   21.600    2.8647
   21.615    2.6751
   21.630    3.0226
   21.645    3.0332
   21.660    3.1385
   21.675    2.9173
   21.690    3.0858
   21.705    3.2859
   21.720    3.0648
   21.735    3.0332
   21.750    3.0016
   21.765    3.0964
   21.780    3.0858
   21.795    3.2438
   21.810    3.4755
   21.825    3.4544
   21.840    3.5914
   21.855    3.5492
   21.870    3.6230
   21.885    3.3913
   21.900    3.2754
   21.915    3.2438
   21.930    3.1490
   21.945    3.0858
   21.960    2.9279
   21.975    3.2017
   21.990    3.0753
   22.005    3.3070
   22.020    3.1596
   22.035    3.0016
   22.050    3.3807
   22.065    3.4018
   22.080    2.9595
   22.095    3.0121
   22.110    3.0016
   22.125    3.2543
   22.140    3.3702
   22.155    3.3070
   22.170    3.5282
   22.185    3.1385
   22.200    3.4018
   22.215    3.2859
   22.230    3.2543
   22.245    3.2649
   22.260    3.2754
   22.275    3.3175
   22.290    3.1385
   22.305    3.3913
   22.320    3.0858
   22.335    2.8331
   22.350    2.7067
   22.365    2.8120
   22.380    2.9700
   22.395    3.2649
   22.410    3.0964
   22.425    3.2859
   22.440    3.1069
   22.455    3.1490
   22.470    3.4755
   22.485    3.5071
   22.500    3.4860
   22.515    3.8020
   22.530    4.2338
   22.545    4.5603
   22.560    4.4128
   22.575    4.3707
   22.590    4.6130
   22.605    3.8968
   22.620    3.8547
   22.635    3.7493
   22.650    3.5387
   22.665    3.0226
   22.680    2.7699
   22.695    3.1069
   22.710    3.1385
   22.725    2.8857
   22.740    2.8857
   22.755    2.8857
   22.770    3.0016
   22.785    3.0542
   22.800    2.9279
   22.815    3.2227
   22.830    3.4755
   22.845    3.6756
   22.860    3.8231
   22.875    4.0232
   22.890    4.2970
   22.905    4.5076
   22.920    4.5498
   22.935    4.1390
   22.950    4.3391
   22.965    4.1390
   22.980    3.7493
   22.995    3.3807
   23.010    3.1174
   23.025    2.8331
   23.040    3.3386
   23.055    3.2333
   23.070    2.9595
   23.085    3.2333
   23.100    3.3597
   23.115    3.5914
   23.130    3.2017
   23.145    3.3175
   23.160    3.2965
   23.175    3.2122
   23.190    3.4018
   23.205    3.0226
   23.220    3.4860
   23.235    3.4966
   23.250    3.6230
   23.265    3.4439
   23.280    3.6651
   23.295    3.3175
   23.310    3.0437
   23.325    2.9279
   23.340    3.1806
   23.355    3.2754
   23.370    3.2965
   23.385    3.1069
   23.400    3.1490
   23.415    3.2438
   23.430    3.2227
   23.445    3.2965
   23.460    3.0226
   23.475    2.9805
   23.490    2.9384
   23.505    3.0016
   23.520    3.2017
   23.535    3.1490
   23.550    2.9595
   23.565    3.1596
   23.580    3.1490
   23.595    3.1280
   23.610    3.2965
   23.625    3.0542
   23.640    3.0016
   23.655    3.0437
   23.670    2.7804
   23.685    2.9595
   23.700    2.9910
   23.715    2.7278
   23.730    3.0226
   23.745    3.1174
   23.760    3.0437
   23.775    3.1912
   23.790    3.1596
   23.805    3.2122
   23.820    2.9910
   23.835    3.1596
   23.850    3.0437
   23.865    3.1701
   23.880    3.3070
   23.895    3.3491
   23.910    3.6440
   23.925    3.1701
   23.940    3.1912
   23.955    3.1385
   23.970    2.9489
   23.985    3.2543
   24.000    2.8647
   24.015    3.1806
   24.030    3.0648
   24.045    2.9384
   24.060    2.8225
   24.075    3.0542
   24.090    2.9805
   24.105    2.9595
   24.120    3.0858
   24.135    2.9173
   24.150    3.0121
   24.165    2.8225
   24.180    2.9805
   24.195    3.1490
   24.210    3.0437
   24.225    3.0016
   24.240    3.0016
   24.255    3.1806
   24.270    3.1701
   24.285    3.1806
   24.300    3.0858
   24.315    3.0226
   24.330    3.0016
   24.345    2.9910
   24.360    3.0964
   24.375    2.7383
   24.390    2.8331
   24.405    2.8331
   24.420    2.8647
   24.435    2.8015
   24.450    2.9279
   24.465    3.2333
   24.480    3.0226
   24.495    3.1701
   24.510    3.1912
   24.525    3.2017
   24.540    3.2965
   24.555    2.9279
   24.570    3.1806
   24.585    3.1385
   24.600    3.1069
   24.615    2.9595
   24.630    3.0226
   24.645    3.0016
   24.660    3.0964
   24.675    3.0332
   24.690    3.1490
   24.705    3.1701
   24.720    2.9700
   24.735    2.7593
   24.750    2.7488
   24.765    2.8436
   24.780    3.0332
   24.795    2.8225
   24.810    3.0648
   24.825    3.2754
   24.840    3.0964
   24.855    3.0121
   24.870    2.9805
   24.885    2.9384
   24.900    3.1490
   24.915    2.8225
   24.930    3.2122
   24.945    2.9384
   24.960    3.0332
   24.975    2.9384
   24.990    2.9279
   25.005    2.9173
   25.020    2.9384
   25.035    2.8857
   25.050    2.8857
   25.065    3.0121
   25.080    2.7383
   25.095    3.0858
   25.110    2.9279
   25.125    2.8541
   25.140    2.9068
   25.155    3.2333
   25.170    3.3702
   25.185    3.1596
   25.200    3.1490
   25.215    3.1596
   25.230    3.1596
   25.245    2.9384
   25.260    3.2754
   25.275    3.3070
   25.290    2.9279
   25.305    3.1280
   25.320    3.0121
   25.335    2.8331
   25.350    2.8752
   25.365    3.0226
   25.380    2.9910
   25.395    2.6856
   25.410    2.8541
   25.425    2.9068
   25.440    2.8963
   25.455    2.8647
   25.470    3.2543
   25.485    3.1596
   25.500    2.9700
   25.515    2.9595
   25.530    3.2122
   25.545    3.2227
   25.560    3.1912
   25.575    3.0121
   25.590    2.9279
   25.605    3.0753
   25.620    2.8857
   25.635    3.0437
   25.650    2.8647
   25.665    2.6962
   25.680    2.8225
   25.695    2.7699
   25.710    3.2227
   25.725    3.3491
   25.740    3.2227
   25.755    3.2859
   25.770    3.6862
   25.785    3.7704
   25.800    3.9073
   25.815    3.8020
   25.830    3.6124
   25.845    3.7388
   25.860    3.5176
   25.875    3.3491
   25.890    3.2122
   25.905    3.1912
   25.920    2.8120
   25.935    3.0437
   25.950    2.8120
   25.965    2.7278
   25.980    2.6962
   25.995    2.7699
   26.010    2.9489
   26.025    2.6540
   26.040    2.6962
   26.055    2.7383
   26.070    2.5908
   26.085    2.5698
   26.100    2.7593
   26.115    2.6330
   26.130    2.5803
   26.145    2.8120
   26.160    3.2227
   26.175    2.9068
   26.190    2.9173
   26.205    3.1280
   26.220    3.0648
   26.235    2.9805
   26.250    2.8436
   26.265    2.7593
   26.280    2.7909
   26.295    2.9173
   26.310    2.9595
   26.325    2.8647
   26.340    2.9173
   26.355    2.9805
   26.370    2.9910
   26.385    2.9068
   26.400    3.0437
   26.415    3.1069
   26.430    2.8225
   26.445    3.0437
   26.460    3.2122
   26.475    3.2965
   26.490    3.0648
   26.505    2.7172
   26.520    2.6119
   26.535    2.9700
   26.550    2.7593
   26.565    2.8015
   26.580    2.7278
   26.595    2.7278
   26.610    3.0332
   26.625    3.3175
   26.640    2.9489
   26.655    2.9595
   26.670    2.8120
   26.685    2.6014
   26.700    2.7067
   26.715    2.6751
   26.730    2.7488
   26.745    3.0121
   26.760    2.8541
   26.775    2.7278
   26.790    2.6330
   26.805    2.9279
   26.820    2.9384
   26.835    2.6540
   26.850    2.7699
   26.865    3.0226
   26.880    2.9489
   26.895    2.9805
   26.910    2.7804
   26.925    2.9700
   26.940    2.9384
   26.955    3.0121
   26.970    3.1280
   26.985    2.8857
   27.000    3.1069
   27.015    2.8331
   27.030    2.9279
   27.045    3.1280
   27.060    3.3175
   27.075    3.0964
   27.090    2.9489
   27.105    2.8752
   27.120    2.7383
   27.135    3.0332
   27.150    2.8647
   27.165    2.6330
   27.180    2.7488
   27.195    2.8541
   27.210    2.6856
   27.225    2.6646
   27.240    2.8331
   27.255    2.9068
   27.270    2.8436
   27.285    2.6540
   27.300    2.8436
   27.315    2.6330
   27.330    2.8963
   27.345    2.7699
   27.360    2.8331
   27.375    2.6962
   27.390    2.6540
   27.405    2.8436
   27.420    3.0648
   27.435    3.1069
   27.450    2.8331
   27.465    2.5698
   27.480    2.7804
   27.495    2.6014
   27.510    2.7593
   27.525    2.8225
   27.540    2.8752
   27.555    3.0648
   27.570    3.0226
   27.585    3.1701
   27.600    3.1912
   27.615    3.1385
   27.630    2.8752
   27.645    2.8436
   27.660    2.9700
   27.675    2.9595
   27.690    2.6751
   27.705    2.8436
   27.720    2.7593
   27.735    2.7172
   27.750    2.4750
   27.765    2.8015
   27.780    2.8541
   27.795    2.8963
   27.810    2.7699
   27.825    2.7488
   27.840    2.6014
   27.855    3.0648
   27.870    3.1701
   27.885    3.0226
   27.900    2.9279
   27.915    3.1806
   27.930    2.9279
   27.945    3.3386
   27.960    3.4229
   27.975    3.4439
   27.990    3.4860
   28.005    3.3281
   28.020    3.3491
   28.035    3.3386
   28.050    3.2122
   28.065    2.9279
   28.080    3.2122
   28.095    3.1701
   28.110    3.1069
   28.125    3.1069
   28.140    3.2333
   28.155    3.0332
   28.170    3.0437
   28.185    3.2122
   28.200    3.1069
   28.215    3.2017
   28.230    3.0753
   28.245    2.9595
   28.260    3.2227
   28.275    2.8541
   28.290    2.6856
   28.305    2.7804
   28.320    2.6330
   28.335    2.5171
   28.350    2.7593
   28.365    2.5171
   28.380    2.8436
   28.395    2.9384
   28.410    2.7488
   28.425    3.0016
   28.440    3.0437
   28.455    2.9384
   28.470    2.8225
   28.485    3.0332
   28.500    3.0753
   28.515    2.7804
   28.530    3.0648
   28.545    2.8963
   28.560    2.8963
   28.575    2.7488
   28.590    2.7172
   28.605    2.8436
   28.620    2.8857
   28.635    2.4539
   28.650    2.7804
   28.665    2.9173
   28.680    2.7699
   28.695    2.6119
   28.710    2.7172
   28.725    2.7804
   28.740    2.9279
   28.755    2.8331
   28.770    2.9489
   28.785    2.7699
   28.800    2.6224
   28.815    2.5592
   28.830    2.8436
   28.845    2.7278
   28.860    2.8541
   28.875    2.7383
   28.890    3.1280
   28.905    3.0437
   28.920    3.0858
   28.935    3.3702
   28.950    3.2227
   28.965    3.3807
   28.980    3.2438
   28.995    3.1701
   29.010    3.3491
   29.025    3.2543
   29.040    3.1701
   29.055    2.8647
   29.070    2.7593
   29.085    2.6751
   29.100    2.8436
   29.115    2.7067
   29.130    2.8120
   29.145    2.7383
   29.160    2.7278
   29.175    2.8331
   29.190    2.8857
   29.205    2.9595
   29.220    2.8541
   29.235    2.7804
   29.250    2.8752
   29.265    3.0753
   29.280    3.0542
   29.295    3.0753
   29.310    2.7067
   29.325    2.6330
   29.340    3.0226
   29.355    2.8541
   29.370    2.9595
   29.385    2.9700
   29.400    2.6014
   29.415    2.6330
   29.430    2.6856
   29.445    2.7383
   29.460    2.8857
   29.475    2.7593
   29.490    2.4961
   29.505    2.7383
   29.520    2.4539
   29.535    2.4013
   29.550    2.4961
   29.565    2.5066
   29.580    2.6330
   29.595    2.7804
   29.610    2.7804
   29.625    2.5908
   29.640    2.7804
   29.655    2.6330
   29.670    2.4961
   29.685    2.6540
   29.700    2.6224
   29.715    2.6962
   29.730    2.8331
   29.745    2.8963
   29.760    2.5592
   29.775    2.5592
   29.790    2.7488
   29.805    2.6962
   29.820    2.6856
   29.835    2.6962
   29.850    2.7172
   29.865    2.8752
   29.880    2.6330
   29.895    2.6540
   29.910    2.8331
   29.925    2.7593
   29.940    2.6646
   29.955    2.5276
   29.970    2.6435
   29.985    2.5592
   30.000    2.5908
   30.015    2.6646
   30.030    2.6646
   30.045    2.6856
   30.060    2.6856
   30.075    2.6224
   30.090    2.7488
   30.105    2.5382
   30.120    2.7699
   30.135    2.6540
   30.150    2.6751
   30.165    2.6014
   30.180    2.7593
   30.195    2.4434
   30.210    2.3907
   30.225    2.4855
   30.240    2.6540
   30.255    2.7593
   30.270    2.7383
   30.285    2.7699
   30.300    2.7488
   30.315    2.5382
   30.330    2.5171
   30.345    2.5276
   30.360    2.4223
   30.375    2.4434
   30.390    2.6119
   30.405    2.6856
   30.420    2.8436
   30.435    2.8120
   30.450    2.8963
   30.465    2.6224
   30.480    2.6751
   30.495    2.4013
   30.510    2.4118
   30.525    2.4855
   30.540    2.6435
   30.555    2.4750
   30.570    2.4855
   30.585    2.8857
   30.600    2.8541
   30.615    2.9910
   30.630    2.5066
   30.645    2.7067
   30.660    2.8857
   30.675    2.5066
   30.690    2.8331
   30.705    2.6540
   30.720    2.3170
   30.735    2.2643
   30.750    2.6962
   30.765    2.6014
   30.780    2.7172
   30.795    2.5382
   30.810    2.3381
   30.825    2.4434
   30.840    2.6962
   30.855    2.4329
   30.870    2.4539
   30.885    2.5698
   30.900    2.6119
   30.915    2.6435
   30.930    2.5908
   30.945    2.3802
   30.960    2.5382
   30.975    2.6330
   30.990    2.3486
   31.005    2.5592
   31.020    2.6435
   31.035    2.5171
   31.050    2.6119
   31.065    2.5698
   31.080    2.4434
   31.095    2.5066
   31.110    2.7488
   31.125    2.4855
   31.140    2.4961
   31.155    2.6435
   31.170    2.3697
   31.185    2.4223
   31.200    2.2959
   31.215    2.2854
   31.230    2.1801
   31.245    2.4539
   31.260    2.3802
   31.275    2.4434
   31.290    2.5803
   31.305    2.6014
   31.320    2.6330
   31.335    2.6435
   31.350    2.5803
   31.365    2.6224
   31.380    2.6119
   31.395    2.6856
   31.410    2.3697
   31.425    2.6014
   31.440    2.7067
   31.455    2.3697
   31.470    2.5066
   31.485    2.5382
   31.500    2.4013
   31.515    2.4118
   31.530    2.6014
   31.545    2.6435
   31.560    2.7172
   31.575    2.8857
   31.590    2.6330
   31.605    2.2959
   31.620    2.2959
   31.635    2.3486
   31.650    2.5487
   31.665    2.6435
   31.680    2.4645
   31.695    2.5487
   31.710    2.6751
   31.725    2.6540
   31.740    2.6330
   31.755    2.4013
   31.770    2.6435
   31.785    2.7699
   31.800    2.8015
   31.815    3.0542
   31.830    2.8120
   31.845    2.8436
   31.860    2.6751
   31.875    2.3486
   31.890    2.5066
   31.905    2.4855
   31.920    2.7488
   31.935    2.3697
   31.950    2.6646
   31.965    2.8857
   31.980    2.9384
   31.995    3.2543
   32.010    2.9068
   32.025    3.6230
   32.040    3.5071
   32.055    4.1917
   32.070    4.2865
   32.085    4.1811
   32.100    4.0969
   32.115    4.0021
   32.130    3.8336
   32.145    3.7493
   32.160    3.6124
   32.175    3.2333
   32.190    2.9173
   32.205    2.8647
   32.220    2.5908
   32.235    2.5487
   32.250    2.3591
   32.265    2.1590
   32.280    2.2117
   32.295    2.3065
   32.310    2.7593
   32.325    2.4645
   32.340    2.2117
   32.355    2.4329
   32.370    2.4855
   32.385    2.3907
   32.400    2.3907
   32.415    2.4434
   32.430    2.5592
   32.445    2.5276
   32.460    2.3802
   32.475    2.2749
   32.490    2.3065
   32.505    2.4750
   32.520    2.4118
   32.535    2.2222
   32.550    2.2643
   32.565    2.3170
   32.580    2.4855
   32.595    2.4329
   32.610    2.4013
   32.625    2.2222
   32.640    2.3486
   32.655    2.4118
   32.670    2.2433
   32.685    2.4118
   32.700    2.4645
   32.715    2.2959
   32.730    2.3170
   32.745    2.3591
   32.760    2.4434
   32.775    2.5698
   32.790    2.4434
   32.805    2.4013
   32.820    2.4223
   32.835    2.6330
   32.850    2.4855
   32.865    2.2643
   32.880    2.4961
   32.895    2.5592
   32.910    2.7699
   32.925    2.7383
   32.940    2.4013
   32.955    2.3275
   32.970    2.3486
   32.985    2.4645
   33.000    2.6751
   33.015    2.5382
   33.030    2.3697
   33.045    2.2959
   33.060    2.3697
   33.075    2.3486
   33.090    2.3275
   33.105    2.4434
   33.120    2.2959
   33.135    2.2012
   33.150    2.3697
   33.165    2.3697
   33.180    2.1801
   33.195    2.3170
   33.210    2.4961
   33.225    2.3697
   33.240    2.2012
   33.255    2.5487
   33.270    2.2433
   33.285    2.0011
   33.300    2.3591
   33.315    2.3697
   33.330    2.3170
   33.345    2.5276
   33.360    2.6646
   33.375    2.4855
   33.390    2.2222
   33.405    2.4539
   33.420    2.3065
   33.435    2.2643
   33.450    2.2012
   33.465    2.3591
   33.480    2.2012
   33.495    2.3275
   33.510    2.2433
   33.525    2.3907
   33.540    2.3275
   33.555    2.4645
   33.570    2.4118
   33.585    2.3486
   33.600    2.3170
   33.615    2.3697
   33.630    2.1696
   33.645    2.1064
   33.660    2.3381
   33.675    2.5382
   33.690    2.6224
   33.705    2.5171
   33.720    2.5908
   33.735    2.4223
   33.750    2.7488
   33.765    2.7488
   33.780    3.0121
   33.795    3.1490
   33.810    2.9910
   33.825    3.2017
   33.840    3.3175
   33.855    3.0858
   33.870    3.2122
   33.885    2.8752
   33.900    2.7699
   33.915    2.5908
   33.930    2.4539
   33.945    2.4539
   33.960    2.4645
   33.975    2.6856
   33.990    2.3697
   34.005    2.5171
   34.020    2.4539
   34.035    2.4223
   34.050    2.2643
   34.065    2.4329
   34.080    2.2959
   34.095    2.4118
   34.110    2.4329
   34.125    2.2117
   34.140    2.2433
   34.155    2.6119
   34.170    2.6330
   34.185    2.3486
   34.200    2.2433
   34.215    2.4118
   34.230    2.2538
   34.245    2.2117
   34.260    2.2854
   34.275    2.3065
   34.290    2.2538
   34.305    2.4750
   34.320    2.2854
   34.335    2.2222
   34.350    2.1696
   34.365    2.1064
   34.380    2.3697
   34.395    2.3486
   34.410    2.3697
   34.425    2.2854
   34.440    2.3486
   34.455    2.4118
   34.470    2.4961
   34.485    2.3486
   34.500    2.2854
   34.515    2.1169
   34.530    2.1696
   34.545    2.5276
   34.560    2.2749
   34.575    2.0432
   34.590    2.1064
   34.605    2.1801
   34.620    2.1380
   34.635    2.2117
   34.650    2.3591
   34.665    2.2328
   34.680    2.5066
   34.695    2.2854
   34.710    2.3697
   34.725    2.3065
   34.740    2.5487
   34.755    2.3907
   34.770    2.2117
   34.785    2.2749
   34.800    2.4539
   34.815    2.2854
   34.830    2.4434
   34.845    2.3065
   34.860    2.3697
   34.875    2.4013
   34.890    2.2749
   34.905    2.1485
   34.920    2.1696
   34.935    2.3275
   34.950    2.1169
   34.965    1.9379
   34.980    2.3697
   34.995    2.1906
   35.010    2.2959
   35.025    2.0537
   35.040    2.4013
   35.055    2.1801
   35.070    2.1590
   35.085    1.9905
   35.100    2.1064
   35.115    2.0853
   35.130    2.1906
   35.145    2.0642
   35.160    2.3591
   35.175    2.1380
   35.190    2.0748
   35.205    2.1064
   35.220    2.1169
   35.235    2.3065
   35.250    2.3065
   35.265    2.2012
   35.280    2.0748
   35.295    2.2117
   35.310    2.4118
   35.325    2.3065
   35.340    2.2328
   35.355    2.4434
   35.370    2.4961
   35.385    2.4118
   35.400    2.1801
   35.415    2.1169
   35.430    2.0748
   35.445    1.9905
   35.460    2.0642
   35.475    2.0537
   35.490    2.3275
   35.505    2.2959
   35.520    2.2222
   35.535    2.3065
   35.550    2.1906
   35.565    2.0958
   35.580    2.2959
   35.595    2.2959
   35.610    2.3591
   35.625    2.2117
   35.640    2.0958
   35.655    2.1485
   35.670    2.3486
   35.685    2.1696
   35.700    2.1906
   35.715    2.0958
   35.730    2.3486
   35.745    2.3697
   35.760    2.1801
   35.775    2.1169
   35.790    2.2959
   35.805    2.3381
   35.820    2.0537
   35.835    2.2643
   35.850    2.0326
   35.865    2.1906
   35.880    2.0116
   35.895    2.1274
   35.910    2.2328
   35.925    2.2643
   35.940    2.1696
   35.955    2.0853
   35.970    2.0326
   35.985    2.2854
   36.000    2.5171
   36.015    2.1590
   36.030    2.2433
   36.045    2.0748
   36.060    2.2538
   36.075    2.1274
   36.090    2.2433
   36.105    2.2959
   36.120    2.1906
   36.135    2.1906
   36.150    2.3381
   36.165    2.2012
   36.180    2.2012
   36.195    2.1064
   36.210    2.3065
   36.225    2.1801
   36.240    2.2117
   36.255    2.3907
   36.270    2.1274
   36.285    2.1274
   36.300    2.2012
   36.315    2.2538
   36.330    2.1801
   36.345    2.1064
   36.360    2.0011
   36.375    2.2117
   36.390    2.0748
   36.405    1.9379
   36.420    2.0221
   36.435    2.0958
   36.450    2.4223
   36.465    2.0011
   36.480    2.0432
   36.495    2.4961
   36.510    2.0011
   36.525    1.8957
   36.540    2.1274
   36.555    2.3275
   36.570    2.3170
   36.585    2.1801
   36.600    2.1696
   36.615    2.0853
   36.630    2.1274
   36.645    2.2222
   36.660    2.3170
   36.675    2.3275
   36.690    2.2959
   36.705    2.1906
   36.720    2.2117
   36.735    2.2012
   36.750    2.1380
   36.765    2.2854
   36.780    2.1906
   36.795    2.0537
   36.810    1.9484
   36.825    2.0221
   36.840    2.1380
   36.855    1.8852
   36.870    1.9273
   36.885    1.8220
   36.900    1.9379
   36.915    2.0326
   36.930    2.2328
   36.945    2.1274
   36.960    2.0853
   36.975    2.1590
   36.990    2.0011
   37.005    2.1169
   37.020    2.2222
   37.035    2.2012
   37.050    2.2222
   37.065    2.1906
   37.080    2.4329
   37.095    2.2222
   37.110    2.3697
   37.125    2.1801
   37.140    2.2328
   37.155    2.0958
   37.170    2.0537
   37.185    2.4329
   37.200    2.3697
   37.215    2.1380
   37.230    2.1274
   37.245    2.1485
   37.260    2.2749
   37.275    2.1801
   37.290    2.0958
   37.305    2.3170
   37.320    2.0642
   37.335    2.0011
   37.350    2.2117
   37.365    2.2222
   37.380    2.2959
   37.395    2.1380
   37.410    2.0537
   37.425    2.1801
   37.440    2.2117
   37.455    2.1801
   37.470    2.0432
   37.485    2.2749
   37.500    2.1485
   37.515    2.1169
   37.530    2.3907
   37.545    2.0011
   37.560    2.0537
   37.575    2.2643
   37.590    2.1696
   37.605    2.0853
   37.620    2.0853
   37.635    2.2117
   37.650    2.1274
   37.665    2.1274
   37.680    2.0326
   37.695    2.1380
   37.710    2.0432
   37.725    2.1485
   37.740    2.1064
   37.755    1.9484
   37.770    1.9905
   37.785    2.1485
   37.800    2.2328
   37.815    2.0326
   37.830    2.0642
   37.845    2.1801
   37.860    2.0116
   37.875    2.0011
   37.890    2.1906
   37.905    2.0432
   37.920    2.0326
   37.935    1.8957
   37.950    2.1064
   37.965    2.1801
   37.980    2.1801
   37.995    2.1906
   38.010    2.0642
   38.025    2.1274
   38.040    2.1906
   38.055    2.0853
   38.070    2.1380
   38.085    2.0537
   38.100    2.3275
   38.115    2.0642
   38.130    1.7904
   38.145    1.9484
   38.160    2.3591
   38.175    2.3381
   38.190    2.0853
   38.205    2.0537
   38.220    2.1590
   38.235    2.1169
   38.250    2.0326
   38.265    1.9905
   38.280    2.0116
   38.295    2.2012
   38.310    2.2222
   38.325    2.2433
   38.340    2.2222
   38.355    2.2117
   38.370    2.2012
   38.385    2.2117
   38.400    2.3275
   38.415    2.1485
   38.430    2.0958
   38.445    2.1801
   38.460    2.0011
   38.475    2.0537
   38.490    2.3486
   38.505    2.1590
   38.520    2.3802
   38.535    2.4118
   38.550    2.3275
   38.565    2.3065
   38.580    2.2854
   38.595    2.2433
   38.610    2.1696
   38.625    2.2433
   38.640    2.1485
   38.655    2.2328
   38.670    2.1696
   38.685    2.1696
   38.700    2.1906
   38.715    2.0748
   38.730    1.9695
   38.745    2.2959
   38.760    2.0432
   38.775    2.1485
   38.790    2.0326
   38.805    2.1064
   38.820    2.1169
   38.835    2.0537
   38.850    2.0326
   38.865    2.0221
   38.880    2.1485
   38.895    2.0958
   38.910    2.0011
   38.925    1.9905
   38.940    2.0116
   38.955    2.0537
   38.970    1.9484
   38.985    2.0642
   39.000    2.0116
   39.015    1.6851
   39.030    1.9905
   39.045    2.0432
   39.060    1.9695
   39.075    2.2959
   39.090    2.2117
   39.105    2.0642
   39.120    2.2538
   39.135    2.0748
   39.150    1.9905
   39.165    2.1696
   39.180    1.9484
   39.195    2.0853
   39.210    2.3065
   39.225    2.1590
   39.240    2.2222
   39.255    2.1906
   39.270    2.1485
   39.285    1.9484
   39.300    2.0958
   39.315    2.4118
   39.330    2.0432
   39.345    1.9589
   39.360    2.0432
   39.375    1.8115
   39.390    2.1485
   39.405    2.0221
   39.420    2.0642
   39.435    1.9800
   39.450    2.0432
   39.465    2.0221
   39.480    2.0011
   39.495    1.7483
   39.510    1.8957
   39.525    1.8852
   39.540    2.1064
   39.555    2.1274
   39.570    2.2328
   39.585    1.9484
   39.600    1.8957
   39.615    1.9379
   39.630    2.0958
   39.645    2.0221
   39.660    2.0958
   39.675    2.2959
   39.690    2.1274
   39.705    1.9905
   39.720    2.0221
   39.735    2.2643
   39.750    2.1801
   39.765    1.9484
   39.780    2.1380
   39.795    2.2012
   39.810    2.1590
   39.825    1.9589
   39.840    1.9484
   39.855    2.0642
   39.870    2.1590
   39.885    2.2328
   39.900    2.1064
   39.915    2.2117
   39.930    2.2222
   39.945    1.9589
   39.960    2.0221
   39.975    2.0958
   39.990    2.0642
