    1.500   11.9361
    1.515   11.6728
    1.530   12.2170
    1.545   11.9712
    1.560   12.4100
    1.575   11.5148
    1.590   11.3217
    1.605   11.3042
    1.620   11.2866
    1.635   11.1111
    1.650   11.7606
    1.665   11.3042
    1.680   10.9531
    1.695   10.7952
    1.710   11.0585
    1.725   11.2515
    1.740   11.2691
    1.755   10.4968
    1.770   11.0409
    1.785   10.7074
    1.800   10.7074
    1.815   10.8829
    1.830   10.6021
    1.845   10.9707
    1.860   10.0755
    1.875    9.7595
    1.890   10.8478
    1.905    9.8122
    1.920   10.1808
    1.935    9.7595
    1.950    9.5840
    1.965   10.0228
    1.980    9.8473
    1.995    9.4611
    2.010    9.5840
    2.025    8.9872
    2.040    9.8473
    2.055    9.4962
    2.070    9.0223
    2.085    9.6191
    2.100    9.4085
    2.115    9.6542
    2.130    9.4260
    2.145    9.4611
    2.160    9.3558
    2.175    9.6015
    2.190    9.3207
    2.205    9.4611
    2.220    9.0398
    2.235    9.1101
    2.250    9.2154
    2.265    8.9872
    2.280    8.9521
    2.295    8.9345
    2.310    8.9521
    2.325    8.6361
    2.340    8.7239
    2.355    9.9351
    2.370    8.8994
    2.385    8.5484
    2.400    9.0574
    2.415    8.8643
    2.430    8.6361
    2.445    8.7941
    2.460    8.3728
    2.475    8.5308
    2.490    8.6010
    2.505    8.2675
    2.520    8.1446
    2.535    8.3728
    2.550    7.8813
    2.565    7.7585
    2.580    8.4430
    2.595    9.1101
    2.610    8.1271
    2.625    7.6707
    2.640    8.6712
    2.655    8.5308
    2.670    8.0744
    2.685    8.5484
    2.700    7.6180
    2.715    8.4430
    2.730    8.5659
    2.745    8.5308
    2.760    8.0744
    2.775    8.5308
    2.790    8.3026
    2.805    8.3728
    2.820    8.6010
    2.835    8.3026
    2.850    8.1271
    2.865    8.4079
    2.880    7.8638
    2.895    7.7936
    2.910    8.0218
    2.925    7.8287
    2.940    8.1446
    2.955    7.7409
    2.970    7.5127
    2.985    7.7936
    3.000    7.9516
    3.015    8.0042
    3.030    7.8638
    3.045    8.1271
    3.060    8.0569
    3.075    8.6010
    3.090    8.1271
    3.105    7.7585
    3.120    8.1797
    3.135    7.7760
    3.150    7.7409
    3.165    8.2149
    3.180    8.0218
    3.195    7.5829
    3.210    8.5308
    3.225    8.0218
    3.240    7.7409
    3.255    8.4255
    3.270    7.5829
    3.285    7.6180
    3.300    7.7936
    3.315    8.0744
    3.330    7.8462
    3.345    8.1095
    3.360    8.3553
    3.375    8.6537
    3.390    8.3026
    3.405    8.3377
    3.420    8.4781
    3.435    7.9691
    3.450    8.3377
    3.465    8.3904
    3.480    8.4781
    3.495    8.4606
    3.510    8.8819
    3.525    8.6361
    3.540    8.5835
    3.555    8.1622
    3.570    8.6010
    3.585    7.7234
    3.600    8.1622
    3.615    8.4079
    3.630    8.8819
    3.645    8.2149
    3.660    8.9872
    3.675    9.2154
    3.690    8.6186
    3.705    8.6361
    3.720    8.3904
    3.735    8.6361
    3.750    9.3734
    3.765   10.1632
    3.780    9.9351
    3.795    9.8824
    3.810   10.4441
    3.825   10.5143
    3.840   11.1638
    3.855   12.3047
    3.870   11.1989
    3.885   10.6547
    3.900   10.1457
    3.915    9.8297
    3.930    8.7590
    3.945    8.7239
    3.960    8.4957
    3.975    7.8989
    3.990    7.9340
    4.005    8.5308
    4.020    8.4781
    4.035    7.9164
    4.050    7.8813
    4.065    7.8287
    4.080    8.3553
    4.095    7.8989
    4.110    8.2149
    4.125    7.7234
    4.140    7.8111
    4.155    7.9691
    4.170    7.8813
    4.185    8.1797
    4.200    8.3377
    4.215    8.2149
    4.230    7.8638
    4.245    8.1797
    4.260    8.1797
    4.275    8.0393
    4.290    7.8989
    4.305    7.7760
    4.320    7.7058
    4.335    7.9340
    4.350    8.1095
    4.365    8.3553
    4.380    8.2324
    4.395    8.0393
    4.410    7.7058
    4.425    7.7409
    4.440    7.8111
    4.455    8.2675
    4.470    7.9164
    4.485    7.9867
    4.500    7.8638
    4.515    8.0744
    4.530    7.9164
    4.545    7.3196
    4.560    7.9164
    4.575    8.0042
    4.590    8.1797
    4.605    8.2675
    4.620    8.1622
    4.635    8.1446
    4.650    8.0218
    4.665    7.8638
    4.680    8.4255
    4.695    8.5659
    4.710    8.7239
    4.725    8.9872
    4.740    8.1271
    4.755    7.9691
    4.770    7.9164
    4.785    7.7585
    4.800    8.6186
    4.815    8.5659
    4.830    8.0920
    4.845    7.9867
    4.860    8.5835
    4.875    8.8117
    4.890    8.8117
    4.905    8.7590
    4.920    8.1271
    4.935    8.6186
    4.950    8.7941
    4.965    8.5484
    4.980    8.9345
    4.995    8.5659
    5.010    8.7590
    5.025    9.0925
    5.040    8.9872
    5.055    9.4260
    5.070    8.8292
    5.085    8.4430
    5.100    8.9345
    5.115    9.6367
    5.130    9.2856
    5.145    9.3734
    5.160    9.1101
    5.175    8.8643
    5.190    9.3558
    5.205    9.8297
    5.220    9.6893
    5.235   10.4265
    5.250   10.2159
    5.265   10.1281
    5.280    9.6542
    5.295   10.6723
    5.310   10.7249
    5.325   10.4265
    5.340   11.0936
    5.355   10.9180
    5.370   10.9531
    5.385   10.9180
    5.400   10.7074
    5.415   10.8654
    5.430   10.8829
    5.445   11.6202
    5.460   12.1643
    5.475   10.9180
    5.490   11.7606
    5.505   11.5499
    5.520   11.4973
    5.535   10.6547
    5.550   10.9882
    5.565   11.1813
    5.580   10.6196
    5.595   10.8478
    5.610   11.2164
    5.625   11.0585
    5.640   10.4441
    5.655   10.4616
    5.670   10.6898
    5.685   10.8478
    5.700   10.5845
    5.715   10.3739
    5.730   10.1106
    5.745    9.9526
    5.760   10.4616
    5.775    9.8999
    5.790   10.0755
    5.805   10.0228
    5.820    9.8824
    5.835    8.6361
    5.850    9.2505
    5.865    9.5664
    5.880    9.2329
    5.895    9.2329
    5.910    8.5659
    5.925    8.6010
    5.940    9.5664
    5.955    9.1978
    5.970    9.0223
    5.985    8.6888
    6.000    9.3382
    6.015    8.6010
    6.030    8.3377
    6.045    8.5484
    6.060    8.5133
    6.075    8.4255
    6.090    8.2500
    6.105    7.5829
    6.120    8.4430
    6.135    8.2324
    6.150    7.9164
    6.165    8.3728
    6.180    8.1973
    6.195    8.1797
    6.210    8.4079
    6.225    8.1797
    6.240    7.8462
    6.255    7.9691
    6.270    7.6005
    6.285    7.5829
    6.300    7.5829
    6.315    7.7409
    6.330    7.9164
    6.345    8.1271
    6.360    7.8989
    6.375    7.5829
    6.390    7.9691
    6.405    8.0744
    6.420    8.0569
    6.435    7.7936
    6.450    7.8638
    6.465    7.6707
    6.480    7.5478
    6.495    7.7409
    6.510    7.6005
    6.525    7.9340
    6.540    7.8989
    6.555    7.6005
    6.570    7.8462
    6.585    7.5127
    6.600    7.6883
    6.615    7.1617
    6.630    7.4250
    6.645    8.1446
    6.660    8.0569
    6.675    7.2494
    6.690    7.6707
    6.705    8.0920
    6.720    7.2143
    6.735    7.7409
    6.750    7.9340
    6.765    7.6883
    6.780    7.5654
    6.795    7.3723
    6.810    7.1968
    6.825    7.2845
    6.840    7.2319
    6.855    6.9335
    6.870    7.1617
    6.885    7.2670
    6.900    6.7053
    6.915    6.4771
    6.930    7.0388
    6.945    6.8282
    6.960    6.7579
    6.975    7.0388
    6.990    7.2845
    7.005    6.7755
    7.020    6.4244
    7.035    6.9510
    7.050    6.6351
    7.065    6.5649
    7.080    6.7579
    7.095    6.6702
    7.110    6.5122
    7.125    6.2313
    7.140    6.4946
    7.155    6.5649
    7.170    6.5473
    7.185    6.5824
    7.200    6.5473
    7.215    6.4420
    7.230    6.5649
    7.245    6.2840
    7.260    6.2665
    7.275    6.3893
    7.290    6.2313
    7.305    6.3367
    7.320    5.7223
    7.335    6.0207
    7.350    6.4771
    7.365    6.7930
    7.380    6.7579
    7.395    6.1436
    7.410    6.5649
    7.425    6.8808
    7.440    6.3016
    7.455    6.1436
    7.470    6.0383
    7.485    6.3893
    7.500    6.0558
    7.515    6.1787
    7.530    6.2313
    7.545    5.8101
    7.560    6.0558
    7.575    6.2313
    7.590    5.9329
    7.605    6.4420
    7.620    6.0032
    7.635    5.8627
    7.650    6.1962
    7.665    6.0383
    7.680    6.0383
    7.695    6.2665
    7.710    6.4420
    7.725    6.4771
    7.740    6.5473
    7.755    6.1085
    7.770    6.6175
    7.785    6.3893
    7.800    6.4946
    7.815    6.2489
    7.830    5.8803
    7.845    6.1962
    7.860    5.7925
    7.875    6.0207
    7.890    6.0207
    7.905    5.7574
    7.920    5.4941
    7.935    5.7399
    7.950    5.8978
    7.965    5.5468
    7.980    5.7574
    7.995    5.9856
    8.010    5.8101
    8.025    5.6872
    8.040    5.8452
    8.055    5.6521
    8.070    5.3361
    8.085    5.5117
    8.100    5.3537
    8.115    5.7574
    8.130    5.4941
    8.145    5.4064
    8.160    5.5468
    8.175    5.4415
    8.190    5.8627
    8.205    6.0207
    8.220    5.3888
    8.235    5.4590
    8.250    5.4239
    8.265    5.6521
    8.280    5.5292
    8.295    5.3888
    8.310    5.7574
    8.325    5.4590
    8.340    5.0026
    8.355    5.5643
    8.370    5.1957
    8.385    4.8798
    8.400    5.5994
    8.415    5.2835
    8.430    5.2484
    8.445    5.3537
    8.460    5.3537
    8.475    5.4941
    8.490    5.5819
    8.505    5.0553
    8.520    5.3888
    8.535    5.7399
    8.550    5.5994
    8.565    5.6345
    8.580    5.3712
    8.595    5.2659
    8.610    5.3186
    8.625    5.0377
    8.640    5.3010
    8.655    5.7399
    8.670    5.6521
    8.685    4.8798
    8.700    5.1782
    8.715    5.3888
    8.730    4.6516
    8.745    4.7744
    8.760    4.9149
    8.775    5.3361
    8.790    5.6170
    8.805    5.5117
    8.820    5.4941
    8.835    5.1957
    8.850    4.9324
    8.865    5.3537
    8.880    5.5292
    8.895    5.4064
    8.910    5.3537
    8.925    5.5819
    8.940    5.0904
    8.955    5.2133
    8.970    5.0202
    8.985    5.1606
    9.000    4.9324
    9.015    5.0202
    9.030    5.4239
    9.045    5.3010
    9.060    5.2133
    9.075    5.4239
    9.090    5.0728
    9.105    5.2835
    9.120    5.1782
    9.135    4.5638
    9.150    5.3537
    9.165    5.3712
    9.180    5.4239
    9.195    5.3888
    9.210    5.5468
    9.225    5.0377
    9.240    5.4239
    9.255    5.3361
    9.270    5.0904
    9.285    5.2659
    9.300    5.0553
    9.315    5.3010
    9.330    4.7569
    9.345    5.1957
    9.360    5.0728
    9.375    5.3537
    9.390    5.3888
    9.405    5.3010
    9.420    5.0202
    9.435    5.5468
    9.450    5.4415
    9.465    5.8101
    9.480    5.0728
    9.495    5.7223
    9.510    5.9154
    9.525    5.9154
    9.540    6.1436
    9.555    6.5298
    9.570    5.7399
    9.585    5.1782
    9.600    5.5292
    9.615    5.2659
    9.630    5.0377
    9.645    5.1782
    9.660    5.4239
    9.675    5.6697
    9.690    5.1606
    9.705    5.3361
    9.720    5.0904
    9.735    4.6867
    9.750    5.7048
    9.765    5.3537
    9.780    4.8973
    9.795    5.4590
    9.810    5.0904
    9.825    5.1957
    9.840    5.0728
    9.855    5.4766
    9.870    5.7223
    9.885    5.0728
    9.900    5.2133
    9.915    5.1782
    9.930    4.7744
    9.945    5.2659
    9.960    5.2308
    9.975    5.2659
    9.990    5.3712
   10.005    5.0904
   10.020    5.0202
   10.035    4.9851
   10.050    4.9851
   10.065    4.8095
   10.080    4.9324
   10.095    5.3888
   10.110    5.3888
   10.125    5.1957
   10.140    5.4590
   10.155    5.5994
   10.170    5.6170
   10.185    5.3888
   10.200    5.2835
   10.215    5.4415
   10.230    5.6697
   10.245    5.4064
   10.260    5.8101
   10.275    5.3186
   10.290    6.4244
   10.305    6.4244
   10.320    6.1260
   10.335    6.0734
   10.350    5.9856
   10.365    5.7925
   10.380    5.4766
   10.395    5.5292
   10.410    5.3361
   10.425    5.9681
   10.440    5.6345
   10.455    5.5819
   10.470    5.3361
   10.485    5.1431
   10.500    4.8973
   10.515    5.1957
   10.530    5.6697
   10.545    5.0553
   10.560    5.4590
   10.575    5.1606
   10.590    5.3010
   10.605    4.9851
   10.620    5.6170
   10.635    5.5819
   10.650    5.2659
   10.665    5.5468
   10.680    5.4590
   10.695    5.1080
   10.710    5.5468
   10.725    5.3888
   10.740    5.4064
   10.755    5.3361
   10.770    5.2308
   10.785    5.6170
   10.800    5.3888
   10.815    5.5819
   10.830    5.5292
   10.845    5.5292
   10.860    5.7399
   10.875    5.3537
   10.890    5.5292
   10.905    5.5994
   10.920    5.5643
   10.935    5.4941
   10.950    5.5994
   10.965    5.6872
   10.980    6.1260
   10.995    6.0558
   11.010    5.3537
   11.025    6.0383
   11.040    6.3367
   11.055    6.0909
   11.070    6.4420
   11.085    5.9329
   11.100    5.8803
   11.115    5.7048
   11.130    5.5819
   11.145    5.3888
   11.160    5.4415
   11.175    5.2659
   11.190    5.1431
   11.205    5.7574
   11.220    5.3537
   11.235    5.1431
   11.250    5.3361
   11.265    5.7925
   11.280    5.4590
   11.295    5.3010
   11.310    5.4064
   11.325    5.2659
   11.340    5.4766
   11.355    5.3888
   11.370    5.5643
   11.385    5.5117
   11.400    5.5117
   11.415    5.4064
   11.430    5.2133
   11.445    5.1957
   11.460    5.4415
   11.475    5.2835
   11.490    5.2308
   11.505    5.4941
   11.520    5.7399
   11.535    5.5994
   11.550    5.0553
   11.565    5.1606
   11.580    5.3186
   11.595    5.1957
   11.610    5.2308
   11.625    5.0026
   11.640    5.1255
   11.655    5.2835
   11.670    5.5292
   11.685    5.7223
   11.700    6.2489
   11.715    6.1787
   11.730    6.1611
   11.745    5.9329
   11.760    5.3537
   11.775    5.0553
   11.790    5.4064
   11.805    5.8276
   11.820    5.1782
   11.835    4.8622
   11.850    5.2659
   11.865    5.0377
   11.880    5.1255
   11.895    4.9500
   11.910    5.5117
   11.925    5.7574
   11.940    5.6345
   11.955    5.0553
   11.970    5.1255
   11.985    5.0904
   12.000    5.3361
   12.015    5.0202
   12.030    4.7042
   12.045    4.9324
   12.060    5.8101
   12.075    5.1080
   12.090    5.3186
   12.105    5.2659
   12.120    5.4239
   12.135    4.6165
   12.150    5.0728
   12.165    5.1255
   12.180    5.5117
   12.195    5.7048
   12.210    5.0553
   12.225    4.9500
   12.240    4.8798
   12.255    5.3712
   12.270    5.6521
   12.285    5.5643
   12.300    5.1782
   12.315    5.1606
   12.330    5.2133
   12.345    5.2659
   12.360    5.0728
   12.375    4.7042
   12.390    4.9675
   12.405    4.6340
   12.420    4.9851
   12.435    5.4941
   12.450    5.4941
   12.465    4.7569
   12.480    4.4936
   12.495    4.2478
   12.510    4.8447
   12.525    4.9149
   12.540    5.0904
   12.555    4.8798
   12.570    4.7744
   12.585    4.9500
   12.600    4.8095
   12.615    5.1080
   12.630    5.0202
   12.645    5.0553
   12.660    4.9851
   12.675    5.1431
   12.690    5.5468
   12.705    5.0904
   12.720    5.0904
   12.735    5.0202
   12.750    5.3010
   12.765    5.2133
   12.780    5.0728
   12.795    5.2133
   12.810    5.0904
   12.825    4.8622
   12.840    4.8622
   12.855    5.0377
   12.870    5.4415
   12.885    4.8798
   12.900    5.3712
   12.915    5.1957
   12.930    5.3010
   12.945    5.5643
   12.960    5.3186
   12.975    5.2835
   12.990    5.5292
   13.005    5.0904
   13.020    4.8095
   13.035    5.1080
   13.050    5.1431
   13.065    4.9851
   13.080    4.4585
   13.095    4.5814
   13.110    5.1255
   13.125    4.6691
   13.140    4.6867
   13.155    5.1431
   13.170    5.1080
   13.185    5.3361
   13.200    4.8973
   13.215    4.6516
   13.230    4.5287
   13.245    4.7920
   13.260    5.4064
   13.275    5.4064
   13.290    5.0728
   13.305    5.0377
   13.320    4.8973
   13.335    5.0202
   13.350    5.4239
   13.365    5.0377
   13.380    4.8622
   13.395    4.8095
   13.410    5.0553
   13.425    4.8973
   13.440    5.1431
   13.455    4.8973
   13.470    5.3186
   13.485    5.0377
   13.500    4.9851
   13.515    4.8973
   13.530    5.0377
   13.545    5.0026
   13.560    4.8447
   13.575    5.1255
   13.590    5.4239
   13.605    5.0377
   13.620    4.6691
   13.635    4.8095
   13.650    5.2133
   13.665    5.3537
   13.680    4.8095
   13.695    4.9149
   13.710    5.0904
   13.725    5.2484
   13.740    5.0904
   13.755    5.3186
   13.770    5.0026
   13.785    4.8798
   13.800    4.9851
   13.815    5.1606
   13.830    5.2835
   13.845    5.3361
   13.860    5.1080
   13.875    5.0553
   13.890    4.9851
   13.905    5.7048
   13.920    4.9851
   13.935    5.3888
   13.950    5.3537
   13.965    5.1080
   13.980    5.1957
   13.995    5.0553
   14.010    5.1080
   14.025    4.9851
   14.040    5.4766
   14.055    5.6170
   14.070    5.4941
   14.085    5.5819
   14.100    5.6521
   14.115    5.4064
   14.130    5.6170
   14.145    5.5292
   14.160    5.2308
   14.175    5.1782
   14.190    5.3361
   14.205    4.5638
   14.220    4.7920
   14.235    4.9675
   14.250    5.1080
   14.265    5.5117
   14.280    5.0553
   14.295    5.7048
   14.310    5.1606
   14.325    5.8276
   14.340    5.1606
   14.355    5.2484
   14.370    5.4064
   14.385    5.6872
   14.400    5.7223
   14.415    5.3361
   14.430    5.2484
   14.445    5.2308
   14.460    5.1606
   14.475    5.0904
   14.490    5.0026
   14.505    5.3186
   14.520    5.3888
   14.535    5.4590
   14.550    5.4941
   14.565    5.5468
   14.580    5.3361
   14.595    5.1782
   14.610    5.2308
   14.625    5.2133
   14.640    5.4766
   14.655    5.1080
   14.670    5.4239
   14.685    5.3537
   14.700    4.8095
   14.715    5.4941
   14.730    5.3010
   14.745    5.7925
   14.760    5.1255
   14.775    5.2308
   14.790    5.1255
   14.805    4.8271
   14.820    4.8798
   14.835    4.5989
   14.850    5.1782
   14.865    4.9675
   14.880    4.6165
   14.895    4.8622
   14.910    5.3361
   14.925    5.3186
   14.940    5.1957
   14.955    5.0904
   14.970    5.3186
   14.985    5.0202
   15.000    5.3712
   15.015    5.2659
   15.030    5.1431
   15.045    4.8447
   15.060    5.2659
   15.075    4.9324
   15.090    5.1957
   15.105    4.4936
   15.120    4.8271
   15.135    4.8622
   15.150    4.9149
   15.165    5.3712
   15.180    4.8447
   15.195    5.0202
   15.210    5.1606
   15.225    4.6867
   15.240    5.0904
   15.255    4.8447
   15.270    4.8973
   15.285    5.0202
   15.300    4.5989
   15.315    5.0553
   15.330    4.7042
   15.345    5.1080
   15.360    5.1431
   15.375    4.7569
   15.390    5.5994
   15.405    5.4064
   15.420    5.1606
   15.435    5.0026
   15.450    4.9675
   15.465    5.0377
   15.480    4.8447
   15.495    5.0904
   15.510    4.8973
   15.525    5.3537
   15.540    5.1431
   15.555    4.4585
   15.570    5.0026
   15.585    4.9675
   15.600    5.2484
   15.615    5.0904
   15.630    5.1957
   15.645    5.3888
   15.660    5.2308
   15.675    5.4415
   15.690    4.8973
   15.705    5.0553
   15.720    4.4409
   15.735    5.1606
   15.750    5.0377
   15.765    4.5287
   15.780    4.8622
   15.795    4.5989
   15.810    5.3361
   15.825    5.1431
   15.840    5.3361
   15.855    4.5638
   15.870    5.0202
   15.885    5.3010
   15.900    4.9500
   15.915    4.9675
   15.930    5.0728
   15.945    4.8798
   15.960    4.7569
   15.975    4.8973
   15.990    4.9500
   16.005    4.8447
   16.020    5.0553
   16.035    4.9851
   16.050    5.0202
   16.065    5.0904
   16.080    4.8622
   16.095    4.7920
   16.110    5.3537
   16.125    4.7393
   16.140    4.9324
   16.155    4.9500
   16.170    5.2133
   16.185    5.1431
   16.200    5.1957
   16.215    4.9500
   16.230    4.8095
   16.245    5.1080
   16.260    5.0377
   16.275    5.1782
   16.290    5.1255
   16.305    5.0904
   16.320    4.5814
   16.335    4.3005
   16.350    4.7218
   16.365    4.6516
   16.380    4.8271
   16.395    4.6340
   16.410    4.9149
   16.425    5.3361
   16.440    5.1080
   16.455    5.2308
   16.470    4.7569
   16.485    5.2484
   16.500    5.1080
   16.515    4.9500
   16.530    4.7569
   16.545    4.6691
   16.560    5.2308
   16.575    4.9149
   16.590    5.3010
   16.605    5.2484
   16.620    5.1080
   16.635    5.1255
   16.650    4.9324
   16.665    5.2133
   16.680    4.8271
   16.695    5.0202
   16.710    5.0553
   16.725    4.8447
   16.740    4.7744
   16.755    4.7393
   16.770    4.6516
   16.785    4.8798
   16.800    4.9324
   16.815    5.1255
   16.830    5.3537
   16.845    4.8973
   16.860    4.5638
   16.875    4.8271
   16.890    5.0377
   16.905    4.9324
   16.920    4.9675
   16.935    5.0904
   16.950    5.3537
   16.965    5.0377
   16.980    5.1080
   16.995    5.2484
   17.010    5.0904
   17.025    4.8271
   17.040    4.9149
   17.055    5.2835
   17.070    5.5292
   17.085    5.3186
   17.100    5.0904
   17.115    5.4590
   17.130    5.1431
   17.145    4.8095
   17.160    4.9324
   17.175    4.7744
   17.190    5.0377
   17.205    4.8447
   17.220    4.5287
   17.235    4.8973
   17.250    5.0904
   17.265    4.8798
   17.280    4.9675
   17.295    4.9851
   17.310    4.9851
   17.325    4.8095
   17.340    4.6516
   17.355    4.5638
   17.370    4.8447
   17.385    5.0728
   17.400    4.9324
   17.415    4.8095
   17.430    4.9500
   17.445    4.6691
   17.460    4.8447
   17.475    5.2484
   17.490    5.1431
   17.505    4.7042
   17.520    5.4415
   17.535    4.8095
   17.550    4.9324
   17.565    4.9500
   17.580    4.8622
   17.595    4.4409
   17.610    4.8271
   17.625    4.5814
   17.640    4.8622
   17.655    5.0202
   17.670    4.8973
   17.685    4.5989
   17.700    4.6340
   17.715    5.0202
   17.730    4.9851
   17.745    5.1782
   17.760    4.7569
   17.775    4.4234
   17.790    4.8271
   17.805    4.8447
   17.820    4.6516
   17.835    4.9149
   17.850    4.8798
   17.865    4.8798
   17.880    4.7920
   17.895    4.5814
   17.910    4.8271
   17.925    4.7042
   17.940    4.9500
   17.955    5.0377
   17.970    4.9851
   17.985    4.8973
   18.000    4.9851
   18.015    4.9675
   18.030    5.1431
   18.045    4.6867
   18.060    4.8798
   18.075    4.4409
   18.090    4.6691
   18.105    4.6867
   18.120    4.7920
   18.135    4.7042
   18.150    4.7042
   18.165    4.9149
   18.180    5.1957
   18.195    5.0202
   18.210    4.8622
   18.225    4.6340
   18.240    4.6691
   18.255    4.7920
   18.270    5.0553
   18.285    5.3537
   18.300    5.0202
   18.315    5.2133
   18.330    5.0728
   18.345    4.7744
   18.360    4.3356
   18.375    5.0553
   18.390    5.1255
   18.405    5.1431
   18.420    5.3712
   18.435    5.0904
   18.450    4.6516
   18.465    4.7393
   18.480    4.8095
   18.495    4.8798
   18.510    4.9851
   18.525    4.7744
   18.540    4.5111
   18.555    4.6340
   18.570    4.6340
   18.585    5.1080
   18.600    5.4766
   18.615    4.8622
   18.630    4.6691
   18.645    4.6691
   18.660    4.6691
   18.675    4.8798
   18.690    4.8973
   18.705    5.0377
   18.720    4.9149
   18.735    4.7744
   18.750    4.5111
   18.765    4.5989
   18.780    5.2484
   18.795    4.6340
   18.810    4.6340
   18.825    4.8973
   18.840    4.8271
   18.855    4.7218
   18.870    4.9851
   18.885    5.2133
   18.900    4.6165
   18.915    4.5287
   18.930    4.8622
   18.945    4.9500
   18.960    4.4760
   18.975    4.3356
   18.990    4.8622
   19.005    5.0904
   19.020    5.2484
   19.035    4.6340
   19.050    4.3883
   19.065    4.8095
   19.080    4.7744
   19.095    4.5989
   19.110    4.5638
   19.125    4.9851
   19.140    4.8973
   19.155    4.7744
   19.170    4.9675
   19.185    4.6340
   19.200    4.4409
   19.215    4.1074
   19.230    5.1255
   19.245    4.5463
   19.260    4.6691
   19.275    4.6165
   19.290    4.9324
   19.305    4.9324
   19.320    4.9324
   19.335    4.8622
   19.350    4.6691
   19.365    4.5287
   19.380    4.5814
   19.395    4.6867
   19.410    4.3356
   19.425    4.8447
   19.440    5.1431
   19.455    4.8622
   19.470    4.6516
   19.485    5.3537
   19.500    4.9675
   19.515    4.8973
   19.530    4.5111
   19.545    4.3883
   19.560    4.6340
   19.575    4.7920
   19.590    4.8798
   19.605    5.0728
   19.620    5.1957
   19.635    4.3707
   19.650    4.5463
   19.665    4.4760
   19.680    4.4058
   19.695    4.6516
   19.710    4.6867
   19.725    4.8622
   19.740    4.6340
   19.755    4.5463
   19.770    4.8095
   19.785    4.4058
   19.800    4.6691
   19.815    4.7569
   19.830    5.1606
   19.845    4.7042
   19.860    4.5989
   19.875    4.3883
   19.890    4.7042
   19.905    4.6867
   19.920    4.6340
   19.935    4.4409
   19.950    4.5287
   19.965    4.3005
   19.980    4.8973
   19.995    4.7569
   20.010    4.5463
   20.025    4.6340
   20.040    4.9851
   20.055    4.4585
   20.070    4.8095
   20.085    4.1425
   20.100    4.3532
   20.115    4.5638
   20.130    4.6691
   20.145    4.4058
   20.160    4.2303
   20.175    4.3532
   20.190    4.1776
   20.205    4.1601
   20.220    4.1952
   20.235    4.6165
   20.250    5.0377
   20.265    4.3181
   20.280    4.1074
   20.295    4.4409
   20.310    4.5638
   20.325    4.6867
   20.340    4.6691
   20.355    4.5814
   20.370    5.0377
   20.385    4.8798
   20.400    4.7042
   20.415    4.8271
   20.430    4.8447
   20.445    4.5989
   20.460    4.4409
   20.475    4.5287
   20.490    4.1952
   20.505    4.7393
   20.520    4.3532
   20.535    4.1776
   20.550    4.4234
   20.565    4.2654
   20.580    3.9670
   20.595    4.2830
   20.610    4.1776
   20.625    4.6867
   20.640    4.6867
   20.655    4.7393
   20.670    4.6340
   20.685    5.0377
   20.700    4.4234
   20.715    4.3356
   20.730    4.2654
   20.745    4.1425
   20.760    4.2654
   20.775    4.3181
   20.790    4.6165
   20.805    4.7393
   20.820    4.4409
   20.835    4.1776
   20.850    4.5814
   20.865    4.4936
   20.880    4.6516
   20.895    4.9149
   20.910    4.3883
   20.925    4.4760
   20.940    4.4760
   20.955    4.2478
   20.970    4.3181
   20.985    4.1425
   21.000    4.7042
   21.015    4.0899
   21.030    4.1425
   21.045    4.3883
   21.060    4.3005
   21.075    3.9670
   21.090    4.4234
   21.105    4.4058
   21.120    4.0548
   21.135    4.4234
   21.150    4.4058
   21.165    4.3532
   21.180    4.2303
   21.195    3.8792
   21.210    4.4936
   21.225    4.4058
   21.240    4.2478
   21.255    4.3532
   21.270    4.4936
   21.285    4.4058
   21.300    4.2654
   21.315    4.2127
   21.330    4.3356
   21.345    4.1776
   21.360    4.5638
   21.375    4.6867
   21.390    4.5287
   21.405    3.9494
   21.420    3.9670
   21.435    3.8968
   21.450    4.2478
   21.465    4.5287
   21.480    4.3883
   21.495    4.4585
   21.510    4.6691
   21.525    4.6165
   21.540    4.1952
   21.555    4.4058
   21.570    4.2127
   21.585    4.6340
   21.600    4.3707
   21.615    4.4936
   21.630    4.4409
   21.645    4.3532
   21.660    4.3883
   21.675    4.1952
   21.690    4.7393
   21.705    4.1952
   21.720    4.2830
   21.735    4.1425
   21.750    4.4936
   21.765    4.8271
   21.780    4.0899
   21.795    3.9319
   21.810    4.2303
   21.825    4.2654
   21.840    4.4409
   21.855    4.5111
   21.870    4.7218
   21.885    4.8798
   21.900    4.2654
   21.915    4.5287
   21.930    4.7920
   21.945    4.2303
   21.960    4.4936
   21.975    4.6691
   21.990    4.5463
   22.005    4.2127
   22.020    3.6862
   22.035    3.8792
   22.050    4.2478
   22.065    4.3356
   22.080    4.4409
   22.095    4.7042
   22.110    4.2127
   22.125    4.0197
   22.140    4.3883
   22.155    3.9319
   22.170    3.8968
   22.185    4.1250
   22.200    4.3883
   22.215    4.0723
   22.230    4.2654
   22.245    4.1776
   22.260    4.1250
   22.275    4.0899
   22.290    4.5463
   22.305    4.0548
   22.320    3.9143
   22.335    4.1425
   22.350    4.2303
   22.365    3.9670
   22.380    4.0899
   22.395    4.4936
   22.410    4.3883
   22.425    4.0021
   22.440    3.9143
   22.455    4.1074
   22.470    4.4234
   22.485    3.8266
   22.500    4.1074
   22.515    3.9670
   22.530    4.6165
   22.545    4.4234
   22.560    4.5287
   22.575    4.8622
   22.590    4.7042
   22.605    4.4936
   22.620    4.0197
   22.635    4.1952
   22.650    4.0723
   22.665    4.2127
   22.680    3.9670
   22.695    4.1250
   22.710    3.9143
   22.725    4.3356
   22.740    4.0899
   22.755    4.1074
   22.770    3.6510
   22.785    3.8792
   22.800    4.7218
   22.815    4.2303
   22.830    3.8441
   22.845    4.1425
   22.860    4.1601
   22.875    4.1776
   22.890    4.3005
   22.905    4.3707
   22.920    4.5111
   22.935    4.9675
   22.950    4.6516
   22.965    4.6867
   22.980    4.3883
   22.995    4.2478
   23.010    4.0021
   23.025    4.0372
   23.040    4.3532
   23.055    4.1425
   23.070    4.1250
   23.085    4.0021
   23.100    4.2830
   23.115    4.2830
   23.130    4.2127
   23.145    4.0197
   23.160    4.0548
   23.175    4.0899
   23.190    4.0723
   23.205    4.1250
   23.220    4.4234
   23.235    4.2303
   23.250    4.1250
   23.265    3.9846
   23.280    4.3356
   23.295    4.3356
   23.310    3.9670
   23.325    3.8441
   23.340    4.0197
   23.355    4.2303
   23.370    4.0899
   23.385    3.8266
   23.400    3.7213
   23.415    4.0899
   23.430    3.9494
   23.445    3.9846
   23.460    3.8617
   23.475    3.7388
   23.490    3.7037
   23.505    3.7213
   23.520    4.1776
   23.535    4.2654
   23.550    3.7037
   23.565    3.6510
   23.580    3.6686
   23.595    4.1250
   23.610    4.2303
   23.625    3.8266
   23.640    3.7388
   23.655    3.8090
   23.670    3.7564
   23.685    3.7915
   23.700    3.9319
   23.715    3.7564
   23.730    4.0899
   23.745    3.8090
   23.760    3.9670
   23.775    3.8968
   23.790    3.5633
   23.805    4.2478
   23.820    3.9143
   23.835    3.9846
   23.850    3.9143
   23.865    3.8441
   23.880    4.1952
   23.895    4.3707
   23.910    3.9143
   23.925    4.1250
   23.940    4.4760
   23.955    4.0372
   23.970    3.9494
   23.985    4.0723
   24.000    4.2478
   24.015    3.9319
   24.030    3.8441
   24.045    4.0372
   24.060    3.6159
   24.075    4.2478
   24.090    3.7388
   24.105    3.5457
   24.120    3.6862
   24.135    3.8441
   24.150    3.9494
   24.165    4.0372
   24.180    3.6686
   24.195    3.7739
   24.210    4.0899
   24.225    3.6686
   24.240    3.6335
   24.255    3.4755
   24.270    4.0021
   24.285    3.7915
   24.300    3.8792
   24.315    3.3702
   24.330    3.9143
   24.345    3.8090
   24.360    3.8792
   24.375    3.5808
   24.390    3.5633
   24.405    3.7739
   24.420    3.5984
   24.435    3.9494
   24.450    3.7037
   24.465    3.4404
   24.480    3.6686
   24.495    3.9670
   24.510    3.4229
   24.525    3.6862
   24.540    4.0372
   24.555    3.8266
   24.570    3.9143
   24.585    3.5633
   24.600    3.7564
   24.615    3.7739
   24.630    4.2830
   24.645    4.4058
   24.660    4.0899
   24.675    3.4580
   24.690    3.8617
   24.705    3.8441
   24.720    3.5808
   24.735    3.9670
   24.750    3.5106
   24.765    3.6510
   24.780    4.0372
   24.795    3.8617
   24.810    3.6510
   24.825    3.5457
   24.840    4.0548
   24.855    3.3526
   24.870    3.8441
   24.885    3.6510
   24.900    3.4404
   24.915    3.4053
   24.930    3.9319
   24.945    3.8968
   24.960    3.8090
   24.975    3.8090
   24.990    3.5106
   25.005    3.9670
   25.020    3.8968
   25.035    3.9319
   25.050    3.9670
   25.065    3.8792
   25.080    3.7388
   25.095    3.5106
   25.110    3.5457
   25.125    3.8792
   25.140    3.9494
   25.155    3.9143
   25.170    3.7739
   25.185    3.8090
   25.200    3.6510
   25.215    3.6159
   25.230    3.9319
   25.245    3.6335
   25.260    3.4053
   25.275    3.3877
   25.290    3.4580
   25.305    3.5457
   25.320    3.6159
   25.335    3.7739
   25.350    4.0723
   25.365    4.0548
   25.380    4.0723
   25.395    3.8968
   25.410    3.9670
   25.425    3.8968
   25.440    3.8441
   25.455    3.6335
   25.470    3.5984
   25.485    3.2649
   25.500    3.3877
   25.515    3.8617
   25.530    3.6862
   25.545    3.6686
   25.560    3.6159
   25.575    3.6862
   25.590    3.4229
   25.605    3.8441
   25.620    3.4755
   25.635    3.4229
   25.650    3.4404
   25.665    3.7388
   25.680    3.7739
   25.695    3.2824
   25.710    3.8792
   25.725    3.6686
   25.740    3.6159
   25.755    3.9319
   25.770    3.8090
   25.785    3.6510
   25.800    3.8617
   25.815    4.1074
   25.830    3.8968
   25.845    3.9143
   25.860    3.5633
   25.875    3.8266
   25.890    4.1952
   25.905    3.7739
   25.920    3.5282
   25.935    3.7213
   25.950    3.3351
   25.965    3.5984
   25.980    3.3000
   25.995    3.4931
   26.010    3.8090
   26.025    3.7739
   26.040    4.1776
   26.055    3.4229
   26.070    3.3702
   26.085    3.5808
   26.100    3.7739
   26.115    3.8090
   26.130    3.5282
   26.145    3.8266
   26.160    3.9494
   26.175    3.9319
   26.190    3.5106
   26.205    3.9846
   26.220    3.5808
   26.235    3.5633
   26.250    3.4404
   26.265    3.3175
   26.280    3.6510
   26.295    3.3877
   26.310    3.7213
   26.325    3.8617
   26.340    3.3526
   26.355    3.4404
   26.370    3.5984
   26.385    3.4755
   26.400    3.7037
   26.415    3.5633
   26.430    3.3351
   26.445    3.6335
   26.460    3.6510
   26.475    3.2649
   26.490    3.5282
   26.505    3.6159
   26.520    3.6510
   26.535    3.1069
   26.550    3.3351
   26.565    3.4229
   26.580    3.3877
   26.595    3.7739
   26.610    3.5282
   26.625    3.3175
   26.640    3.3877
   26.655    3.5106
   26.670    3.2122
   26.685    3.3351
   26.700    3.2473
   26.715    3.1947
   26.730    3.0718
   26.745    2.8612
   26.760    3.4229
   26.775    3.6510
   26.790    3.6510
   26.805    3.4053
   26.820    3.6335
   26.835    3.4229
   26.850    3.3175
   26.865    3.5282
   26.880    3.4053
   26.895    3.5106
   26.910    3.3526
   26.925    2.9840
   26.940    3.3526
   26.955    3.1245
   26.970    3.3000
   26.985    3.4931
   27.000    3.5282
   27.015    3.4580
   27.030    3.4053
   27.045    3.8266
   27.060    3.4404
   27.075    3.8266
   27.090    3.8968
   27.105    3.6862
   27.120    3.4755
   27.135    3.3877
   27.150    3.5984
   27.165    3.2122
   27.180    3.7564
   27.195    3.5808
   27.210    3.4404
   27.225    3.4229
   27.240    3.3877
   27.255    3.3175
   27.270    3.3175
   27.285    3.5457
   27.300    3.3702
   27.315    3.1596
   27.330    3.6686
   27.345    3.4404
   27.360    2.9665
   27.375    3.1245
   27.390    3.1596
   27.405    3.2298
   27.420    3.4931
   27.435    2.8787
   27.450    2.8085
   27.465    3.2473
   27.480    3.3526
   27.495    3.2824
   27.510    3.3877
   27.525    3.3351
   27.540    3.5808
   27.555    3.0718
   27.570    3.2298
   27.585    3.5282
   27.600    3.6686
   27.615    3.4404
   27.630    2.9489
   27.645    3.1245
   27.660    3.3877
   27.675    2.8436
   27.690    3.2298
   27.705    3.1245
   27.720    3.4404
   27.735    3.1771
   27.750    3.2473
   27.765    3.2824
   27.780    3.2122
   27.795    3.1947
   27.810    3.5457
   27.825    2.9840
   27.840    3.0191
   27.855    3.1947
   27.870    3.4580
   27.885    3.1245
   27.900    2.9665
   27.915    2.9840
   27.930    3.4053
   27.945    3.1596
   27.960    2.9840
   27.975    3.0542
   27.990    3.0542
   28.005    3.1245
   28.020    3.2473
   28.035    3.1596
   28.050    2.9138
   28.065    3.0542
   28.080    2.8085
   28.095    2.8963
   28.110    3.2122
   28.125    3.1069
   28.140    3.1245
   28.155    3.2649
   28.170    3.5282
   28.185    3.7388
   28.200    3.2122
   28.215    2.8787
   28.230    3.1771
   28.245    3.1596
   28.260    3.1771
   28.275    3.0542
   28.290    2.8963
   28.305    2.9840
   28.320    2.9840
   28.335    3.2824
   28.350    3.2122
   28.365    3.1245
   28.380    3.1947
   28.395    3.1596
   28.410    3.1420
   28.425    3.1420
   28.440    3.0718
   28.455    2.9840
   28.470    2.9138
   28.485    3.1771
   28.500    3.0893
   28.515    3.0367
   28.530    3.3000
   28.545    2.9840
   28.560    3.2298
   28.575    3.0191
   28.590    3.0016
   28.605    3.0893
   28.620    3.2473
   28.635    3.0367
   28.650    3.2298
   28.665    3.3351
   28.680    3.1245
   28.695    2.9489
   28.710    2.9840
   28.725    3.1245
   28.740    3.0718
   28.755    3.3175
   28.770    3.2473
   28.785    2.9840
   28.800    3.1245
   28.815    3.6335
   28.830    3.3000
   28.845    3.2122
   28.860    3.2473
   28.875    2.9314
   28.890    3.2473
   28.905    3.2824
   28.920    3.0893
   28.935    3.2649
   28.950    3.5633
   28.965    3.1947
   28.980    3.4404
   28.995    3.0542
   29.010    3.2298
   29.025    3.0718
   29.040    3.1596
   29.055    2.7909
   29.070    3.4755
   29.085    3.6159
   29.100    3.4755
   29.115    3.4580
   29.130    3.0016
   29.145    3.1947
   29.160    3.0542
   29.175    3.0893
   29.190    3.4229
   29.205    3.1771
   29.220    3.3526
   29.235    3.0718
   29.250    2.9840
   29.265    2.8436
   29.280    3.0893
   29.295    3.1771
   29.310    3.0893
   29.325    3.1771
   29.340    3.0367
   29.355    2.5276
   29.370    2.5452
   29.385    3.1596
   29.400    3.3351
   29.415    3.0542
   29.430    2.9840
   29.445    2.8963
   29.460    2.8260
   29.475    3.0016
   29.490    2.9314
   29.505    2.8612
   29.520    2.7383
   29.535    2.7558
   29.550    2.7383
   29.565    2.6154
   29.580    2.7032
   29.595    3.1420
   29.610    3.0191
   29.625    2.9489
   29.640    2.9138
   29.655    3.1420
   29.670    3.0367
   29.685    2.9138
   29.700    2.6330
   29.715    2.8436
   29.730    2.9665
   29.745    2.8260
   29.760    2.7032
   29.775    2.8085
   29.790    3.0367
   29.805    3.0718
   29.820    2.9489
   29.835    3.3175
   29.850    3.0542
   29.865    2.8612
   29.880    2.8436
   29.895    2.6681
   29.910    2.7207
   29.925    2.8260
   29.940    2.8963
   29.955    2.6505
   29.970    2.8085
   29.985    2.4750
   30.000    2.3170
   30.015    2.7558
   30.030    2.7558
   30.045    2.7032
   30.060    3.2298
   30.075    2.7909
   30.090    2.6154
   30.105    2.7032
   30.120    2.7909
   30.135    2.7383
   30.150    2.9665
   30.165    2.6681
   30.180    2.6505
   30.195    2.8436
   30.210    2.5276
   30.225    2.7207
   30.240    2.7032
   30.255    2.7207
   30.270    2.7558
   30.285    2.8085
   30.300    2.6681
   30.315    2.7734
   30.330    2.8612
   30.345    2.8436
   30.360    2.8085
   30.375    2.4925
   30.390    2.5452
   30.405    2.3697
   30.420    2.6154
   30.435    2.8085
   30.450    2.8612
   30.465    2.6330
   30.480    2.5452
   30.495    2.4925
   30.510    2.6681
   30.525    2.6856
   30.540    2.8260
   30.555    3.2122
   30.570    2.9665
   30.585    2.5628
   30.600    2.7383
   30.615    3.0367
   30.630    2.8612
   30.645    2.9138
   30.660    2.7734
   30.675    2.8963
   30.690    2.4223
   30.705    2.3872
   30.720    2.7558
   30.735    2.6856
   30.750    2.9489
   30.765    2.6154
   30.780    2.4925
   30.795    2.7558
   30.810    2.8787
   30.825    2.9665
   30.840    2.7032
   30.855    2.5452
   30.870    2.5101
   30.885    2.7558
   30.900    2.5452
   30.915    2.7734
   30.930    2.6330
   30.945    2.8085
   30.960    2.6681
   30.975    2.7383
   30.990    2.7032
   31.005    2.7909
   31.020    2.7207
   31.035    2.5628
   31.050    2.3521
   31.065    2.5628
   31.080    2.6856
   31.095    2.2995
   31.110    2.2643
   31.125    2.5979
   31.140    2.7032
   31.155    2.4223
   31.170    2.6154
   31.185    2.4574
   31.200    2.2995
   31.215    2.3697
   31.230    2.5276
   31.245    2.2643
   31.260    2.4223
   31.275    2.6154
   31.290    2.8787
   31.305    2.8612
   31.320    2.6154
   31.335    2.7558
   31.350    2.5628
   31.365    2.3872
   31.380    2.6681
   31.395    2.5276
   31.410    2.5452
   31.425    2.4574
   31.440    2.3872
   31.455    2.3872
   31.470    2.7032
   31.485    2.5979
   31.500    2.5452
   31.515    2.2819
   31.530    2.5276
   31.545    2.5979
   31.560    2.7383
   31.575    2.6681
   31.590    2.1239
   31.605    2.4223
   31.620    2.4223
   31.635    2.4048
   31.650    2.3346
   31.665    2.5803
   31.680    2.3170
   31.695    2.2468
   31.710    2.3170
   31.725    2.2292
   31.740    2.3521
   31.755    2.2117
   31.770    2.3170
   31.785    2.3521
   31.800    2.4223
   31.815    2.2995
   31.830    2.2292
   31.845    2.5452
   31.860    2.5452
   31.875    2.4223
   31.890    2.4048
   31.905    2.6330
   31.920    2.3872
   31.935    2.4399
   31.950    2.5101
   31.965    2.3697
   31.980    2.3697
   31.995    2.4223
   32.010    2.5452
   32.025    2.4574
   32.040    2.2819
   32.055    2.2643
   32.070    2.5803
   32.085    2.5979
   32.100    2.5101
   32.115    2.7383
   32.130    2.8963
   32.145    2.5452
   32.160    2.4925
   32.175    2.4750
   32.190    2.5276
   32.205    2.2995
   32.220    2.3872
   32.235    2.3872
   32.250    2.3346
   32.265    2.1239
   32.280    2.2819
   32.295    2.1064
   32.310    2.1415
   32.325    2.3521
   32.340    2.4048
   32.355    2.3346
   32.370    2.3170
   32.385    2.1415
   32.400    2.0186
   32.415    2.2292
   32.430    2.3346
   32.445    2.3872
   32.460    2.3346
   32.475    2.3521
   32.490    2.0537
   32.505    2.3697
   32.520    2.3521
   32.535    2.4574
   32.550    2.5276
   32.565    2.4574
   32.580    2.2819
   32.595    2.3346
   32.610    2.5276
   32.625    2.7909
   32.640    2.5628
   32.655    2.4048
   32.670    2.2643
   32.685    2.5101
   32.700    2.4399
   32.715    2.0537
   32.730    2.2643
   32.745    2.3170
   32.760    2.4399
   32.775    2.5628
   32.790    2.5101
   32.805    2.4574
   32.820    2.1415
   32.835    2.3521
   32.850    2.3521
   32.865    2.3521
   32.880    2.3170
   32.895    2.3872
   32.910    2.2292
   32.925    2.4925
   32.940    2.2643
   32.955    2.2117
   32.970    2.0888
   32.985    2.4223
   33.000    2.3170
   33.015    2.2643
   33.030    2.5101
   33.045    2.2117
   33.060    2.3872
   33.075    2.1415
   33.090    2.3170
   33.105    2.4399
   33.120    2.1064
   33.135    2.1415
   33.150    2.1239
   33.165    2.1590
   33.180    2.4048
   33.195    2.5101
   33.210    2.0713
   33.225    2.4925
   33.240    2.3346
   33.255    2.3170
   33.270    2.3346
   33.285    2.3521
   33.300    2.1766
   33.315    2.4223
   33.330    2.5452
   33.345    2.4048
   33.360    2.3697
   33.375    2.2117
   33.390    2.1415
   33.405    2.1766
   33.420    2.1239
   33.435    2.5101
   33.450    2.5101
   33.465    2.0362
   33.480    2.0713
   33.495    1.9835
   33.510    2.6154
   33.525    2.2468
   33.540    2.2468
   33.555    2.4223
   33.570    2.5276
   33.585    2.2819
   33.600    2.4223
   33.615    2.1941
   33.630    1.9308
   33.645    2.0186
   33.660    2.1239
   33.675    2.4048
   33.690    2.2117
   33.705    2.2819
   33.720    2.5628
   33.735    2.1415
   33.750    2.3872
   33.765    2.3346
   33.780    2.2819
   33.795    2.1239
   33.810    2.3170
   33.825    2.4223
   33.840    2.2995
   33.855    2.1941
   33.870    1.9659
   33.885    2.1941
   33.900    2.4925
   33.915    2.3521
   33.930    2.2995
   33.945    2.3170
   33.960    2.3170
   33.975    2.5979
   33.990    2.3521
   34.005    2.3170
   34.020    2.3170
   34.035    2.3872
   34.050    2.2819
   34.065    2.1766
   34.080    2.2117
   34.095    2.2643
   34.110    2.2643
   34.125    2.5101
   34.140    2.0713
   34.155    2.2819
   34.170    2.2643
   34.185    2.1941
   34.200    2.3521
   34.215    1.8255
   34.230    2.1064
   34.245    2.4223
   34.260    2.6681
   34.275    2.3170
   34.290    2.2292
   34.305    2.1415
   34.320    2.3697
   34.335    2.2819
   34.350    2.3346
   34.365    2.1590
   34.380    2.0888
   34.395    2.0713
   34.410    2.1239
   34.425    2.1415
   34.440    2.1415
   34.455    2.1415
   34.470    2.1239
   34.485    2.1064
   34.500    2.0362
   34.515    2.2643
   34.530    2.2292
   34.545    2.4925
   34.560    2.3170
   34.575    2.1239
   34.590    2.2292
   34.605    2.1941
   34.620    2.3872
   34.635    2.1415
   34.650    2.0362
   34.665    2.3170
   34.680    2.2995
   34.695    2.3521
   34.710    2.2643
   34.725    2.3170
   34.740    2.1766
   34.755    2.1766
   34.770    2.0186
   34.785    1.9484
   34.800    1.9308
   34.815    2.2468
   34.830    2.3170
   34.845    2.1415
   34.860    2.0888
   34.875    2.1239
   34.890    2.2468
   34.905    1.8080
   34.920    1.9308
   34.935    2.0362
   34.950    2.0362
   34.965    1.7904
   34.980    2.4223
   34.995    2.3697
   35.010    2.0888
   35.025    1.9308
   35.040    2.1064
   35.055    2.2643
   35.070    2.1415
   35.085    2.1766
   35.100    2.1941
   35.115    2.0362
   35.130    2.0888
   35.145    1.9484
   35.160    1.8782
   35.175    2.2117
   35.190    1.8606
   35.205    2.0537
   35.220    2.2468
   35.235    2.2292
   35.250    2.1590
   35.265    2.1590
   35.280    2.0186
   35.295    2.1064
   35.310    2.1941
   35.325    1.9308
   35.340    2.0888
   35.355    2.0537
   35.370    2.0011
   35.385    1.8957
   35.400    1.9484
   35.415    1.9659
   35.430    2.0713
   35.445    2.2819
   35.460    2.1766
   35.475    1.8957
   35.490    2.2995
   35.505    2.0011
   35.520    2.1415
   35.535    2.1590
   35.550    2.4574
   35.565    2.4750
   35.580    2.1064
   35.595    2.2643
   35.610    2.1415
   35.625    2.0713
   35.640    2.0011
   35.655    2.1766
   35.670    2.3170
   35.685    1.8782
   35.700    2.0011
   35.715    2.2117
   35.730    2.2292
   35.745    2.4048
   35.760    2.1415
   35.775    1.9835
   35.790    1.9659
   35.805    2.0713
   35.820    2.1415
   35.835    2.0713
   35.850    1.9308
   35.865    2.1941
   35.880    2.0888
   35.895    2.0011
   35.910    1.8255
   35.925    1.9133
   35.940    2.0186
   35.955    2.1415
   35.970    2.1239
   35.985    2.2819
   36.000    1.8782
   36.015    2.1590
   36.030    2.1064
   36.045    1.9835
   36.060    2.0011
   36.075    2.3872
   36.090    2.1239
   36.105    2.0537
   36.120    2.1415
   36.135    1.9835
   36.150    1.7729
   36.165    1.8606
   36.180    1.9659
   36.195    2.2995
   36.210    2.1415
   36.225    2.0888
   36.240    2.2995
   36.255    1.9659
   36.270    1.8782
   36.285    2.0362
   36.300    2.3697
   36.315    2.3346
   36.330    2.3170
   36.345    2.0537
   36.360    1.9308
   36.375    2.2468
   36.390    2.2819
   36.405    2.4925
   36.420    2.3872
   36.435    1.9835
   36.450    2.1590
   36.465    2.4574
   36.480    2.3872
   36.495    2.2995
   36.510    2.1941
   36.525    2.1766
   36.540    2.2819
   36.555    2.2117
   36.570    2.0011
   36.585    1.9835
   36.600    2.5628
   36.615    2.2643
   36.630    2.0186
   36.645    2.1239
   36.660    2.0362
   36.675    1.7729
   36.690    1.9835
   36.705    1.9133
   36.720    2.1064
   36.735    2.2643
   36.750    2.2468
   36.765    2.0186
   36.780    1.7729
   36.795    2.1590
   36.810    2.5979
   36.825    2.2292
   36.840    2.1064
   36.855    2.2292
   36.870    2.0537
   36.885    2.1590
   36.900    2.1239
   36.915    2.1064
   36.930    1.9308
   36.945    1.9133
   36.960    2.0011
   36.975    2.0186
   36.990    1.9835
   37.005    2.1239
   37.020    2.1590
   37.035    2.1064
   37.050    1.8957
   37.065    2.0537
   37.080    2.0362
   37.095    2.2995
   37.110    2.0011
   37.125    2.0888
   37.140    2.1941
   37.155    1.9308
   37.170    2.4399
   37.185    2.1239
   37.200    1.9659
   37.215    2.1239
   37.230    1.9133
   37.245    2.5101
   37.260    2.3346
   37.275    1.9835
   37.290    2.0186
   37.305    1.7729
   37.320    1.7027
   37.335    2.0362
   37.350    2.0537
   37.365    2.0537
   37.380    2.0537
   37.395    1.8606
   37.410    2.0362
   37.425    2.1064
   37.440    1.9484
   37.455    2.0537
   37.470    2.1766
   37.485    2.1590
   37.500    2.1239
   37.515    2.0537
   37.530    1.9835
   37.545    2.2468
   37.560    2.2819
   37.575    2.3170
   37.590    1.9133
   37.605    2.1415
   37.620    2.1590
   37.635    2.0011
   37.650    1.8080
   37.665    2.1064
   37.680    2.0888
   37.695    2.0011
   37.710    1.8957
   37.725    2.0362
   37.740    2.1766
   37.755    2.1941
   37.770    2.0713
   37.785    2.1766
   37.800    2.2117
   37.815    2.0713
   37.830    2.1415
   37.845    2.0537
   37.860    1.9835
   37.875    1.8431
   37.890    1.7202
   37.905    1.8957
   37.920    1.9133
   37.935    1.8957
   37.950    2.1766
   37.965    2.0537
   37.980    1.9659
   37.995    1.8782
   38.010    2.0362
   38.025    2.0186
   38.040    1.9835
   38.055    2.0537
   38.070    2.0888
   38.085    2.0362
   38.100    1.8957
   38.115    2.0537
   38.130    2.0362
   38.145    2.0362
   38.160    1.8782
   38.175    1.8431
   38.190    2.0362
   38.205    2.2117
   38.220    2.0362
   38.235    2.1064
   38.250    1.8080
   38.265    2.0011
   38.280    2.1766
   38.295    2.3170
   38.310    1.9133
   38.325    1.9835
   38.340    1.9308
   38.355    1.8957
   38.370    2.1064
   38.385    2.0713
   38.400    2.0186
   38.415    2.0186
   38.430    2.0537
   38.445    1.9484
   38.460    1.8606
   38.475    1.7904
   38.490    2.0537
   38.505    1.8080
   38.520    1.9835
   38.535    1.8431
   38.550    1.5798
   38.565    1.6500
   38.580    1.7378
   38.595    1.8606
   38.610    2.1590
   38.625    2.0713
   38.640    1.7904
   38.655    1.8957
   38.670    1.9308
   38.685    1.8606
   38.700    1.9308
   38.715    2.2117
   38.730    1.9308
   38.745    2.1766
   38.760    2.0888
   38.775    2.1941
   38.790    2.0186
   38.805    2.1766
   38.820    1.6851
   38.835    1.7729
   38.850    2.0713
   38.865    2.1941
   38.880    2.0362
   38.895    2.0362
   38.910    2.0011
   38.925    1.8080
   38.940    2.1064
   38.955    2.1941
   38.970    2.0362
   38.985    1.8431
   39.000    1.7729
   39.015    2.0011
   39.030    2.1766
   39.045    1.7904
   39.060    1.8957
   39.075    1.6500
   39.090    1.7729
   39.105    1.8080
   39.120    1.9133
   39.135    2.1239
   39.150    2.1415
   39.165    2.1415
   39.180    1.8255
   39.195    2.0362
   39.210    1.9308
   39.225    1.8606
   39.240    1.9484
   39.255    2.1239
   39.270    2.1415
   39.285    1.7904
   39.300    1.7027
   39.315    1.5447
   39.330    2.0186
   39.345    2.1239
   39.360    1.8957
   39.375    1.9835
   39.390    2.2117
   39.405    1.8957
   39.420    1.7553
   39.435    2.0011
   39.450    2.0713
   39.465    1.8782
   39.480    1.9484
   39.495    1.9308
   39.510    2.0713
   39.525    2.0713
   39.540    2.0713
   39.555    2.1590
   39.570    2.0186
   39.585    1.9659
   39.600    1.8080
   39.615    2.0537
   39.630    1.8431
   39.645    1.6851
   39.660    1.9484
   39.675    2.1941
   39.690    2.0713
   39.705    1.8255
   39.720    1.9133
   39.735    1.9659
   39.750    1.8957
   39.765    2.0186
   39.780    1.8957
   39.795    2.0362
   39.810    2.0011
   39.825    1.9835
   39.840    1.9308
   39.855    1.7553
   39.870    1.7553
   39.885    1.9308
   39.900    1.8606
   39.915    2.0186
   39.930    1.9308
   39.945    2.1239
   39.960    2.1766
   39.975    1.9308
   39.990    1.8080
