    1.500    9.8789
    1.515   10.1316
    1.530    9.6156
    1.545    9.6156
    1.560    9.5313
    1.575    9.7104
    1.590    9.1838
    1.605    9.2891
    1.620    9.3207
    1.635    9.3418
    1.650    9.3418
    1.665    9.2891
    1.680    9.0785
    1.695    8.6045
    1.710    8.8152
    1.725    8.8468
    1.740    8.4044
    1.755    8.3412
    1.770    8.3096
    1.785    8.0358
    1.800    8.0569
    1.815    8.2254
    1.830    8.2991
    1.845    8.1622
    1.860    8.3096
    1.875    8.4044
    1.890    8.3202
    1.905    7.9937
    1.920    7.7199
    1.935    8.0990
    1.950    7.7409
    1.965    7.7093
    1.980    7.5724
    1.995    7.5935
    2.010    7.4039
    2.025    7.2038
    2.040    7.1617
    2.055    7.0985
    2.070    7.0985
    2.085    7.1301
    2.100    6.9089
    2.115    7.0879
    2.130    6.8562
    2.145    6.7088
    2.160    6.8141
    2.175    7.2986
    2.190    6.9510
    2.205    6.9300
    2.220    6.5508
    2.235    6.3718
    2.250    6.7825
    2.265    6.5719
    2.280    6.6772
    2.295    6.7930
    2.310    6.6140
    2.325    6.6140
    2.340    6.7930
    2.355    6.3507
    2.370    6.4771
    2.385    6.5087
    2.400    6.3402
    2.415    5.7715
    2.430    6.2033
    2.445    6.7404
    2.460    6.6772
    2.475    6.2559
    2.490    6.2033
    2.505    6.2243
    2.520    6.2454
    2.535    6.3402
    2.550    6.3191
    2.565    6.1295
    2.580    5.8452
    2.595    6.0137
    2.610    6.3928
    2.625    6.0032
    2.640    5.9189
    2.655    5.8241
    2.670    6.2454
    2.685    6.2243
    2.700    5.8136
    2.715    5.8768
    2.730    6.0558
    2.745    5.9400
    2.760    6.0242
    2.775    6.0664
    2.790    6.1927
    2.805    6.0032
    2.820    6.4350
    2.835    6.1927
    2.850    5.8241
    2.865    5.9716
    2.880    5.8031
    2.895    5.9189
    2.910    5.6240
    2.925    5.7188
    2.940    5.8452
    2.955    5.9716
    2.970    5.4344
    2.985    5.8031
    3.000    6.0348
    3.015    6.4244
    3.030    5.9294
    3.045    6.0769
    3.060    5.9821
    3.075    6.0453
    3.090    5.8662
    3.105    5.6977
    3.120    6.3402
    3.135    5.5714
    3.150    5.6977
    3.165    5.8241
    3.180    6.2454
    3.195    5.8662
    3.210    5.5714
    3.225    5.7399
    3.240    5.8873
    3.255    5.7399
    3.270    5.6767
    3.285    5.2870
    3.300    5.7925
    3.315    5.8241
    3.330    5.9400
    3.345    5.9821
    3.360    5.9400
    3.375    6.0979
    3.390    5.9821
    3.405    6.0664
    3.420    6.0453
    3.435    6.1401
    3.450    6.1295
    3.465    5.7820
    3.480    5.9400
    3.495    5.8031
    3.510    5.6661
    3.525    5.6661
    3.540    5.7609
    3.555    6.3823
    3.570    6.2559
    3.585    6.3718
    3.600    6.7404
    3.615    6.6351
    3.630    6.5087
    3.645    6.3823
    3.660    6.9405
    3.675    6.5403
    3.690    6.5298
    3.705    6.8036
    3.720    6.9932
    3.735    7.2249
    3.750    7.1301
    3.765    7.5197
    3.780    7.6672
    3.795    7.8989
    3.810    8.5835
    3.825    8.8994
    3.840    9.3628
    3.855   10.1106
    3.870   10.6688
    3.885   12.1748
    3.900   13.7967
    3.915   14.1338
    3.930   12.2275
    3.945    9.7630
    3.960    8.1306
    3.975    6.4560
    3.990    6.2770
    4.005    5.8241
    4.020    5.7293
    4.035    5.4555
    4.050    5.7188
    4.065    5.6240
    4.080    5.4766
    4.095    5.4976
    4.110    5.8662
    4.125    5.4239
    4.140    5.8768
    4.155    5.6029
    4.170    5.7188
    4.185    5.6661
    4.200    6.0348
    4.215    5.3712
    4.230    5.4660
    4.245    5.5503
    4.260    5.7083
    4.275    5.6977
    4.290    5.7399
    4.305    5.9610
    4.320    5.8873
    4.335    5.5714
    4.350    5.4871
    4.365    5.3712
    4.380    5.6872
    4.395    5.3818
    4.410    5.6872
    4.425    5.7820
    4.440    6.0979
    4.455    5.9294
    4.470    5.6451
    4.485    5.3502
    4.500    5.2449
    4.515    5.8347
    4.530    5.9400
    4.545    5.2238
    4.560    5.3818
    4.575    5.7188
    4.590    5.8662
    4.605    5.9505
    4.620    5.6872
    4.635    5.9926
    4.650    6.0242
    4.665    5.9716
    4.680    5.9926
    4.695    5.8031
    4.710    5.6661
    4.725    5.4871
    4.740    5.5924
    4.755    5.8662
    4.770    5.8241
    4.785    6.0769
    4.800    5.9926
    4.815    5.9610
    4.830    5.6977
    4.845    6.0453
    4.860    6.6140
    4.875    6.4139
    4.890    6.0664
    4.905    6.0348
    4.920    6.1611
    4.935    6.2033
    4.950    6.1506
    4.965    6.3612
    4.980    6.2349
    4.995    5.9084
    5.010    6.0664
    5.025    6.2981
    5.040    6.2559
    5.055    5.8452
    5.070    6.0874
    5.085    6.3191
    5.100    6.2033
    5.115    6.4982
    5.130    6.5403
    5.145    6.5192
    5.160    6.6140
    5.175    6.7825
    5.190    6.7720
    5.205    7.0458
    5.220    6.9089
    5.235    7.2775
    5.250    7.1827
    5.265    7.4776
    5.280    7.2775
    5.295    7.3407
    5.310    7.4144
    5.325    7.3828
    5.340    7.6672
    5.355    8.2359
    5.370    8.1095
    5.385    8.0674
    5.400    8.2043
    5.415    8.2043
    5.430    8.2464
    5.445    8.6677
    5.460    9.2048
    5.475    8.9837
    5.490    9.3944
    5.505    9.8789
    5.520   10.3423
    5.535   10.0685
    5.550   10.0474
    5.565    9.8368
    5.580    9.6577
    5.595    8.8152
    5.610    7.8252
    5.625    7.7514
    5.640    8.1411
    5.655    8.4571
    5.670    7.6988
    5.685    7.6567
    5.700    7.6777
    5.715    7.2038
    5.730    7.6145
    5.745    7.5829
    5.760    7.3091
    5.775    7.4144
    5.790    7.4039
    5.805    7.1195
    5.820    7.0669
    5.835    7.1722
    5.850    6.4244
    5.865    6.7615
    5.880    6.7299
    5.895    6.9194
    5.910    6.8773
    5.925    6.3507
    5.940    6.1927
    5.955    6.4139
    5.970    6.3086
    5.985    6.0874
    6.000    6.4244
    6.015    6.2770
    6.030    6.6245
    6.045    6.4455
    6.060    6.1085
    6.075    6.1295
    6.090    6.0242
    6.105    6.0453
    6.120    5.8452
    6.135    6.1401
    6.150    5.5924
    6.165    6.1822
    6.180    5.9926
    6.195    6.1506
    6.210    5.7609
    6.225    5.5292
    6.240    5.8031
    6.255    5.4450
    6.270    5.3186
    6.285    5.8662
    6.300    5.4660
    6.315    5.5714
    6.330    5.8452
    6.345    5.5187
    6.360    5.4555
    6.375    5.3186
    6.390    5.4871
    6.405    5.4871
    6.420    5.4660
    6.435    5.5187
    6.450    5.5924
    6.465    5.4766
    6.480    5.4660
    6.495    5.5187
    6.510    5.3291
    6.525    5.3712
    6.540    5.4766
    6.555    5.6029
    6.570    5.2027
    6.585    5.1606
    6.600    5.4450
    6.615    5.2870
    6.630    4.8868
    6.645    5.0869
    6.660    5.2870
    6.675    5.2238
    6.690    5.5608
    6.705    5.7293
    6.720    5.8557
    6.735    6.1611
    6.750    5.9294
    6.765    6.0453
    6.780    6.2454
    6.795    6.1190
    6.810    5.6661
    6.825    5.4239
    6.840    5.2238
    6.855    5.2765
    6.870    5.1290
    6.885    5.1290
    6.900    5.1606
    6.915    4.6867
    6.930    4.7604
    6.945    4.6867
    6.960    4.8341
    6.975    4.8341
    6.990    4.8763
    7.005    4.8341
    7.020    5.0132
    7.035    4.4655
    7.050    4.6235
    7.065    4.5708
    7.080    4.3918
    7.095    4.4444
    7.110    4.6761
    7.125    4.8868
    7.140    4.4550
    7.155    4.6130
    7.170    4.4550
    7.185    4.1180
    7.200    4.5392
    7.215    4.8973
    7.230    4.8763
    7.245    4.7815
    7.260    4.4760
    7.275    4.4023
    7.290    4.5182
    7.305    4.5603
    7.320    4.6340
    7.335    4.4339
    7.350    4.5182
    7.365    4.2970
    7.380    4.4760
    7.395    4.4339
    7.410    4.7183
    7.425    4.2654
    7.440    4.2654
    7.455    4.4128
    7.470    4.2233
    7.485    4.0337
    7.500    3.9494
    7.515    4.2022
    7.530    4.3391
    7.545    3.9494
    7.560    4.1496
    7.575    4.3391
    7.590    4.3181
    7.605    4.2549
    7.620    4.1285
    7.635    4.2233
    7.650    4.2127
    7.665    4.3391
    7.680    4.2443
    7.695    3.8968
    7.710    4.2549
    7.725    4.0548
    7.740    4.3286
    7.755    4.4444
    7.770    4.2338
    7.785    4.0442
    7.800    4.2865
    7.815    4.4023
    7.830    4.5708
    7.845    4.3602
    7.860    4.3391
    7.875    4.2970
    7.890    4.2443
    7.905    4.0653
    7.920    3.6651
    7.935    4.0021
    7.950    4.0021
    7.965    4.0758
    7.980    4.0653
    7.995    4.0758
    8.010    3.9810
    8.025    3.9494
    8.040    4.1390
    8.055    4.0126
    8.070    3.7704
    8.085    3.9073
    8.100    3.9389
    8.115    3.6546
    8.130    3.6440
    8.145    3.8231
    8.160    3.5703
    8.175    4.0232
    8.190    3.7283
    8.205    3.7283
    8.220    4.0442
    8.235    3.7704
    8.250    3.7388
    8.265    3.3913
    8.280    3.4755
    8.295    3.6124
    8.310    3.3807
    8.325    3.5282
    8.340    3.7072
    8.355    3.6862
    8.370    3.7177
    8.385    3.4123
    8.400    3.6335
    8.415    3.8441
    8.430    3.6651
    8.445    3.5598
    8.460    3.9705
    8.475    4.1496
    8.490    3.8547
    8.505    3.9389
    8.520    3.5282
    8.535    3.5071
    8.550    3.7072
    8.565    3.6335
    8.580    3.6124
    8.595    3.5598
    8.610    3.4966
    8.625    3.4334
    8.640    3.5914
    8.655    3.5071
    8.670    3.5703
    8.685    3.8020
    8.700    3.5176
    8.715    3.4123
    8.730    3.6440
    8.745    3.6546
    8.760    3.4439
    8.775    3.6019
    8.790    3.5492
    8.805    3.4018
    8.820    3.4018
    8.835    3.6967
    8.850    3.2859
    8.865    3.4755
    8.880    3.6230
    8.895    3.4755
    8.910    3.4123
    8.925    3.5808
    8.940    3.5914
    8.955    3.6230
    8.970    3.5703
    8.985    3.8441
    9.000    3.6546
    9.015    3.6019
    9.030    3.4860
    9.045    3.5914
    9.060    3.5282
    9.075    3.4650
    9.090    3.5176
    9.105    3.7177
    9.120    3.5492
    9.135    3.3702
    9.150    3.4860
    9.165    3.6862
    9.180    3.5176
    9.195    3.3491
    9.210    3.4544
    9.225    3.1701
    9.240    3.2649
    9.255    3.4755
    9.270    3.3807
    9.285    3.3281
    9.300    3.4018
    9.315    3.4439
    9.330    3.4229
    9.345    3.1912
    9.360    3.3386
    9.375    3.3597
    9.390    3.4544
    9.405    3.7809
    9.420    3.6019
    9.435    3.5914
    9.450    3.6651
    9.465    3.7599
    9.480    3.9705
    9.495    4.0969
    9.510    3.7072
    9.525    3.6967
    9.540    4.2443
    9.555    4.7920
    9.570    5.0026
    9.585    4.6551
    9.600    5.0658
    9.615    4.6024
    9.630    3.8020
    9.645    4.0021
    9.660    3.5808
    9.675    3.5598
    9.690    3.2017
    9.705    3.3281
    9.720    3.4966
    9.735    3.3491
    9.750    3.5387
    9.765    3.3491
    9.780    3.4755
    9.795    3.4018
    9.810    3.5914
    9.825    3.4229
    9.840    3.1280
    9.855    3.3597
    9.870    3.2965
    9.885    3.4860
    9.900    3.3175
    9.915    3.3702
    9.930    3.6230
    9.945    3.5071
    9.960    3.3281
    9.975    3.2017
    9.990    3.4860
   10.005    3.4755
   10.020    3.3491
   10.035    3.4123
   10.050    3.4334
   10.065    3.4123
   10.080    3.2122
   10.095    3.3597
   10.110    3.4229
   10.125    3.5282
   10.140    3.4755
   10.155    3.4755
   10.170    3.3913
   10.185    3.1912
   10.200    3.5071
   10.215    3.5387
   10.230    3.6546
   10.245    3.3070
   10.260    3.6546
   10.275    3.6967
   10.290    3.4650
   10.305    3.5282
   10.320    3.6019
   10.335    3.6651
   10.350    4.2654
   10.365    4.0021
   10.380    4.1390
   10.395    3.8336
   10.410    3.6335
   10.425    3.6440
   10.440    3.3070
   10.455    3.4650
   10.470    4.0653
   10.485    3.5808
   10.500    3.6019
   10.515    3.3913
   10.530    3.4544
   10.545    3.6335
   10.560    3.6651
   10.575    3.4229
   10.590    3.4018
   10.605    3.5914
   10.620    3.3702
   10.635    3.5387
   10.650    3.8125
   10.665    3.5492
   10.680    3.6967
   10.695    3.8125
   10.710    3.6862
   10.725    3.3913
   10.740    3.4860
   10.755    3.5598
   10.770    3.3175
   10.785    3.5914
   10.800    3.8336
   10.815    3.8125
   10.830    3.9073
   10.845    3.4334
   10.860    3.7283
   10.875    3.5914
   10.890    3.3491
   10.905    3.6862
   10.920    3.7072
   10.935    3.6124
   10.950    3.7283
   10.965    3.9810
   10.980    3.8863
   10.995    3.9600
   11.010    3.8968
   11.025    3.6230
   11.040    3.7704
   11.055    3.9810
   11.070    4.5076
   11.085    3.9810
   11.100    3.8020
   11.115    3.9073
   11.130    3.9284
   11.145    3.8652
   11.160    3.7915
   11.175    3.7809
   11.190    3.6440
   11.205    3.8652
   11.220    3.8231
   11.235    3.8547
   11.250    3.5176
   11.265    3.4544
   11.280    3.4229
   11.295    3.7599
   11.310    3.6019
   11.325    3.6862
   11.340    3.6124
   11.355    3.8968
   11.370    3.4334
   11.385    3.8020
   11.400    3.5282
   11.415    3.6124
   11.430    3.4755
   11.445    3.4650
   11.460    3.5282
   11.475    3.6440
   11.490    3.7388
   11.505    3.3913
   11.520    3.6756
   11.535    3.6651
   11.550    3.5071
   11.565    3.4966
   11.580    3.6019
   11.595    3.6651
   11.610    3.7283
   11.625    3.7388
   11.640    3.5387
   11.655    3.5387
   11.670    3.7177
   11.685    3.5492
   11.700    3.5387
   11.715    4.1706
   11.730    4.1811
   11.745    3.9916
   11.760    3.8863
   11.775    3.8020
   11.790    3.9284
   11.805    3.8125
   11.820    3.7388
   11.835    3.9179
   11.850    3.6440
   11.865    3.8441
   11.880    3.5808
   11.895    3.6124
   11.910    3.7599
   11.925    3.5282
   11.940    3.6124
   11.955    3.3386
   11.970    3.2965
   11.985    3.4229
   12.000    3.7072
   12.015    3.7704
   12.030    3.4544
   12.045    3.5492
   12.060    3.6862
   12.075    3.4755
   12.090    3.5492
   12.105    3.5071
   12.120    3.5492
   12.135    3.5914
   12.150    3.6546
   12.165    3.4123
   12.180    3.6019
   12.195    4.0548
   12.210    3.4966
   12.225    3.4123
   12.240    3.6230
   12.255    3.6335
   12.270    3.5598
   12.285    3.5914
   12.300    3.4650
   12.315    3.4334
   12.330    3.4439
   12.345    3.4018
   12.360    3.5387
   12.375    3.2859
   12.390    3.4755
   12.405    3.4018
   12.420    3.6651
   12.435    3.3281
   12.450    3.6019
   12.465    3.4966
   12.480    3.3070
   12.495    3.3913
   12.510    3.3597
   12.525    3.5176
   12.540    3.2965
   12.555    3.3070
   12.570    3.2122
   12.585    3.5598
   12.600    3.4966
   12.615    3.2754
   12.630    3.5387
   12.645    3.4544
   12.660    3.0964
   12.675    3.5176
   12.690    3.0964
   12.705    3.3597
   12.720    3.2859
   12.735    3.4334
   12.750    3.2227
   12.765    3.3597
   12.780    3.4439
   12.795    3.5387
   12.810    3.5492
   12.825    3.7177
   12.840    3.3702
   12.855    3.4334
   12.870    3.4439
   12.885    3.2754
   12.900    3.4860
   12.915    3.2649
   12.930    3.3070
   12.945    3.5282
   12.960    3.4123
   12.975    3.5176
   12.990    3.5282
   13.005    3.5282
   13.020    3.5703
   13.035    3.6756
   13.050    3.5703
   13.065    3.3807
   13.080    3.1806
   13.095    3.1806
   13.110    3.3491
   13.125    3.5914
   13.140    3.4966
   13.155    3.4018
   13.170    3.0332
   13.185    3.2965
   13.200    3.1806
   13.215    3.4966
   13.230    3.5387
   13.245    3.3807
   13.260    2.7909
   13.275    3.1596
   13.290    3.1806
   13.305    3.3807
   13.320    3.4755
   13.335    3.3702
   13.350    3.3491
   13.365    3.2859
   13.380    3.1069
   13.395    3.0753
   13.410    3.2859
   13.425    3.3913
   13.440    3.4123
   13.455    3.2438
   13.470    3.1174
   13.485    3.3386
   13.500    3.3281
   13.515    3.3807
   13.530    3.3702
   13.545    3.4860
   13.560    3.4123
   13.575    3.4966
   13.590    3.5176
   13.605    3.6335
   13.620    3.5071
   13.635    3.6651
   13.650    3.2754
   13.665    3.5914
   13.680    3.4123
   13.695    3.3807
   13.710    3.3386
   13.725    3.4229
   13.740    3.5703
   13.755    3.3491
   13.770    3.3491
   13.785    3.6862
   13.800    3.4123
   13.815    3.3807
   13.830    3.3807
   13.845    3.5071
   13.860    3.3702
   13.875    3.1806
   13.890    3.3281
   13.905    3.6967
   13.920    3.3913
   13.935    3.5282
   13.950    3.3807
   13.965    3.6335
   13.980    3.4123
   13.995    3.3913
   14.010    3.4966
   14.025    3.6756
   14.040    3.3913
   14.055    3.9600
   14.070    3.7177
   14.085    3.5808
   14.100    3.8441
   14.115    3.8652
   14.130    3.8441
   14.145    3.5282
   14.160    3.7283
   14.175    3.8757
   14.190    3.6651
   14.205    3.5492
   14.220    3.6862
   14.235    3.4755
   14.250    3.6967
   14.265    3.6440
   14.280    3.6756
   14.295    3.4755
   14.310    3.6019
   14.325    3.8863
   14.340    3.6756
   14.355    3.7388
   14.370    3.8441
   14.385    3.6546
   14.400    3.8757
   14.415    3.5598
   14.430    3.8757
   14.445    3.6124
   14.460    3.8020
   14.475    3.6756
   14.490    3.8968
   14.505    3.8336
   14.520    3.8125
   14.535    3.8968
   14.550    3.6862
   14.565    3.8231
   14.580    3.7915
   14.595    4.0548
   14.610    3.7704
   14.625    3.3702
   14.640    3.3913
   14.655    3.9179
   14.670    3.7388
   14.685    3.6124
   14.700    3.6440
   14.715    3.6651
   14.730    3.5387
   14.745    3.5071
   14.760    3.4439
   14.775    3.5598
   14.790    3.6019
   14.805    3.6124
   14.820    3.0542
   14.835    3.2543
   14.850    3.4544
   14.865    3.3491
   14.880    3.4860
   14.895    3.4334
   14.910    3.6230
   14.925    3.6862
   14.940    3.4860
   14.955    3.5282
   14.970    3.4439
   14.985    3.3386
   15.000    3.5176
   15.015    3.3175
   15.030    3.2227
   15.045    3.3175
   15.060    3.5914
   15.075    3.4123
   15.090    3.2333
   15.105    3.5176
   15.120    3.4860
   15.135    3.6019
   15.150    3.3281
   15.165    3.5914
   15.180    3.3597
   15.195    3.3070
   15.210    3.3702
   15.225    3.2122
   15.240    3.3070
   15.255    3.2543
   15.270    3.1280
   15.285    3.4229
   15.300    3.3913
   15.315    3.3386
   15.330    3.0437
   15.345    3.1701
   15.360    3.4018
   15.375    3.4650
   15.390    3.2543
   15.405    3.2017
   15.420    3.5282
   15.435    3.3491
   15.450    3.1490
   15.465    3.1912
   15.480    3.5598
   15.495    3.2333
   15.510    3.3070
   15.525    3.4334
   15.540    3.4229
   15.555    3.3070
   15.570    3.2227
   15.585    3.2965
   15.600    3.2017
   15.615    3.2859
   15.630    3.4755
   15.645    3.1912
   15.660    3.1490
   15.675    3.3070
   15.690    3.1912
   15.705    3.2122
   15.720    3.1596
   15.735    3.2017
   15.750    3.3070
   15.765    3.4123
   15.780    3.3597
   15.795    3.2754
   15.810    3.1912
   15.825    3.2859
   15.840    3.4755
   15.855    3.4966
   15.870    3.2333
   15.885    3.0964
   15.900    3.2227
   15.915    3.2227
   15.930    3.4018
   15.945    3.5282
   15.960    2.9910
   15.975    3.2438
   15.990    3.4755
   16.005    3.3281
   16.020    3.3702
   16.035    3.6230
   16.050    3.3807
   16.065    3.5808
   16.080    3.4229
   16.095    3.4439
   16.110    3.5808
   16.125    3.2333
   16.140    3.2754
   16.155    3.0648
   16.170    3.2754
   16.185    3.1806
   16.200    3.2859
   16.215    3.2017
   16.230    3.4860
   16.245    3.4018
   16.260    3.1490
   16.275    3.3386
   16.290    3.0226
   16.305    3.1490
   16.320    3.4123
   16.335    2.9910
   16.350    3.1490
   16.365    3.2438
   16.380    3.2333
   16.395    3.4439
   16.410    3.2754
   16.425    3.3070
   16.440    2.9279
   16.455    3.0858
   16.470    3.3913
   16.485    3.3281
   16.500    3.1596
   16.515    3.2017
   16.530    3.0858
   16.545    3.3175
   16.560    3.5387
   16.575    3.0437
   16.590    3.1385
   16.605    3.3491
   16.620    3.4860
   16.635    3.4544
   16.650    3.3175
   16.665    3.6862
   16.680    3.7177
   16.695    3.4229
   16.710    3.1701
   16.725    3.0648
   16.740    2.9805
   16.755    3.0542
   16.770    3.4018
   16.785    3.5492
   16.800    3.4334
   16.815    3.0437
   16.830    3.2543
   16.845    3.3175
   16.860    3.3175
   16.875    3.2859
   16.890    3.1490
   16.905    2.9068
   16.920    3.5598
   16.935    3.5176
   16.950    3.4229
   16.965    3.1385
   16.980    3.1174
   16.995    3.2438
   17.010    3.6651
   17.025    3.1490
   17.040    3.0437
   17.055    3.2017
   17.070    3.2543
   17.085    3.4966
   17.100    3.3597
   17.115    3.5387
   17.130    3.5914
   17.145    3.2543
   17.160    3.6335
   17.175    3.5282
   17.190    3.3702
   17.205    3.5598
   17.220    3.3175
   17.235    3.3070
   17.250    2.9279
   17.265    3.0542
   17.280    3.0437
   17.295    3.4860
   17.310    3.3175
   17.325    3.2333
   17.340    3.0332
   17.355    3.0858
   17.370    3.3175
   17.385    3.4544
   17.400    3.4334
   17.415    3.0964
   17.430    3.1280
   17.445    3.3702
   17.460    3.3807
   17.475    3.3807
   17.490    3.0858
   17.505    3.2438
   17.520    3.0648
   17.535    3.4334
   17.550    3.2438
   17.565    3.1701
   17.580    3.3175
   17.595    3.1174
   17.610    3.0858
   17.625    3.0753
   17.640    3.3702
   17.655    3.3807
   17.670    3.1174
   17.685    3.3913
   17.700    3.2227
   17.715    3.0753
   17.730    3.1385
   17.745    3.1912
   17.760    3.3175
   17.775    3.2122
   17.790    3.2227
   17.805    3.0121
   17.820    3.0858
   17.835    3.4229
   17.850    3.0858
   17.865    2.9700
   17.880    3.0016
   17.895    3.4650
   17.910    3.4334
   17.925    3.3386
   17.940    3.1490
   17.955    3.1596
   17.970    2.9595
   17.985    3.1596
   18.000    3.2122
   18.015    3.0332
   18.030    3.2649
   18.045    3.2754
   18.060    3.1596
   18.075    2.9173
   18.090    3.1806
   18.105    3.1490
   18.120    3.2333
   18.135    3.2333
   18.150    3.1280
   18.165    3.1912
   18.180    3.2227
   18.195    3.1806
   18.210    3.1280
   18.225    2.9384
   18.240    3.0753
   18.255    3.2438
   18.270    3.0332
   18.285    3.2965
   18.300    2.9489
   18.315    3.1174
   18.330    3.0226
   18.345    2.9279
   18.360    3.2859
   18.375    3.3807
   18.390    3.1701
   18.405    2.7699
   18.420    3.3702
   18.435    3.4860
   18.450    3.3175
   18.465    3.0753
   18.480    3.0753
   18.495    3.2859
   18.510    2.9279
   18.525    3.0437
   18.540    3.2543
   18.555    2.9384
   18.570    3.2017
   18.585    3.2754
   18.600    3.1596
   18.615    2.9279
   18.630    3.2438
   18.645    3.0121
   18.660    3.2227
   18.675    3.0648
   18.690    3.2017
   18.705    3.1174
   18.720    2.8752
   18.735    3.1912
   18.750    3.0332
   18.765    3.1806
   18.780    3.2649
   18.795    3.2122
   18.810    3.3807
   18.825    3.2859
   18.840    3.1806
   18.855    3.4966
   18.870    3.1490
   18.885    3.2649
   18.900    3.1806
   18.915    3.1912
   18.930    3.3281
   18.945    3.5282
   18.960    3.4229
   18.975    3.7283
   18.990    3.9810
   19.005    4.6445
   19.020    5.1922
   19.035    5.2975
   19.050    5.6451
   19.065    4.9394
   19.080    4.0337
   19.095    3.5071
   19.110    2.9068
   19.125    2.8331
   19.140    3.0437
   19.155    3.2227
   19.170    3.2649
   19.185    3.0753
   19.200    3.2227
   19.215    3.0226
   19.230    3.1069
   19.245    3.4439
   19.260    3.2965
   19.275    3.2965
   19.290    3.3807
   19.305    3.2122
   19.320    3.1490
   19.335    3.0542
   19.350    3.0964
   19.365    3.3070
   19.380    3.1912
   19.395    3.3175
   19.410    3.0964
   19.425    2.8752
   19.440    2.9279
   19.455    3.2017
   19.470    3.3913
   19.485    3.1385
   19.500    3.2227
   19.515    2.8857
   19.530    3.0964
   19.545    3.5071
   19.560    2.8541
   19.575    2.8436
   19.590    2.8015
   19.605    3.0121
   19.620    3.1069
   19.635    3.2438
   19.650    3.0858
   19.665    3.2333
   19.680    3.3070
   19.695    3.0437
   19.710    2.9384
   19.725    2.8120
   19.740    3.2017
   19.755    2.9595
   19.770    2.6435
   19.785    3.0226
   19.800    3.1280
   19.815    3.2333
   19.830    2.9595
   19.845    3.2333
   19.860    3.1174
   19.875    2.7804
   19.890    3.0542
   19.905    2.8857
   19.920    2.8436
   19.935    2.7593
   19.950    2.8752
   19.965    2.8752
   19.980    2.7593
   19.995    2.8541
   20.010    3.1912
   20.025    2.9068
   20.040    2.9910
   20.055    2.8436
   20.070    2.8436
   20.085    2.7804
   20.100    2.9805
   20.115    2.9279
   20.130    3.0964
   20.145    2.9173
   20.160    3.0016
   20.175    3.1701
   20.190    2.7593
   20.205    2.8857
   20.220    3.1912
   20.235    3.3175
   20.250    3.0753
   20.265    3.0753
   20.280    3.2649
   20.295    2.9489
   20.310    2.6646
   20.325    2.8963
   20.340    3.0332
   20.355    2.7804
   20.370    2.9805
   20.385    3.0648
   20.400    2.9384
   20.415    3.1701
   20.430    3.2649
   20.445    3.0016
   20.460    3.2017
   20.475    3.1385
   20.490    3.0332
   20.505    3.0226
   20.520    3.0542
   20.535    2.9805
   20.550    2.7909
   20.565    2.9595
   20.580    2.9173
   20.595    2.9805
   20.610    2.8436
   20.625    3.0121
   20.640    3.1806
   20.655    3.2649
   20.670    3.0648
   20.685    3.1385
   20.700    2.9279
   20.715    2.8120
   20.730    3.1069
   20.745    2.8015
   20.760    2.9805
   20.775    2.6540
   20.790    2.8331
   20.805    2.9068
   20.820    2.6330
   20.835    2.7699
   20.850    2.7383
   20.865    2.7909
   20.880    3.0016
   20.895    2.8015
   20.910    2.6330
   20.925    2.9700
   20.940    2.8331
   20.955    2.8541
   20.970    2.7593
   20.985    2.8752
   21.000    2.9595
   21.015    2.9595
   21.030    2.9173
   21.045    3.1174
   21.060    3.0332
   21.075    2.7278
   21.090    2.6435
   21.105    2.8331
   21.120    2.9700
   21.135    2.8225
   21.150    2.9805
   21.165    2.9068
   21.180    2.8752
   21.195    2.6751
   21.210    2.6646
   21.225    2.7383
   21.240    2.7804
   21.255    2.4750
   21.270    2.8120
   21.285    2.6646
   21.300    2.6224
   21.315    2.8331
   21.330    2.8647
   21.345    2.7699
   21.360    2.4855
   21.375    2.6646
   21.390    2.9279
   21.405    2.9173
   21.420    2.7909
   21.435    2.7593
   21.450    2.8647
   21.465    2.9489
   21.480    2.8647
   21.495    2.8963
   21.510    2.8225
   21.525    2.8541
   21.540    2.7593
   21.555    2.8752
   21.570    2.8120
   21.585    3.0332
   21.600    2.7383
   21.615    2.9805
   21.630    2.8015
   21.645    2.6751
   21.660    2.7593
   21.675    2.6751
   21.690    2.6119
   21.705    2.8225
   21.720    2.8647
   21.735    2.7909
   21.750    2.7488
   21.765    2.8541
   21.780    2.8541
   21.795    2.5698
   21.810    2.8963
   21.825    3.0121
   21.840    2.9279
   21.855    2.7067
   21.870    2.6330
   21.885    2.6646
   21.900    2.8752
   21.915    3.0016
   21.930    2.7488
   21.945    2.8225
   21.960    2.9384
   21.975    2.7488
   21.990    2.7593
   22.005    2.8436
   22.020    2.9068
   22.035    2.9910
   22.050    2.8015
   22.065    2.6224
   22.080    2.6119
   22.095    2.6435
   22.110    2.7804
   22.125    2.7278
   22.140    2.9595
   22.155    2.8647
   22.170    2.8015
   22.185    2.5803
   22.200    2.7909
   22.215    2.7909
   22.230    2.7593
   22.245    2.6435
   22.260    2.7278
   22.275    2.6540
   22.290    2.9173
   22.305    3.0332
   22.320    2.9068
   22.335    2.7699
   22.350    2.6962
   22.365    2.7699
   22.380    2.7593
   22.395    2.4434
   22.410    2.4961
   22.425    2.6119
   22.440    2.6119
   22.455    2.6751
   22.470    2.5066
   22.485    2.5803
   22.500    2.7067
   22.515    2.7278
   22.530    2.7383
   22.545    2.5382
   22.560    2.3381
   22.575    2.8120
   22.590    2.8331
   22.605    2.5803
   22.620    2.5592
   22.635    2.6646
   22.650    2.6540
   22.665    2.5382
   22.680    2.6962
   22.695    2.8120
   22.710    2.8120
   22.725    2.7278
   22.740    2.4855
   22.755    2.4329
   22.770    2.5382
   22.785    2.8015
   22.800    2.4645
   22.815    2.5382
   22.830    2.4961
   22.845    2.5908
   22.860    2.5698
   22.875    2.8331
   22.890    2.6540
   22.905    2.8436
   22.920    2.5066
   22.935    2.4013
   22.950    2.7699
   22.965    2.6435
   22.980    2.6540
   22.995    2.7804
   23.010    2.7383
   23.025    2.7172
   23.040    2.6119
   23.055    2.5276
   23.070    2.8752
   23.085    2.8120
   23.100    3.0648
   23.115    3.2543
   23.130    3.2965
   23.145    3.4650
   23.160    3.6124
   23.175    3.1069
   23.190    3.0121
   23.205    2.8647
   23.220    2.5487
   23.235    2.7278
   23.250    2.6119
   23.265    2.7067
   23.280    2.4855
   23.295    2.6330
   23.310    2.6224
   23.325    2.7172
   23.340    2.5803
   23.355    2.4223
   23.370    2.6856
   23.385    2.4434
   23.400    2.4961
   23.415    2.7699
   23.430    2.5276
   23.445    2.5803
   23.460    2.4434
   23.475    2.4961
   23.490    2.5803
   23.505    2.4013
   23.520    2.3381
   23.535    2.5592
   23.550    2.5487
   23.565    2.5908
   23.580    2.4329
   23.595    2.5908
   23.610    2.4223
   23.625    2.5066
   23.640    2.7172
   23.655    2.6224
   23.670    2.4855
   23.685    2.5803
   23.700    2.3486
   23.715    2.3697
   23.730    2.5908
   23.745    2.6014
   23.760    2.5803
   23.775    2.3381
   23.790    2.3170
   23.805    2.5592
   23.820    2.6646
   23.835    2.7067
   23.850    2.4223
   23.865    2.4645
   23.880    2.4855
   23.895    2.2538
   23.910    2.0958
   23.925    2.3275
   23.940    2.4118
   23.955    2.3170
   23.970    2.5066
   23.985    2.3381
   24.000    2.3802
   24.015    2.2854
   24.030    2.7172
   24.045    2.6330
   24.060    2.2222
   24.075    2.6330
   24.090    2.4434
   24.105    2.2854
   24.120    2.6330
   24.135    2.6330
   24.150    2.4329
   24.165    2.4750
   24.180    2.4013
   24.195    2.2538
   24.210    2.3065
   24.225    2.3065
   24.240    2.5171
   24.255    2.5487
   24.270    2.3697
   24.285    2.4223
   24.300    2.5276
   24.315    2.4434
   24.330    2.1380
   24.345    2.3170
   24.360    2.4329
   24.375    2.4539
   24.390    2.2749
   24.405    2.3170
   24.420    2.4855
   24.435    2.6119
   24.450    2.4434
   24.465    2.4223
   24.480    2.3486
   24.495    2.1064
   24.510    2.3486
   24.525    2.5276
   24.540    2.5908
   24.555    2.1801
   24.570    2.3170
   24.585    2.3907
   24.600    2.3486
   24.615    2.4434
   24.630    2.4539
   24.645    2.1906
   24.660    2.2117
   24.675    2.4013
   24.690    2.3275
   24.705    2.3170
   24.720    2.2749
   24.735    2.2749
   24.750    2.3802
   24.765    2.3907
   24.780    2.3697
   24.795    2.3802
   24.810    2.3802
   24.825    2.2117
   24.840    2.1590
   24.855    2.4329
   24.870    2.3591
   24.885    2.2643
   24.900    2.3486
   24.915    2.2749
   24.930    2.4539
   24.945    2.3697
   24.960    2.2328
   24.975    2.2222
   24.990    2.3591
   25.005    2.3486
   25.020    2.4645
   25.035    2.4750
   25.050    2.4645
   25.065    2.3697
   25.080    2.4329
   25.095    2.3486
   25.110    2.2959
   25.125    2.3591
   25.140    2.5908
   25.155    2.4013
   25.170    2.4855
   25.185    2.3802
   25.200    2.6856
   25.215    2.6330
   25.230    2.2959
   25.245    2.2433
   25.260    2.3591
   25.275    2.5276
   25.290    2.4750
   25.305    2.4118
   25.320    2.1906
   25.335    2.3486
   25.350    2.2433
   25.365    2.2012
   25.380    2.2643
   25.395    2.2854
   25.410    2.2538
   25.425    2.3486
   25.440    2.2749
   25.455    2.2222
   25.470    2.2959
   25.485    2.3697
   25.500    2.3381
   25.515    2.2433
   25.530    2.0221
   25.545    2.4750
   25.560    2.3275
   25.575    2.2538
   25.590    2.4013
   25.605    2.4118
   25.620    2.2854
   25.635    2.4434
   25.650    2.3697
   25.665    2.2854
   25.680    2.2854
   25.695    2.3591
   25.710    2.2959
   25.725    2.2328
   25.740    2.1696
   25.755    2.3170
   25.770    2.3591
   25.785    2.0958
   25.800    2.4223
   25.815    2.4855
   25.830    2.2854
   25.845    2.3486
   25.860    2.5487
   25.875    2.6119
   25.890    2.5276
   25.905    2.3907
   25.920    2.3381
   25.935    2.4855
   25.950    2.3065
   25.965    2.2959
   25.980    2.2854
   25.995    2.2959
   26.010    2.3591
   26.025    2.2222
   26.040    2.1169
   26.055    2.0537
   26.070    2.3381
   26.085    2.1696
   26.100    2.3065
   26.115    2.4434
   26.130    2.1169
   26.145    2.2538
   26.160    2.0958
   26.175    2.2117
   26.190    2.1590
   26.205    2.3170
   26.220    2.1906
   26.235    2.1064
   26.250    2.2012
   26.265    2.1064
   26.280    2.1274
   26.295    2.2328
   26.310    2.0958
   26.325    2.0432
   26.340    2.1380
   26.355    2.2749
   26.370    2.3275
   26.385    2.3381
   26.400    2.3275
   26.415    2.2117
   26.430    2.2222
   26.445    2.2959
   26.460    2.3907
   26.475    2.1274
   26.490    2.1064
   26.505    2.1906
   26.520    2.2222
   26.535    2.1801
   26.550    2.0642
   26.565    2.0642
   26.580    2.4750
   26.595    2.3802
   26.610    2.2643
   26.625    2.1590
   26.640    2.4750
   26.655    2.4118
   26.670    2.3170
   26.685    2.1485
   26.700    2.0958
   26.715    2.2643
   26.730    2.4118
   26.745    1.9800
   26.760    1.9484
   26.775    2.2643
   26.790    2.1169
   26.805    2.1274
   26.820    2.0537
   26.835    1.9905
   26.850    2.0748
   26.865    2.0958
   26.880    2.2959
   26.895    2.1169
   26.910    2.0958
   26.925    1.9905
   26.940    2.1801
   26.955    2.1169
   26.970    2.0011
   26.985    2.0537
   27.000    2.0853
   27.015    2.3591
   27.030    2.3802
   27.045    2.1696
   27.060    2.0853
   27.075    2.2117
   27.090    2.1169
   27.105    2.0853
   27.120    1.7904
   27.135    1.9379
   27.150    2.1274
   27.165    2.2433
   27.180    2.0748
   27.195    2.3065
   27.210    1.9695
   27.225    2.1169
   27.240    2.0116
   27.255    1.8325
   27.270    2.0116
   27.285    2.0326
   27.300    2.2117
   27.315    2.3591
   27.330    2.1906
   27.345    2.1801
   27.360    2.3381
   27.375    2.3486
   27.390    2.0642
   27.405    2.2117
   27.420    2.0432
   27.435    2.0221
   27.450    2.0642
   27.465    2.1274
   27.480    1.8431
   27.495    1.9484
   27.510    2.1064
   27.525    1.9905
   27.540    1.8852
   27.555    2.1590
   27.570    2.2328
   27.585    2.0748
   27.600    2.0326
   27.615    1.8957
   27.630    2.1064
   27.645    2.2854
   27.660    2.2328
   27.675    2.1064
   27.690    2.0853
   27.705    2.0748
   27.720    1.9695
   27.735    1.8852
   27.750    1.9695
   27.765    1.8431
   27.780    1.9168
   27.795    2.0537
   27.810    1.8747
   27.825    1.8115
   27.840    1.7694
   27.855    1.9168
   27.870    1.8747
   27.885    1.9063
   27.900    2.0748
   27.915    1.8957
   27.930    2.0432
   27.945    2.2433
   27.960    2.2117
   27.975    2.4013
   27.990    2.5276
   28.005    3.2017
   28.020    3.2543
   28.035    3.8652
   28.050    3.6546
   28.065    3.4544
   28.080    2.6435
   28.095    2.0326
   28.110    2.0853
   28.125    2.0642
   28.140    1.8641
   28.155    1.6640
   28.170    1.8852
   28.185    1.9589
   28.200    2.1696
   28.215    2.1380
   28.230    1.8431
   28.245    2.2328
   28.260    1.8957
   28.275    2.0853
   28.290    1.9273
   28.305    2.0853
   28.320    2.1485
   28.335    2.0326
   28.350    2.1169
   28.365    1.9168
   28.380    2.0011
   28.395    2.0116
   28.410    1.8009
   28.425    1.8852
   28.440    1.9063
   28.455    2.0326
   28.470    1.9905
   28.485    1.8957
   28.500    1.8536
   28.515    1.9695
   28.530    2.1274
   28.545    2.1696
   28.560    2.0326
   28.575    1.8220
   28.590    1.9273
   28.605    2.0748
   28.620    1.8641
   28.635    1.9800
   28.650    1.8957
   28.665    1.9905
   28.680    2.0326
   28.695    1.9905
   28.710    1.8747
   28.725    1.8852
   28.740    2.0326
   28.755    1.9589
   28.770    1.9063
   28.785    1.7799
   28.800    1.8536
   28.815    1.9168
   28.830    1.9905
   28.845    2.0748
   28.860    2.0642
   28.875    1.8852
   28.890    2.1696
   28.905    2.2012
   28.920    1.9484
   28.935    2.1169
   28.950    2.4855
   28.965    2.8647
   28.980    3.0648
   28.995    3.2754
   29.010    3.3807
   29.025    3.1806
   29.040    2.7699
   29.055    2.2643
   29.070    1.8957
   29.085    1.9905
   29.100    1.7799
   29.115    2.0748
   29.130    1.9379
   29.145    1.9379
   29.160    1.9379
   29.175    2.0748
   29.190    1.9168
   29.205    1.8747
   29.220    1.9695
   29.235    1.9168
   29.250    1.9379
   29.265    1.9168
   29.280    1.7062
   29.295    1.7272
   29.310    1.9589
   29.325    1.7483
   29.340    1.8852
   29.355    1.8957
   29.370    1.7062
   29.385    1.8536
   29.400    1.8115
   29.415    1.6851
   29.430    1.9905
   29.445    1.8431
   29.460    1.9695
   29.475    2.0011
   29.490    1.7378
   29.505    1.5271
   29.520    1.5798
   29.535    1.7483
   29.550    1.9484
   29.565    1.9695
   29.580    1.8431
   29.595    1.6746
   29.610    1.8747
   29.625    1.7483
   29.640    1.6219
   29.655    1.8220
   29.670    1.8431
   29.685    1.7062
   29.700    1.7483
   29.715    1.6324
   29.730    1.7588
   29.745    1.7483
   29.760    1.6851
   29.775    1.6430
   29.790    1.5903
   29.805    1.6430
   29.820    1.6430
   29.835    1.5692
   29.850    1.6324
   29.865    1.6535
   29.880    1.7588
   29.895    1.8115
   29.910    1.9484
   29.925    1.8536
   29.940    1.6219
   29.955    1.6219
   29.970    1.6430
   29.985    1.7378
   30.000    1.8536
   30.015    1.6956
   30.030    1.5903
   30.045    1.8115
   30.060    1.7799
   30.075    1.7694
   30.090    1.6430
   30.105    1.6008
   30.120    1.8220
   30.135    1.6430
   30.150    1.7062
   30.165    1.5692
   30.180    1.7799
   30.195    1.8325
   30.210    1.7378
   30.225    1.6535
   30.240    1.6535
   30.255    1.4745
   30.270    1.5061
   30.285    1.5482
   30.300    1.7167
   30.315    1.8747
   30.330    1.5271
   30.345    1.7272
   30.360    1.5587
   30.375    1.6324
   30.390    1.7167
   30.405    1.5903
   30.420    1.4534
   30.435    1.6324
   30.450    1.7588
   30.465    1.7272
   30.480    1.6746
   30.495    1.6956
   30.510    1.6851
   30.525    1.5587
   30.540    1.5482
   30.555    1.6746
   30.570    1.6851
   30.585    1.6746
   30.600    1.6640
   30.615    1.6430
   30.630    1.7167
   30.645    1.5482
   30.660    1.6430
   30.675    1.5166
   30.690    1.6008
   30.705    1.5798
   30.720    1.7588
   30.735    1.6114
   30.750    1.6746
   30.765    1.6956
   30.780    1.7694
   30.795    1.5587
   30.810    1.7483
   30.825    1.6324
   30.840    1.5903
   30.855    1.6640
   30.870    1.5798
   30.885    1.5692
   30.900    1.6430
   30.915    1.7694
   30.930    1.7167
   30.945    1.6956
   30.960    1.5482
   30.975    1.6114
   30.990    1.6114
   31.005    1.6324
   31.020    1.7799
   31.035    1.7167
   31.050    1.4955
   31.065    1.4323
   31.080    1.5798
   31.095    1.4429
   31.110    1.4639
   31.125    1.5377
   31.140    1.4850
   31.155    1.5587
   31.170    1.6324
   31.185    1.3902
   31.200    1.3375
   31.215    1.3586
   31.230    1.5166
   31.245    1.4218
   31.260    1.5587
   31.275    1.5798
   31.290    1.6851
   31.305    1.6640
   31.320    1.5377
   31.335    1.4218
   31.350    1.6324
   31.365    1.5377
   31.380    1.5166
   31.395    1.6219
   31.410    1.7272
   31.425    1.7378
   31.440    1.5692
   31.455    1.5377
   31.470    1.5271
   31.485    1.5166
   31.500    1.4534
   31.515    1.3375
   31.530    1.4955
   31.545    1.3797
   31.560    1.4955
   31.575    1.4534
   31.590    1.2849
   31.605    1.6535
   31.620    1.7272
   31.635    1.5903
   31.650    1.5061
   31.665    1.7378
   31.680    1.5903
   31.695    1.4639
   31.710    1.6008
   31.725    1.6746
   31.740    1.5166
   31.755    1.6956
   31.770    1.5903
   31.785    1.6008
   31.800    1.4850
   31.815    1.4007
   31.830    1.6114
   31.845    1.5377
   31.860    1.4955
   31.875    1.3270
   31.890    1.3060
   31.905    1.4323
   31.920    1.4639
   31.935    1.4534
   31.950    1.6324
   31.965    1.4534
   31.980    1.3797
   31.995    1.5798
   32.010    1.6535
   32.025    1.7588
   32.040    1.8431
   32.055    1.8641
   32.070    2.3802
   32.085    3.0964
   32.100    3.6862
   32.115    4.5919
   32.130    4.9394
   32.145    4.8763
   32.160    4.3813
   32.175    3.2859
   32.190    2.2959
   32.205    1.8747
   32.220    1.7904
   32.235    1.7483
   32.250    1.6535
   32.265    1.6535
   32.280    1.5166
   32.295    1.5061
   32.310    1.2533
   32.325    1.4113
   32.340    1.3902
   32.355    1.5377
   32.370    1.4850
   32.385    1.2849
   32.400    1.3797
   32.415    1.4745
   32.430    1.3586
   32.445    1.3481
   32.460    1.4323
   32.475    1.2533
   32.490    1.6219
   32.505    1.5061
   32.520    1.2112
   32.535    1.2744
   32.550    1.3270
   32.565    1.5587
   32.580    1.3797
   32.595    1.3691
   32.610    1.5166
   32.625    1.4218
   32.640    1.4113
   32.655    1.4113
   32.670    1.5166
   32.685    1.4639
   32.700    1.3165
   32.715    1.3165
   32.730    1.3165
   32.745    1.4534
   32.760    1.3481
   32.775    1.4113
   32.790    1.3586
   32.805    1.3375
   32.820    1.2112
   32.835    1.4007
   32.850    1.3060
   32.865    1.3060
   32.880    1.3586
   32.895    1.3270
   32.910    1.4113
   32.925    1.3797
   32.940    1.5061
   32.955    1.3270
   32.970    1.2533
   32.985    1.4850
   33.000    1.4007
   33.015    1.4955
   33.030    1.5061
   33.045    1.6430
   33.060    1.6851
   33.075    1.3165
   33.090    1.4534
   33.105    1.4534
   33.120    1.4429
   33.135    1.3060
   33.150    1.3691
   33.165    1.3481
   33.180    1.2744
   33.195    1.4745
   33.210    1.4007
   33.225    1.2638
   33.240    1.3586
   33.255    1.3902
   33.270    1.4429
   33.285    1.4007
   33.300    1.4323
   33.315    1.5271
   33.330    1.3270
   33.345    1.3270
   33.360    1.4007
   33.375    1.1901
   33.390    1.3165
   33.405    1.3270
   33.420    1.2428
   33.435    1.4323
   33.450    1.3060
   33.465    1.3902
   33.480    1.3270
   33.495    1.4534
   33.510    1.2849
   33.525    1.2744
   33.540    1.3165
   33.555    1.3481
   33.570    1.3586
   33.585    1.3375
   33.600    1.3797
   33.615    1.3691
   33.630    1.3797
   33.645    1.4429
   33.660    1.3375
   33.675    1.4429
   33.690    1.3797
   33.705    1.2954
   33.720    1.6430
   33.735    1.4218
   33.750    1.3691
   33.765    1.3691
   33.780    1.5482
   33.795    1.6008
   33.810    2.2012
   33.825    2.2854
   33.840    2.4645
   33.855    2.7804
   33.870    2.5698
   33.885    2.2538
   33.900    1.9800
   33.915    1.5271
   33.930    1.6640
   33.945    1.5482
   33.960    1.4113
   33.975    1.4429
   33.990    1.1901
   34.005    1.3902
   34.020    1.4955
   34.035    1.3270
   34.050    1.2954
   34.065    1.4745
   34.080    1.2322
   34.095    1.1585
   34.110    1.2638
   34.125    1.1796
   34.140    1.3270
   34.155    1.1690
   34.170    1.1796
   34.185    1.3691
   34.200    1.5903
   34.215    1.4323
   34.230    1.3060
   34.245    1.3586
   34.260    1.5587
   34.275    1.4534
   34.290    1.2954
   34.305    1.3060
   34.320    1.3060
   34.335    1.2849
   34.350    1.3375
   34.365    1.3375
   34.380    1.2638
   34.395    1.3270
   34.410    1.3481
   34.425    1.3270
   34.440    1.2217
   34.455    1.4007
   34.470    1.2112
   34.485    1.3586
   34.500    1.1901
   34.515    1.2112
   34.530    1.2533
   34.545    1.2849
   34.560    1.2638
   34.575    1.3586
   34.590    1.3165
   34.605    1.2428
   34.620    1.1901
   34.635    1.2533
   34.650    1.2006
   34.665    1.1796
   34.680    1.1690
   34.695    1.3586
   34.710    1.2744
   34.725    1.4007
   34.740    1.2638
   34.755    1.2322
   34.770    1.2112
   34.785    1.2744
   34.800    1.2638
   34.815    1.0953
   34.830    1.1796
   34.845    1.3691
   34.860    1.3691
   34.875    1.2533
   34.890    1.3165
   34.905    1.1585
   34.920    1.2744
   34.935    1.2744
   34.950    1.2112
   34.965    1.2849
   34.980    1.2849
   34.995    1.1796
   35.010    1.1480
   35.025    1.0321
   35.040    1.1164
   35.055    1.3060
   35.070    1.4955
   35.085    1.5166
   35.100    1.2954
   35.115    1.2638
   35.130    1.2954
   35.145    1.2322
   35.160    1.3375
   35.175    1.1901
   35.190    1.0427
   35.205    1.2428
   35.220    1.2744
   35.235    1.1690
   35.250    1.3797
   35.265    1.3797
   35.280    1.2217
   35.295    1.1901
   35.310    1.2533
   35.325    1.3797
   35.340    1.0637
   35.355    1.2112
   35.370    1.3375
   35.385    1.1690
   35.400    1.2533
   35.415    1.4113
   35.430    1.2954
   35.445    1.1796
   35.460    1.2638
   35.475    1.3375
   35.490    1.2217
   35.505    1.2744
   35.520    1.2638
   35.535    1.2638
   35.550    1.2322
   35.565    1.3797
   35.580    1.2217
   35.595    1.3270
   35.610    1.2006
   35.625    1.1480
   35.640    1.1690
   35.655    1.3902
   35.670    1.3797
   35.685    1.1058
   35.700    1.2954
   35.715    1.2322
   35.730    1.3691
   35.745    1.2954
   35.760    1.3902
   35.775    1.2849
   35.790    1.3165
   35.805    1.3270
   35.820    1.3375
   35.835    1.1480
   35.850    1.0216
   35.865    1.3060
   35.880    1.2322
   35.895    1.3586
   35.910    1.1796
   35.925    1.2322
   35.940    1.1901
   35.955    1.1690
   35.970    1.1480
   35.985    1.1480
   36.000    1.1480
   36.015    1.3165
   36.030    1.4955
   36.045    1.2428
   36.060    1.2217
   36.075    1.2954
   36.090    1.2217
   36.105    1.1585
   36.120    1.2217
   36.135    1.4113
   36.150    1.2954
   36.165    1.2112
   36.180    1.2428
   36.195    1.3060
   36.210    1.3060
   36.225    1.1690
   36.240    1.2322
   36.255    1.1796
   36.270    1.2849
   36.285    1.5271
   36.300    1.3691
   36.315    1.4323
   36.330    1.4218
   36.345    1.3691
   36.360    1.3375
   36.375    1.3481
   36.390    1.3060
   36.405    1.0953
   36.420    1.2954
   36.435    1.1796
   36.450    1.3060
   36.465    1.3375
   36.480    1.3902
   36.495    1.1374
   36.510    1.1901
   36.525    1.2533
   36.540    1.2217
   36.555    1.3797
   36.570    1.2428
   36.585    1.2533
   36.600    1.2744
   36.615    1.3586
   36.630    1.2849
   36.645    1.1374
   36.660    1.1901
   36.675    1.1374
   36.690    1.4007
   36.705    1.4323
   36.720    1.3691
   36.735    1.2006
   36.750    1.1058
   36.765    1.1480
   36.780    1.4850
   36.795    1.3586
   36.810    1.1585
   36.825    1.2112
   36.840    1.4218
   36.855    1.3165
   36.870    1.2322
   36.885    1.3375
   36.900    1.2217
   36.915    1.1690
   36.930    1.1901
   36.945    1.1690
   36.960    1.1269
   36.975    1.2533
   36.990    1.2428
   37.005    1.2638
   37.020    1.2744
   37.035    1.1690
   37.050    1.1585
   37.065    1.3270
   37.080    1.3586
   37.095    1.1269
   37.110    1.0637
   37.125    1.3270
   37.140    1.3165
   37.155    1.2322
   37.170    1.4113
   37.185    1.1374
   37.200    1.3481
   37.215    1.2322
   37.230    1.2217
   37.245    1.2217
   37.260    1.2954
   37.275    1.2428
   37.290    1.1690
   37.305    1.3691
   37.320    1.2112
   37.335    1.1690
   37.350    1.1374
   37.365    1.1690
   37.380    1.2533
   37.395    1.1585
   37.410    1.1480
   37.425    1.1901
   37.440    1.1901
   37.455    1.0953
   37.470    1.1164
   37.485    1.1164
   37.500    1.0848
   37.515    1.1585
   37.530    1.2744
   37.545    1.2217
   37.560    1.2322
   37.575    1.1585
   37.590    1.3691
   37.605    1.2744
   37.620    1.0848
   37.635    1.1164
   37.650    1.2322
   37.665    1.2322
   37.680    1.2744
   37.695    1.3165
   37.710    1.1269
   37.725    1.2533
   37.740    1.1269
   37.755    1.1690
   37.770    1.3270
   37.785    1.1480
   37.800    1.2428
   37.815    1.0848
   37.830    1.0848
   37.845    1.1269
   37.860    1.0848
   37.875    1.0953
   37.890    1.0848
   37.905    1.2217
   37.920    1.0321
   37.935    1.0848
   37.950    1.1796
   37.965    1.1901
   37.980    1.1690
   37.995    1.1480
   38.010    1.0953
   38.025    0.9057
   38.040    1.1480
   38.055    1.1480
   38.070    1.2428
   38.085    1.2428
   38.100    1.2006
   38.115    1.1585
   38.130    1.2638
   38.145    1.1901
   38.160    1.2112
   38.175    1.2744
   38.190    1.1690
   38.205    1.2322
   38.220    1.1480
   38.235    1.0321
   38.250    1.0953
   38.265    1.1480
   38.280    1.2006
   38.295    1.1480
   38.310    1.2217
   38.325    1.4429
   38.340    1.2006
   38.355    1.3481
   38.370    1.3481
   38.385    1.2217
   38.400    1.2112
   38.415    1.2638
   38.430    1.1269
   38.445    1.3270
   38.460    1.2954
   38.475    1.1164
   38.490    1.3165
   38.505    1.1901
   38.520    1.0216
   38.535    0.9268
   38.550    1.3375
   38.565    1.4745
   38.580    1.6324
   38.595    1.8747
   38.610    2.2117
   38.625    2.3170
   38.640    2.1801
   38.655    1.9273
   38.670    1.7062
   38.685    1.3165
   38.700    1.2954
   38.715    1.2849
   38.730    0.9900
   38.745    1.0637
   38.760    1.1058
   38.775    1.1796
   38.790    1.2954
   38.805    1.2006
   38.820    1.2533
   38.835    1.2112
   38.850    1.1480
   38.865    1.0637
   38.880    1.1690
   38.895    1.0742
   38.910    0.9479
   38.925    1.0637
   38.940    1.1374
   38.955    1.3060
   38.970    1.2954
   38.985    1.2744
   39.000    1.3481
   39.015    1.2638
   39.030    1.1058
   39.045    1.1901
   39.060    1.2533
   39.075    1.2428
   39.090    1.2428
   39.105    1.1796
   39.120    1.3165
   39.135    1.1901
   39.150    1.0532
   39.165    1.1901
   39.180    1.1690
   39.195    1.1585
   39.210    1.0005
   39.225    1.0742
   39.240    1.1690
   39.255    1.1796
   39.270    1.2112
   39.285    1.1690
   39.300    1.1585
   39.315    1.3270
   39.330    1.2533
   39.345    1.1796
   39.360    1.1480
   39.375    1.2849
   39.390    1.0532
   39.405    0.9795
   39.420    1.0005
   39.435    1.0637
   39.450    1.1690
   39.465    0.9900
   39.480    1.1164
   39.495    1.1058
   39.510    1.0532
   39.525    1.1374
   39.540    1.2112
   39.555    1.2638
   39.570    1.1374
   39.585    0.9373
   39.600    1.1374
   39.615    1.1269
   39.630    1.0427
   39.645    1.0848
   39.660    1.0953
   39.675    1.0637
   39.690    1.1796
   39.705    1.2217
   39.720    1.0848
   39.735    1.0637
   39.750    1.0742
   39.765    1.0637
   39.780    1.1374
   39.795    1.1901
   39.810    1.2533
   39.825    1.2006
   39.840    1.2744
   39.855    1.2217
   39.870    1.0532
   39.885    1.0111
   39.900    0.9795
   39.915    1.0005
   39.930    1.0321
   39.945    1.0848
   39.960    1.0427
   39.975    1.1269
   39.990    1.1269
