    1.500   40.8987
    1.515   41.5306
    1.530   40.2668
    1.545   39.5998
    1.560   38.3535
    1.575   37.4583
    1.590   36.7562
    1.605   36.6333
    1.620   34.9833
    1.635   34.8253
    1.650   33.8073
    1.665   32.0520
    1.680   31.8764
    1.695   30.0685
    1.710   29.2961
    1.725   29.0679
    1.740   28.1201
    1.755   27.7339
    1.770   27.2600
    1.785   25.5398
    1.800   24.9956
    1.815   25.1360
    1.830   24.5568
    1.845   24.0126
    1.860   23.9775
    1.875   23.0999
    1.890   21.4850
    1.905   22.4329
    1.920   21.7307
    1.935   21.3095
    1.950   20.7653
    1.965   20.3440
    1.980   21.1339
    1.995   20.2738
    2.010   18.6414
    2.025   19.1153
    2.040   18.6063
    2.055   18.4834
    2.070   18.4483
    2.085   17.2020
    2.100   17.5180
    2.115   16.9387
    2.130   16.2191
    2.145   16.6052
    2.160   15.9207
    2.175   15.7978
    2.190   15.2361
    2.205   14.0951
    2.220   14.8499
    2.235   14.8324
    2.250   14.5164
    2.265   14.4462
    2.280   14.3935
    2.295   13.8845
    2.310   13.8494
    2.325   14.0074
    2.340   12.7260
    2.355   13.5510
    2.370   12.9191
    2.385   12.8313
    2.400   13.1297
    2.415   12.9542
    2.430   12.5329
    2.445   12.0414
    2.460   12.2170
    2.475   11.5675
    2.490   11.7255
    2.505   11.3393
    2.520   11.4797
    2.535   11.1462
    2.550   11.5324
    2.565   11.5675
    2.580   10.7074
    2.595   11.0936
    2.610   10.8478
    2.625   10.1106
    2.640   10.2686
    2.655    9.6015
    2.670    9.5138
    2.685    9.9877
    2.700    9.7946
    2.715   10.0755
    2.730    9.6893
    2.745    9.7069
    2.760    9.5489
    2.775    9.2154
    2.790    9.6015
    2.805    9.5664
    2.820    8.6888
    2.835    9.3382
    2.850    8.6712
    2.865    8.8643
    2.880    8.4781
    2.895    9.0398
    2.910    9.0398
    2.925    8.9696
    2.940    8.4079
    2.955    7.7760
    2.970    8.1797
    2.985    8.0218
    3.000    8.1973
    3.015    8.5484
    3.030    7.5478
    3.045    7.6356
    3.060    7.6356
    3.075    7.8111
    3.090    7.8638
    3.105    7.9340
    3.120    7.5127
    3.135    8.2324
    3.150    7.6707
    3.165    8.1622
    3.180    8.1446
    3.195    8.0042
    3.210    7.6707
    3.225    7.8287
    3.240    7.7058
    3.255    7.3372
    3.270    7.0563
    3.285    7.0212
    3.300    7.4425
    3.315    7.5829
    3.330    7.5478
    3.345    7.3547
    3.360    7.0915
    3.375    6.8984
    3.390    7.1792
    3.405    7.3021
    3.420    6.9510
    3.435    6.6526
    3.450    7.3547
    3.465    6.8808
    3.480    7.1266
    3.495    7.4601
    3.510    6.9159
    3.525    7.0037
    3.540    6.8808
    3.555    7.0388
    3.570    6.7755
    3.585    6.5298
    3.600    6.4420
    3.615    6.5473
    3.630    6.1787
    3.645    6.8106
    3.660    6.9686
    3.675    6.8808
    3.690    7.2670
    3.705    7.0563
    3.720    6.8457
    3.735    7.1617
    3.750    7.2319
    3.765    6.9686
    3.780    6.6877
    3.795    6.7228
    3.810    7.4952
    3.825    7.0212
    3.840    7.4250
    3.855    6.9861
    3.870    6.9335
    3.885    7.3021
    3.900    6.5824
    3.915    6.6526
    3.930    6.1962
    3.945    6.5473
    3.960    6.5298
    3.975    6.3367
    3.990    6.5649
    4.005    6.4420
    4.020    6.1611
    4.035    6.4595
    4.050    6.6877
    4.065    6.3367
    4.080    5.8978
    4.095    6.0558
    4.110    6.1787
    4.125    5.5819
    4.140    5.9856
    4.155    6.1611
    4.170    6.0032
    4.185    6.3542
    4.200    6.3893
    4.215    6.3542
    4.230    5.7750
    4.245    5.9681
    4.260    5.8627
    4.275    6.2138
    4.290    6.0558
    4.305    6.4420
    4.320    5.8627
    4.335    5.6872
    4.350    6.0909
    4.365    6.0734
    4.380    6.0734
    4.395    6.7579
    4.410    6.6351
    4.425    6.5473
    4.440    6.3542
    4.455    5.7925
    4.470    6.0909
    4.485    5.8452
    4.500    5.7925
    4.515    6.0032
    4.530    5.9856
    4.545    6.0909
    4.560    5.7399
    4.575    6.1085
    4.590    5.8276
    4.605    6.1260
    4.620    6.3191
    4.635    5.6521
    4.650    5.7925
    4.665    5.6345
    4.680    5.6697
    4.695    5.2835
    4.710    5.9154
    4.725    5.4766
    4.740    5.7750
    4.755    5.8803
    4.770    5.8627
    4.785    5.9856
    4.800    5.7750
    4.815    5.3888
    4.830    5.3186
    4.845    5.3888
    4.860    5.2659
    4.875    5.6521
    4.890    5.6170
    4.905    5.2835
    4.920    5.5994
    4.935    5.3010
    4.950    5.4941
    4.965    5.0202
    4.980    5.0904
    4.995    5.2484
    5.010    5.4590
    5.025    5.3712
    5.040    5.5643
    5.055    5.1957
    5.070    5.0553
    5.085    5.0026
    5.100    5.7574
    5.115    5.3537
    5.130    5.2484
    5.145    5.3888
    5.160    5.5117
    5.175    5.4415
    5.190    5.4064
    5.205    5.3186
    5.220    5.3010
    5.235    5.7750
    5.250    5.3712
    5.265    5.3010
    5.280    5.0026
    5.295    5.1782
    5.310    5.5819
    5.325    5.3712
    5.340    5.2835
    5.355    5.2835
    5.370    5.3010
    5.385    5.0026
    5.400    5.0553
    5.415    5.4415
    5.430    5.0728
    5.445    5.2484
    5.460    5.3010
    5.475    5.1957
    5.490    5.0728
    5.505    5.2835
    5.520    5.2835
    5.535    5.5117
    5.550    5.4415
    5.565    5.1782
    5.580    5.3186
    5.595    4.9500
    5.610    4.9851
    5.625    4.6691
    5.640    5.0377
    5.655    4.8973
    5.670    4.8447
    5.685    4.9851
    5.700    5.1080
    5.715    5.2835
    5.730    5.2659
    5.745    4.6340
    5.760    5.0904
    5.775    5.0026
    5.790    5.2133
    5.805    5.0377
    5.820    5.1080
    5.835    4.9149
    5.850    4.8447
    5.865    4.7218
    5.880    4.4409
    5.895    4.9149
    5.910    5.0202
    5.925    5.4941
    5.940    5.0202
    5.955    4.9851
    5.970    5.2659
    5.985    4.9675
    6.000    5.0904
    6.015    4.8095
    6.030    5.0377
    6.045    4.8973
    6.060    5.0202
    6.075    5.4590
    6.090    5.4064
    6.105    4.9675
    6.120    5.1782
    6.135    5.0904
    6.150    5.1957
    6.165    5.1606
    6.180    5.3712
    6.195    4.8447
    6.210    4.9851
    6.225    5.1080
    6.240    5.0728
    6.255    4.9149
    6.270    5.2484
    6.285    5.3186
    6.300    5.4590
    6.315    5.0377
    6.330    4.9851
    6.345    5.0377
    6.360    4.8447
    6.375    4.8798
    6.390    5.1080
    6.405    5.1957
    6.420    5.2133
    6.435    5.3712
    6.450    5.1431
    6.465    4.6867
    6.480    4.6867
    6.495    4.8622
    6.510    4.8973
    6.525    5.0728
    6.540    5.1255
    6.555    4.9500
    6.570    5.2133
    6.585    4.6165
    6.600    4.7920
    6.615    4.7393
    6.630    5.0728
    6.645    5.4064
    6.660    5.1255
    6.675    5.0026
    6.690    4.9851
    6.705    5.0377
    6.720    4.9324
    6.735    4.9500
    6.750    5.2484
    6.765    4.9851
    6.780    4.8622
    6.795    4.9149
    6.810    4.9675
    6.825    5.1255
    6.840    5.4941
    6.855    5.3537
    6.870    5.0202
    6.885    5.0904
    6.900    5.4766
    6.915    5.6872
    6.930    4.9149
    6.945    4.7569
    6.960    4.9851
    6.975    4.9851
    6.990    4.9675
    7.005    5.0377
    7.020    4.7042
    7.035    4.7218
    7.050    5.0904
    7.065    5.3888
    7.080    4.7042
    7.095    5.3010
    7.110    4.8973
    7.125    4.9851
    7.140    5.3010
    7.155    5.2835
    7.170    4.8973
    7.185    5.4941
    7.200    5.1957
    7.215    4.9500
    7.230    5.1255
    7.245    5.0026
    7.260    4.9324
    7.275    4.7920
    7.290    5.0377
    7.305    5.0026
    7.320    5.3010
    7.335    5.4239
    7.350    5.3186
    7.365    5.0728
    7.380    4.9500
    7.395    4.7569
    7.410    5.2659
    7.425    4.9851
    7.440    5.1255
    7.455    5.5643
    7.470    4.7393
    7.485    5.0904
    7.500    4.9500
    7.515    5.2308
    7.530    5.7399
    7.545    5.3010
    7.560    5.3186
    7.575    5.5117
    7.590    4.7920
    7.605    4.9851
    7.620    5.1431
    7.635    5.4766
    7.650    5.8627
    7.665    5.3537
    7.680    5.0553
    7.695    4.9324
    7.710    5.0728
    7.725    5.5643
    7.740    4.9675
    7.755    4.7920
    7.770    5.0202
    7.785    5.3186
    7.800    4.8095
    7.815    5.1431
    7.830    5.1431
    7.845    4.9149
    7.860    5.4064
    7.875    5.0377
    7.890    4.8973
    7.905    5.2484
    7.920    5.2659
    7.935    5.5643
    7.950    5.1431
    7.965    5.3010
    7.980    5.2308
    7.995    5.0904
    8.010    5.2659
    8.025    4.8973
    8.040    5.1606
    8.055    5.8803
    8.070    5.9681
    8.085    5.3010
    8.100    5.3361
    8.115    4.8447
    8.130    5.1080
    8.145    5.3186
    8.160    4.8622
    8.175    5.2308
    8.190    4.9324
    8.205    5.1957
    8.220    4.9500
    8.235    5.3712
    8.250    4.7744
    8.265    5.1606
    8.280    5.3888
    8.295    5.2308
    8.310    5.2659
    8.325    4.9149
    8.340    5.0377
    8.355    5.1080
    8.370    5.2133
    8.385    5.4415
    8.400    5.2308
    8.415    5.0904
    8.430    5.1255
    8.445    5.2835
    8.460    5.5819
    8.475    5.4064
    8.490    5.6872
    8.505    5.4590
    8.520    5.3186
    8.535    5.4766
    8.550    5.1782
    8.565    5.1080
    8.580    4.7920
    8.595    5.1080
    8.610    5.3537
    8.625    5.2133
    8.640    5.0728
    8.655    4.6340
    8.670    4.9149
    8.685    5.1431
    8.700    5.3010
    8.715    5.4590
    8.730    5.5468
    8.745    5.2484
    8.760    5.1782
    8.775    5.6521
    8.790    5.7223
    8.805    5.5292
    8.820    5.6521
    8.835    5.1431
    8.850    5.4239
    8.865    5.2133
    8.880    5.3537
    8.895    5.7223
    8.910    5.7399
    8.925    5.4941
    8.940    5.8276
    8.955    4.8095
    8.970    5.0202
    8.985    5.2659
    9.000    5.4590
    9.015    5.4941
    9.030    5.4064
    9.045    5.3888
    9.060    5.0026
    9.075    5.3537
    9.090    5.5643
    9.105    5.3712
    9.120    5.7399
    9.135    5.3712
    9.150    5.3712
    9.165    5.5643
    9.180    5.2133
    9.195    5.0728
    9.210    5.8803
    9.225    5.6345
    9.240    5.1431
    9.255    5.5994
    9.270    5.7048
    9.285    5.9329
    9.300    5.0728
    9.315    5.4064
    9.330    5.2659
    9.345    5.5117
    9.360    5.4590
    9.375    5.4415
    9.390    5.3888
    9.405    5.0904
    9.420    5.3888
    9.435    5.1431
    9.450    5.8803
    9.465    5.7048
    9.480    5.2484
    9.495    5.6521
    9.510    5.4064
    9.525    5.5117
    9.540    5.2308
    9.555    5.3712
    9.570    5.8276
    9.585    5.0728
    9.600    5.4590
    9.615    5.5292
    9.630    5.3361
    9.645    5.3888
    9.660    5.4239
    9.675    5.2835
    9.690    5.7574
    9.705    5.5292
    9.720    4.6691
    9.735    5.2484
    9.750    5.5468
    9.765    5.3537
    9.780    5.0904
    9.795    4.8973
    9.810    5.1255
    9.825    5.2484
    9.840    5.4064
    9.855    5.2308
    9.870    5.6345
    9.885    5.7399
    9.900    5.3010
    9.915    5.5994
    9.930    5.5117
    9.945    5.4239
    9.960    5.3361
    9.975    5.6345
    9.990    5.4415
   10.005    5.1606
   10.020    5.8627
   10.035    5.7574
   10.050    5.3186
   10.065    5.0202
   10.080    5.3537
   10.095    5.1782
   10.110    5.4941
   10.125    5.5468
   10.140    5.6170
   10.155    5.6521
   10.170    5.5117
   10.185    5.5468
   10.200    5.5117
   10.215    5.4766
   10.230    5.2133
   10.245    5.3186
   10.260    5.2484
   10.275    5.1606
   10.290    5.8803
   10.305    5.7925
   10.320    5.1255
   10.335    5.8101
   10.350    5.5819
   10.365    5.2659
   10.380    5.6521
   10.395    5.4590
   10.410    5.1255
   10.425    4.7218
   10.440    5.2308
   10.455    5.2133
   10.470    5.7399
   10.485    5.5117
   10.500    5.5117
   10.515    5.6521
   10.530    5.5117
   10.545    5.1255
   10.560    5.3361
   10.575    5.2133
   10.590    5.8803
   10.605    5.4941
   10.620    5.2133
   10.635    5.0904
   10.650    5.4064
   10.665    5.2484
   10.680    5.6170
   10.695    5.2308
   10.710    5.2835
   10.725    5.2835
   10.740    5.0553
   10.755    5.1782
   10.770    5.2308
   10.785    5.3186
   10.800    5.2484
   10.815    5.3361
   10.830    4.8622
   10.845    5.4415
   10.860    5.4590
   10.875    5.4239
   10.890    5.2308
   10.905    5.1431
   10.920    4.8095
   10.935    5.2308
   10.950    5.4766
   10.965    5.0202
   10.980    4.8447
   10.995    5.2308
   11.010    5.2133
   11.025    5.1431
   11.040    4.9675
   11.055    4.9500
   11.070    4.9851
   11.085    4.9500
   11.100    5.0553
   11.115    5.4766
   11.130    5.2835
   11.145    5.7048
   11.160    5.5292
   11.175    4.7920
   11.190    4.9500
   11.205    5.3888
   11.220    5.3712
   11.235    5.4590
   11.250    5.3186
   11.265    5.1782
   11.280    4.6516
   11.295    5.3361
   11.310    4.8973
   11.325    4.8095
   11.340    5.2835
   11.355    5.5643
   11.370    5.8452
   11.385    5.2484
   11.400    4.8271
   11.415    4.7744
   11.430    5.1255
   11.445    5.3186
   11.460    5.2659
   11.475    5.3712
   11.490    5.0904
   11.505    5.2835
   11.520    5.1782
   11.535    5.5117
   11.550    5.3888
   11.565    5.0553
   11.580    4.9149
   11.595    4.8447
   11.610    4.8798
   11.625    4.8798
   11.640    4.6691
   11.655    5.1957
   11.670    4.6867
   11.685    4.8447
   11.700    4.7042
   11.715    4.8447
   11.730    4.8447
   11.745    4.8447
   11.760    5.0728
   11.775    4.6691
   11.790    5.4239
   11.805    5.0904
   11.820    4.8447
   11.835    4.5814
   11.850    4.8798
   11.865    4.5989
   11.880    5.0904
   11.895    5.0728
   11.910    4.6691
   11.925    5.0026
   11.940    4.8447
   11.955    4.8447
   11.970    4.9851
   11.985    4.8271
   12.000    4.4585
   12.015    5.1782
   12.030    5.2835
   12.045    4.7744
   12.060    4.8095
   12.075    4.7569
   12.090    4.5989
   12.105    4.6691
   12.120    4.3005
   12.135    5.0728
   12.150    5.0728
   12.165    4.8798
   12.180    4.5463
   12.195    4.6165
   12.210    4.7218
   12.225    5.0202
   12.240    5.3010
   12.255    4.6165
   12.270    4.4760
   12.285    4.4760
   12.300    4.4936
   12.315    4.4234
   12.330    4.7393
   12.345    4.7042
   12.360    4.6691
   12.375    4.7218
   12.390    4.6340
   12.405    4.7218
   12.420    4.6165
   12.435    4.4936
   12.450    4.7042
   12.465    4.4585
   12.480    4.6867
   12.495    4.7218
   12.510    4.8622
   12.525    4.3707
   12.540    4.5638
   12.555    4.8271
   12.570    4.9675
   12.585    4.6340
   12.600    4.7920
   12.615    5.1957
   12.630    4.8622
   12.645    4.3883
   12.660    4.4760
   12.675    4.9675
   12.690    5.1255
   12.705    4.8622
   12.720    4.4760
   12.735    4.8447
   12.750    4.5814
   12.765    5.1080
   12.780    4.8447
   12.795    4.0899
   12.810    4.4936
   12.825    4.5111
   12.840    4.6691
   12.855    4.8447
   12.870    4.4585
   12.885    4.4058
   12.900    4.8798
   12.915    4.5814
   12.930    4.6516
   12.945    4.7744
   12.960    4.1776
   12.975    4.6516
   12.990    5.0202
   13.005    5.0553
   13.020    5.0728
   13.035    4.9500
   13.050    4.7042
   13.065    4.7744
   13.080    4.6516
   13.095    4.3181
   13.110    4.5287
   13.125    4.7042
   13.140    4.7218
   13.155    4.4936
   13.170    4.8622
   13.185    4.5111
   13.200    4.2127
   13.215    4.1952
   13.230    4.5814
   13.245    4.8271
   13.260    4.5638
   13.275    4.7393
   13.290    4.6516
   13.305    4.3532
   13.320    5.0553
   13.335    4.5814
   13.350    4.6165
   13.365    4.5111
   13.380    4.5463
   13.395    4.3181
   13.410    4.5638
   13.425    4.2830
   13.440    4.5463
   13.455    4.7218
   13.470    4.7042
   13.485    5.0026
   13.500    4.6867
   13.515    5.0202
   13.530    4.7569
   13.545    4.2478
   13.560    4.7569
   13.575    4.2127
   13.590    4.6691
   13.605    4.4234
   13.620    4.3005
   13.635    4.5287
   13.650    4.8973
   13.665    4.3005
   13.680    4.7218
   13.695    4.4234
   13.710    4.2127
   13.725    4.4409
   13.740    4.7393
   13.755    4.6165
   13.770    4.3181
   13.785    4.4760
   13.800    4.4585
   13.815    4.3707
   13.830    4.3883
   13.845    4.4936
   13.860    4.7569
   13.875    4.9149
   13.890    4.3005
   13.905    4.5638
   13.920    5.0728
   13.935    4.8622
   13.950    5.0026
   13.965    4.6691
   13.980    4.5814
   13.995    4.6165
   14.010    4.4234
   14.025    4.3883
   14.040    4.8973
   14.055    5.0728
   14.070    4.8095
   14.085    4.8973
   14.100    4.4760
   14.115    4.5638
   14.130    4.1425
   14.145    4.6516
   14.160    4.7218
   14.175    4.4234
   14.190    4.3532
   14.205    4.3883
   14.220    4.5814
   14.235    4.5814
   14.250    4.6691
   14.265    4.5463
   14.280    4.5638
   14.295    4.8798
   14.310    4.6867
   14.325    4.3707
   14.340    4.5287
   14.355    4.8622
   14.370    4.6867
   14.385    4.2478
   14.400    4.4936
   14.415    4.5638
   14.430    4.7393
   14.445    4.7920
   14.460    4.4234
   14.475    4.5638
   14.490    4.5814
   14.505    4.3883
   14.520    4.6165
   14.535    4.7393
   14.550    4.7744
   14.565    5.0904
   14.580    4.6867
   14.595    4.8271
   14.610    4.4409
   14.625    4.4234
   14.640    4.2303
   14.655    4.4234
   14.670    4.8271
   14.685    4.6340
   14.700    4.6867
   14.715    4.5638
   14.730    4.7569
   14.745    5.1606
   14.760    4.6340
   14.775    4.3181
   14.790    4.6165
   14.805    4.5111
   14.820    4.4058
   14.835    4.3005
   14.850    4.2478
   14.865    4.8622
   14.880    4.8622
   14.895    4.4409
   14.910    4.5638
   14.925    4.7920
   14.940    4.4058
   14.955    4.6516
   14.970    4.8798
   14.985    4.8447
   15.000    4.4760
   15.015    4.4760
   15.030    4.5638
   15.045    4.5111
   15.060    4.8095
   15.075    4.8271
   15.090    4.4760
   15.105    4.2478
   15.120    4.3356
   15.135    4.9149
   15.150    4.7920
   15.165    4.7393
   15.180    4.7569
   15.195    4.6691
   15.210    4.6165
   15.225    4.5287
   15.240    4.4936
   15.255    4.4585
   15.270    4.2303
   15.285    4.5638
   15.300    4.7569
   15.315    4.7744
   15.330    4.6340
   15.345    4.5463
   15.360    4.3707
   15.375    4.4058
   15.390    4.8447
   15.405    4.8973
   15.420    4.5814
   15.435    4.7042
   15.450    4.4760
   15.465    4.7744
   15.480    5.0728
   15.495    4.5638
   15.510    4.4585
   15.525    4.6165
   15.540    4.8622
   15.555    4.6867
   15.570    4.4409
   15.585    4.3181
   15.600    4.4058
   15.615    4.5638
   15.630    4.7393
   15.645    4.4585
   15.660    4.3707
   15.675    4.4409
   15.690    4.3181
   15.705    4.9675
   15.720    4.4936
   15.735    4.5463
   15.750    4.6340
   15.765    4.3181
   15.780    4.6340
   15.795    4.5111
   15.810    4.8095
   15.825    4.2127
   15.840    4.5638
   15.855    4.4585
   15.870    4.3356
   15.885    4.5814
   15.900    4.4760
   15.915    4.0197
   15.930    4.2654
   15.945    4.7218
   15.960    4.9851
   15.975    4.5814
   15.990    4.7920
   16.005    4.6516
   16.020    4.6691
   16.035    4.9149
   16.050    4.3532
   16.065    4.3356
   16.080    4.6867
   16.095    4.4234
   16.110    4.5111
   16.125    4.9149
   16.140    4.8271
   16.155    4.5638
   16.170    4.4585
   16.185    4.5638
   16.200    5.0377
   16.215    4.5814
   16.230    4.4234
   16.245    4.6516
   16.260    4.7920
   16.275    4.6165
   16.290    4.6516
   16.305    4.4760
   16.320    4.7393
   16.335    4.6516
   16.350    4.5287
   16.365    4.3707
   16.380    4.3883
   16.395    4.6691
   16.410    4.4409
   16.425    4.5638
   16.440    4.6165
   16.455    4.6867
   16.470    4.5287
   16.485    4.2478
   16.500    4.4409
   16.515    4.3883
   16.530    4.8622
   16.545    4.4585
   16.560    4.5287
   16.575    4.4058
   16.590    4.5463
   16.605    4.5989
   16.620    4.4585
   16.635    4.5463
   16.650    4.7218
   16.665    4.8973
   16.680    4.7042
   16.695    4.2127
   16.710    4.4234
   16.725    4.7744
   16.740    4.6516
   16.755    4.7218
   16.770    4.7744
   16.785    4.5287
   16.800    4.5814
   16.815    4.5463
   16.830    4.3356
   16.845    4.4936
   16.860    4.7920
   16.875    5.3712
   16.890    4.4409
   16.905    4.3356
   16.920    4.5989
   16.935    4.6165
   16.950    4.2830
   16.965    4.6165
   16.980    4.4234
   16.995    4.5814
   17.010    4.4936
   17.025    4.4058
   17.040    4.7920
   17.055    4.4234
   17.070    4.5287
   17.085    4.7920
   17.100    4.6691
   17.115    4.5638
   17.130    4.4760
   17.145    4.4234
   17.160    4.3356
   17.175    4.6691
   17.190    4.6340
   17.205    4.6691
   17.220    4.3005
   17.235    4.4760
   17.250    4.4760
   17.265    4.6867
   17.280    4.5111
   17.295    4.3356
   17.310    4.5989
   17.325    4.4409
   17.340    4.3883
   17.355    4.8095
   17.370    4.8095
   17.385    4.6340
   17.400    4.5814
   17.415    4.7042
   17.430    4.2478
   17.445    4.2127
   17.460    4.6867
   17.475    4.5111
   17.490    4.7920
   17.505    4.5111
   17.520    4.5989
   17.535    4.3356
   17.550    4.6867
   17.565    4.4936
   17.580    4.8622
   17.595    4.5111
   17.610    4.3707
   17.625    4.3532
   17.640    4.4585
   17.655    4.4058
   17.670    4.2830
   17.685    4.3005
   17.700    4.2830
   17.715    4.6691
   17.730    4.3356
   17.745    4.5463
   17.760    4.7042
   17.775    4.7920
   17.790    4.6691
   17.805    4.6691
   17.820    5.1782
   17.835    5.1080
   17.850    4.7218
   17.865    4.4936
   17.880    4.5287
   17.895    4.6516
   17.910    4.6516
   17.925    4.8447
   17.940    4.5814
   17.955    4.2478
   17.970    4.6516
   17.985    4.1425
   18.000    4.5814
   18.015    4.5287
   18.030    4.5287
   18.045    4.5111
   18.060    4.2478
   18.075    4.5814
   18.090    4.3883
   18.105    4.5287
   18.120    4.7920
   18.135    4.4409
   18.150    4.3883
   18.165    4.8271
   18.180    4.7920
   18.195    4.6691
   18.210    4.6867
   18.225    4.7042
   18.240    4.2830
   18.255    4.3181
   18.270    4.6691
   18.285    4.2830
   18.300    4.4936
   18.315    4.5463
   18.330    4.6165
   18.345    4.8622
   18.360    4.4234
   18.375    4.7920
   18.390    4.6691
   18.405    4.7218
   18.420    4.8271
   18.435    5.0026
   18.450    4.4936
   18.465    4.2303
   18.480    4.5463
   18.495    4.5989
   18.510    4.5111
   18.525    4.4409
   18.540    4.2127
   18.555    4.4936
   18.570    4.6516
   18.585    4.3532
   18.600    4.6340
   18.615    4.9500
   18.630    4.7218
   18.645    4.8798
   18.660    4.7920
   18.675    4.8973
   18.690    4.8095
   18.705    4.5111
   18.720    4.4585
   18.735    4.5989
   18.750    4.3005
   18.765    4.8447
   18.780    4.9324
   18.795    4.6340
   18.810    4.7042
   18.825    4.8447
   18.840    4.6867
   18.855    4.6867
   18.870    4.5989
   18.885    4.7744
   18.900    4.7744
   18.915    4.8095
   18.930    4.2654
   18.945    4.6691
   18.960    4.3532
   18.975    4.3181
   18.990    4.7920
   19.005    4.3356
   19.020    4.5287
   19.035    4.7393
   19.050    4.7744
   19.065    4.5111
   19.080    4.3883
   19.095    4.6340
   19.110    4.5814
   19.125    4.7569
   19.140    4.3181
   19.155    4.6691
   19.170    4.5638
   19.185    4.1776
   19.200    4.4585
   19.215    4.6516
   19.230    4.7042
   19.245    4.5111
   19.260    4.1601
   19.275    4.8447
   19.290    4.5111
   19.305    4.4760
   19.320    4.7744
   19.335    4.6340
   19.350    4.6340
   19.365    4.0197
   19.380    4.1952
   19.395    4.4234
   19.410    4.6867
   19.425    4.8447
   19.440    4.3883
   19.455    4.5463
   19.470    4.5638
   19.485    4.8798
   19.500    4.3532
   19.515    4.5463
   19.530    4.8095
   19.545    4.7744
   19.560    4.6340
   19.575    4.5989
   19.590    4.7218
   19.605    4.5111
   19.620    4.2830
   19.635    4.6867
   19.650    4.4936
   19.665    5.1080
   19.680    4.7042
   19.695    4.6165
   19.710    4.2127
   19.725    4.4058
   19.740    4.6691
   19.755    4.6340
   19.770    4.6516
   19.785    4.6516
   19.800    4.6867
   19.815    4.2654
   19.830    4.7744
   19.845    4.9500
   19.860    4.4585
   19.875    4.6516
   19.890    4.6867
   19.905    4.8798
   19.920    4.5287
   19.935    4.5814
   19.950    4.3356
   19.965    4.3532
   19.980    4.5989
   19.995    4.4936
   20.010    4.5638
   20.025    4.9851
   20.040    4.5463
   20.055    5.0026
   20.070    4.7744
   20.085    5.3010
   20.100    4.7920
   20.115    4.8622
   20.130    4.6867
   20.145    4.3005
   20.160    4.7393
   20.175    4.9675
   20.190    5.1957
   20.205    4.6867
   20.220    5.3186
   20.235    4.7920
   20.250    4.5814
   20.265    4.9675
   20.280    5.1606
   20.295    4.8798
   20.310    4.5638
   20.325    4.6867
   20.340    5.0202
   20.355    5.2133
   20.370    4.8271
   20.385    4.6867
   20.400    4.4234
   20.415    4.5287
   20.430    4.4585
   20.445    4.5111
   20.460    4.7569
   20.475    4.5989
   20.490    4.6340
   20.505    4.3005
   20.520    4.4760
   20.535    4.3532
   20.550    4.6340
   20.565    4.6340
   20.580    4.5814
   20.595    4.8095
   20.610    4.3181
   20.625    4.8973
   20.640    4.7920
   20.655    5.0202
   20.670    4.8798
   20.685    4.7920
   20.700    4.5814
   20.715    4.5814
   20.730    4.8271
   20.745    4.6165
   20.760    4.6340
   20.775    4.7569
   20.790    4.9149
   20.805    4.6867
   20.820    5.1431
   20.835    4.6340
   20.850    4.6691
   20.865    4.7393
   20.880    4.7218
   20.895    4.5638
   20.910    4.4585
   20.925    4.3883
   20.940    4.4409
   20.955    4.9851
   20.970    4.6867
   20.985    4.8798
   21.000    4.9675
   21.015    4.9500
   21.030    4.7042
   21.045    4.7042
   21.060    4.7218
   21.075    4.5287
   21.090    4.8095
   21.105    4.8095
   21.120    4.5638
   21.135    4.9500
   21.150    4.8095
   21.165    4.4058
   21.180    5.0026
   21.195    4.6867
   21.210    4.7920
   21.225    5.0202
   21.240    4.6691
   21.255    4.4585
   21.270    4.6516
   21.285    4.4760
   21.300    4.3707
   21.315    4.4585
   21.330    4.9675
   21.345    5.1255
   21.360    5.0553
   21.375    4.6691
   21.390    4.9324
   21.405    4.9851
   21.420    4.5638
   21.435    4.9675
   21.450    5.3186
   21.465    4.8622
   21.480    5.1080
   21.495    5.0377
   21.510    5.0026
   21.525    4.9851
   21.540    4.6516
   21.555    4.2654
   21.570    4.5989
   21.585    4.6691
   21.600    4.5638
   21.615    4.9324
   21.630    5.1782
   21.645    4.7920
   21.660    5.0377
   21.675    4.9149
   21.690    4.5287
   21.705    5.3186
   21.720    4.5989
   21.735    5.2308
   21.750    4.6516
   21.765    5.0202
   21.780    4.6165
   21.795    4.5638
   21.810    4.6516
   21.825    4.1952
   21.840    4.3532
   21.855    4.4409
   21.870    4.5287
   21.885    4.4058
   21.900    4.4585
   21.915    4.4936
   21.930    4.7920
   21.945    4.7218
   21.960    4.9675
   21.975    4.5989
   21.990    4.4936
   22.005    4.8973
   22.020    5.0377
   22.035    4.9500
   22.050    4.9675
   22.065    4.7920
   22.080    4.5814
   22.095    4.4936
   22.110    4.3883
   22.125    4.5814
   22.140    4.5989
   22.155    4.7920
   22.170    4.8447
   22.185    4.6165
   22.200    4.1074
   22.215    4.6165
   22.230    4.9675
   22.245    4.7744
   22.260    4.5463
   22.275    4.8095
   22.290    4.8622
   22.305    4.7744
   22.320    4.8973
   22.335    4.8973
   22.350    4.8798
   22.365    4.7569
   22.380    4.7218
   22.395    4.8271
   22.410    4.6516
   22.425    4.7393
   22.440    4.9500
   22.455    5.1957
   22.470    4.8798
   22.485    5.0377
   22.500    4.5287
   22.515    4.7569
   22.530    4.6516
   22.545    5.0728
   22.560    5.2133
   22.575    4.8447
   22.590    5.0728
   22.605    4.5638
   22.620    4.5989
   22.635    4.8622
   22.650    5.1255
   22.665    4.6691
   22.680    4.4760
   22.695    4.6867
   22.710    4.5989
   22.725    4.4409
   22.740    4.6165
   22.755    4.7218
   22.770    4.2830
   22.785    4.1074
   22.800    4.7744
   22.815    4.1425
   22.830    4.9851
   22.845    5.0202
   22.860    5.0728
   22.875    4.9851
   22.890    4.8447
   22.905    4.9324
   22.920    4.9851
   22.935    4.8095
   22.950    5.0904
   22.965    5.1255
   22.980    5.1080
   22.995    5.3186
   23.010    4.7569
   23.025    4.4585
   23.040    4.7744
   23.055    4.7569
   23.070    5.0553
   23.085    4.9500
   23.100    4.7393
   23.115    4.5287
   23.130    4.7744
   23.145    4.8622
   23.160    4.8447
   23.175    4.6340
   23.190    4.7569
   23.205    4.9500
   23.220    5.1255
   23.235    4.6516
   23.250    5.0202
   23.265    4.8095
   23.280    4.7393
   23.295    4.3707
   23.310    4.6340
   23.325    4.8271
   23.340    4.9324
   23.355    4.9851
   23.370    4.7393
   23.385    4.8622
   23.400    4.6165
   23.415    4.1776
   23.430    4.4936
   23.445    4.7393
   23.460    4.8798
   23.475    4.9851
   23.490    4.7920
   23.505    4.8798
   23.520    4.7393
   23.535    4.6165
   23.550    4.5463
   23.565    4.6165
   23.580    4.4760
   23.595    4.4409
   23.610    4.6867
   23.625    4.7218
   23.640    4.6691
   23.655    4.7042
   23.670    4.7218
   23.685    5.0553
   23.700    4.8973
   23.715    4.7744
   23.730    5.0202
   23.745    4.9149
   23.760    4.9851
   23.775    4.8798
   23.790    4.3707
   23.805    4.6867
   23.820    4.4760
   23.835    5.1606
   23.850    5.1255
   23.865    4.7920
   23.880    4.7569
   23.895    4.7042
   23.910    4.9851
   23.925    4.6340
   23.940    4.3883
   23.955    4.6516
   23.970    4.4585
   23.985    4.4760
   24.000    4.7569
   24.015    4.5638
   24.030    4.2478
   24.045    4.3356
   24.060    4.8271
   24.075    4.7393
   24.090    5.0026
   24.105    4.5111
   24.120    4.6340
   24.135    4.6340
   24.150    4.3532
   24.165    4.3532
   24.180    5.0904
   24.195    4.7393
   24.210    4.5463
   24.225    4.7920
   24.240    4.5814
   24.255    4.8271
   24.270    4.8095
   24.285    4.9149
   24.300    5.0728
   24.315    4.6340
   24.330    4.5638
   24.345    4.7042
   24.360    5.3010
   24.375    5.2835
   24.390    4.5989
   24.405    4.2478
   24.420    4.4760
   24.435    4.8447
   24.450    4.6340
   24.465    4.3356
   24.480    4.4936
   24.495    4.5111
   24.510    4.4760
   24.525    4.5638
   24.540    4.7218
   24.555    4.8447
   24.570    4.3356
   24.585    4.4409
   24.600    4.4585
   24.615    4.4760
   24.630    4.6516
   24.645    4.3356
   24.660    4.5814
   24.675    4.3532
   24.690    4.8447
   24.705    4.3707
   24.720    4.5989
   24.735    4.7569
   24.750    4.3532
   24.765    4.4936
   24.780    4.1601
   24.795    4.6165
   24.810    5.0904
   24.825    4.9324
   24.840    4.6165
   24.855    4.3883
   24.870    4.6691
   24.885    4.9500
   24.900    4.5989
   24.915    4.6867
   24.930    4.7042
   24.945    4.1952
   24.960    4.9675
   24.975    5.0553
   24.990    4.9851
   25.005    4.4585
   25.020    4.2830
   25.035    4.4760
   25.050    4.7042
   25.065    4.6340
   25.080    3.9846
   25.095    4.1425
   25.110    4.6340
   25.125    4.1425
   25.140    4.3356
   25.155    4.7920
   25.170    4.5287
   25.185    4.6691
   25.200    4.2303
   25.215    4.5111
   25.230    4.8798
   25.245    4.7744
   25.260    4.8095
   25.275    4.5111
   25.290    4.3181
   25.305    4.3181
   25.320    4.9500
   25.335    4.5463
   25.350    4.6516
   25.365    4.6340
   25.380    4.5638
   25.395    4.5111
   25.410    4.4936
   25.425    4.7569
   25.440    4.7218
   25.455    4.1601
   25.470    4.5989
   25.485    4.6340
   25.500    4.6516
   25.515    4.6516
   25.530    4.7042
   25.545    4.7744
   25.560    4.7218
   25.575    4.5111
   25.590    4.7042
   25.605    4.4234
   25.620    4.4936
   25.635    3.8441
   25.650    4.3005
   25.665    4.6340
   25.680    4.3883
   25.695    4.2478
   25.710    4.3707
   25.725    4.9851
   25.740    4.9324
   25.755    4.3883
   25.770    4.4409
   25.785    4.8798
   25.800    4.6340
   25.815    4.5463
   25.830    4.7744
   25.845    4.6867
   25.860    4.6165
   25.875    4.9500
   25.890    4.9149
   25.905    4.3883
   25.920    4.3181
   25.935    4.2478
   25.950    4.5463
   25.965    4.2830
   25.980    4.3181
   25.995    4.5638
   26.010    4.6691
   26.025    4.6340
   26.040    4.7393
   26.055    4.5989
   26.070    4.3532
   26.085    4.7042
   26.100    4.6340
   26.115    4.2127
   26.130    4.2303
   26.145    4.4760
   26.160    4.4585
   26.175    4.3707
   26.190    4.0548
   26.205    4.4760
   26.220    4.3356
   26.235    4.3707
   26.250    4.4760
   26.265    4.4585
   26.280    4.3532
   26.295    4.6340
   26.310    4.1601
   26.325    4.3181
   26.340    4.3707
   26.355    4.3356
   26.370    4.5111
   26.385    4.7569
   26.400    4.5989
   26.415    4.4058
   26.430    4.8798
   26.445    4.6516
   26.460    4.5989
   26.475    4.0372
   26.490    4.2478
   26.505    4.5111
   26.520    4.1425
   26.535    3.8792
   26.550    4.5989
   26.565    4.2478
   26.580    4.3883
   26.595    4.4234
   26.610    4.3356
   26.625    4.2303
   26.640    4.6691
   26.655    4.1601
   26.670    3.8792
   26.685    4.1425
   26.700    4.5463
   26.715    4.3005
   26.730    4.1425
   26.745    4.1776
   26.760    4.4409
   26.775    4.5463
   26.790    4.6340
   26.805    4.1601
   26.820    4.1952
   26.835    4.8095
   26.850    4.7393
   26.865    4.4585
   26.880    4.1952
   26.895    4.1776
   26.910    4.4585
   26.925    4.4234
   26.940    4.3356
   26.955    4.4936
   26.970    4.3532
   26.985    4.6691
   27.000    4.4234
   27.015    4.8095
   27.030    4.3883
   27.045    4.3532
   27.060    4.2654
   27.075    4.4058
   27.090    4.6340
   27.105    4.6340
   27.120    4.6340
   27.135    4.5814
   27.150    4.2127
   27.165    4.2830
   27.180    4.4058
   27.195    4.7569
   27.210    5.0728
   27.225    4.5111
   27.240    4.0723
   27.255    4.1601
   27.270    4.5287
   27.285    4.6691
   27.300    4.3707
   27.315    4.6165
   27.330    4.5638
   27.345    4.5814
   27.360    4.3532
   27.375    4.2830
   27.390    4.2478
   27.405    4.2654
   27.420    4.2654
   27.435    4.4234
   27.450    4.4234
   27.465    4.4760
   27.480    4.1074
   27.495    4.4760
   27.510    4.3883
   27.525    4.2654
   27.540    4.2127
   27.555    4.2654
   27.570    4.4936
   27.585    4.3181
   27.600    4.3883
   27.615    4.0372
   27.630    4.3883
   27.645    4.7920
   27.660    4.1250
   27.675    4.5989
   27.690    4.3181
   27.705    4.4234
   27.720    4.0021
   27.735    4.1776
   27.750    4.0723
   27.765    4.2830
   27.780    4.4936
   27.795    4.5638
   27.810    4.5989
   27.825    4.3005
   27.840    4.0723
   27.855    4.6867
   27.870    4.4760
   27.885    4.7042
   27.900    4.6165
   27.915    4.4936
   27.930    4.3707
   27.945    4.4409
   27.960    3.7915
   27.975    4.3532
   27.990    4.7569
   28.005    4.1952
   28.020    4.4585
   28.035    4.2654
   28.050    4.0021
   28.065    4.2127
   28.080    4.0548
   28.095    4.1250
   28.110    4.2303
   28.125    4.0899
   28.140    4.5989
   28.155    4.3356
   28.170    4.3356
   28.185    4.3356
   28.200    4.3883
   28.215    4.4234
   28.230    4.5111
   28.245    4.0197
   28.260    4.2127
   28.275    4.1952
   28.290    4.2654
   28.305    4.8798
   28.320    4.6516
   28.335    4.1952
   28.350    3.9319
   28.365    4.4760
   28.380    4.1776
   28.395    4.3181
   28.410    4.0899
   28.425    3.9846
   28.440    4.1074
   28.455    4.4058
   28.470    4.2830
   28.485    4.8973
   28.500    4.2303
   28.515    4.2830
   28.530    4.2654
   28.545    3.9494
   28.560    4.4234
   28.575    4.0021
   28.590    3.7037
   28.605    4.3181
   28.620    4.3005
   28.635    4.0021
   28.650    4.0723
   28.665    3.9670
   28.680    4.4760
   28.695    4.0548
   28.710    3.8090
   28.725    4.0372
   28.740    4.2830
   28.755    4.7569
   28.770    4.2654
   28.785    3.5633
   28.800    3.7739
   28.815    4.0548
   28.830    3.9494
   28.845    4.0548
   28.860    4.0723
   28.875    3.5984
   28.890    4.2127
   28.905    4.5989
   28.920    4.5111
   28.935    4.6691
   28.950    4.1074
   28.965    4.1425
   28.980    4.1952
   28.995    4.3181
   29.010    4.5814
   29.025    4.1776
   29.040    4.1952
   29.055    4.3356
   29.070    4.0548
   29.085    4.1074
   29.100    4.1074
   29.115    4.2654
   29.130    4.2303
   29.145    3.9670
   29.160    3.7739
   29.175    4.1601
   29.190    4.1074
   29.205    3.9670
   29.220    4.2127
   29.235    4.0723
   29.250    3.8441
   29.265    3.9670
   29.280    3.7213
   29.295    4.1776
   29.310    4.3532
   29.325    4.1074
   29.340    4.0899
   29.355    3.8441
   29.370    4.0548
   29.385    3.6862
   29.400    3.5457
   29.415    3.7037
   29.430    3.9670
   29.445    3.9494
   29.460    4.1250
   29.475    4.2303
   29.490    3.9143
   29.505    4.0899
   29.520    4.0899
   29.535    3.8968
   29.550    4.1776
   29.565    3.9846
   29.580    3.3702
   29.595    4.0197
   29.610    4.1601
   29.625    4.1074
   29.640    4.0197
   29.655    4.4760
   29.670    3.8792
   29.685    4.1952
   29.700    3.9846
   29.715    4.1952
   29.730    4.0899
   29.745    3.9494
   29.760    3.8792
   29.775    4.1074
   29.790    3.8968
   29.805    4.2478
   29.820    4.0021
   29.835    3.9494
   29.850    4.0899
   29.865    3.8792
   29.880    4.1776
   29.895    3.8441
   29.910    4.1250
   29.925    3.9670
   29.940    4.2654
   29.955    4.1952
   29.970    4.4936
   29.985    4.4234
   30.000    4.1601
   30.015    3.7564
   30.030    4.2654
   30.045    4.4234
   30.060    4.1250
   30.075    4.1425
   30.090    4.0372
   30.105    4.3005
   30.120    4.3707
   30.135    4.0899
   30.150    4.0723
   30.165    4.0899
   30.180    4.2830
   30.195    3.9494
   30.210    3.8792
   30.225    3.8090
   30.240    4.0723
   30.255    3.8968
   30.270    3.7213
   30.285    4.1776
   30.300    4.1601
   30.315    4.3181
   30.330    4.1250
   30.345    4.1601
   30.360    4.1601
   30.375    3.8968
   30.390    4.0021
   30.405    3.8968
   30.420    4.2303
   30.435    4.2127
   30.450    4.0899
   30.465    4.0197
   30.480    3.7739
   30.495    4.0021
   30.510    4.4760
   30.525    4.3181
   30.540    4.2478
   30.555    4.4409
   30.570    4.0372
   30.585    3.7388
   30.600    3.7915
   30.615    3.8441
   30.630    3.8968
   30.645    4.0021
   30.660    3.8266
   30.675    4.2303
   30.690    4.0548
   30.705    4.2830
   30.720    4.1425
   30.735    3.8617
   30.750    3.5808
   30.765    3.7564
   30.780    4.1250
   30.795    4.2830
   30.810    4.3181
   30.825    3.7915
   30.840    3.6862
   30.855    3.8266
   30.870    4.1952
   30.885    4.3005
   30.900    4.4058
   30.915    4.0899
   30.930    4.0723
   30.945    3.8792
   30.960    3.3526
   30.975    3.5633
   30.990    3.8792
   31.005    3.7388
   31.020    3.4755
   31.035    4.2478
   31.050    4.1425
   31.065    4.3356
   31.080    4.0372
   31.095    3.8617
   31.110    3.8441
   31.125    3.6335
   31.140    3.8266
   31.155    3.9670
   31.170    3.8968
   31.185    3.7739
   31.200    3.6159
   31.215    3.5457
   31.230    3.5808
   31.245    3.5633
   31.260    3.6862
   31.275    3.8266
   31.290    4.1250
   31.305    4.1776
   31.320    3.6510
   31.335    4.0723
   31.350    3.8792
   31.365    3.6510
   31.380    3.6510
   31.395    4.0021
   31.410    4.2830
   31.425    4.0197
   31.440    4.1952
   31.455    3.9494
   31.470    3.5808
   31.485    3.9670
   31.500    4.1425
   31.515    3.7739
   31.530    4.2303
   31.545    3.8968
   31.560    3.6159
   31.575    3.2649
   31.590    3.7564
   31.605    3.8266
   31.620    3.4053
   31.635    3.7915
   31.650    3.9670
   31.665    4.1250
   31.680    4.2478
   31.695    3.6335
   31.710    3.3000
   31.725    3.3351
   31.740    3.7037
   31.755    3.7739
   31.770    3.8792
   31.785    3.8266
   31.800    3.8090
   31.815    3.3526
   31.830    3.7388
   31.845    3.7915
   31.860    3.8792
   31.875    4.0899
   31.890    3.8441
   31.905    3.9846
   31.920    4.5111
   31.935    3.8617
   31.950    3.7213
   31.965    4.0372
   31.980    3.8266
   31.995    3.8617
   32.010    3.6335
   32.025    3.6862
   32.040    3.5808
   32.055    4.1601
   32.070    4.1250
   32.085    3.6510
   32.100    3.8968
   32.115    4.0899
   32.130    4.0197
   32.145    3.5633
   32.160    3.7388
   32.175    3.4755
   32.190    3.8266
   32.205    3.7739
   32.220    3.4931
   32.235    3.7213
   32.250    3.3702
   32.265    3.5282
   32.280    3.7388
   32.295    3.7739
   32.310    3.4404
   32.325    3.9143
   32.340    3.9494
   32.355    3.8441
   32.370    3.6510
   32.385    3.8617
   32.400    3.6686
   32.415    4.1601
   32.430    3.8090
   32.445    3.9319
   32.460    3.8090
   32.475    3.6686
   32.490    3.4580
   32.505    3.3702
   32.520    3.6862
   32.535    4.0372
   32.550    4.0021
   32.565    3.5808
   32.580    3.7915
   32.595    3.7213
   32.610    3.8090
   32.625    3.9319
   32.640    4.0548
   32.655    3.5633
   32.670    3.7213
   32.685    3.5808
   32.700    3.6862
   32.715    3.5457
   32.730    3.8266
   32.745    3.8090
   32.760    3.7739
   32.775    4.0197
   32.790    3.7388
   32.805    3.5808
   32.820    3.7739
   32.835    3.6159
   32.850    3.8441
   32.865    3.7564
   32.880    3.6510
   32.895    3.8617
   32.910    3.6686
   32.925    4.0372
   32.940    3.5808
   32.955    3.9143
   32.970    3.8617
   32.985    3.8441
   33.000    3.8266
   33.015    4.1776
   33.030    3.6510
   33.045    3.4229
   33.060    3.1771
   33.075    3.4931
   33.090    3.5282
   33.105    3.6686
   33.120    3.6159
   33.135    3.8266
   33.150    3.6862
   33.165    4.0372
   33.180    3.6862
   33.195    3.8266
   33.210    3.8266
   33.225    3.4053
   33.240    3.2473
   33.255    3.5633
   33.270    3.4931
   33.285    3.5808
   33.300    3.6510
   33.315    3.5984
   33.330    3.9319
   33.345    3.5633
   33.360    3.6335
   33.375    3.4931
   33.390    3.7388
   33.405    3.8441
   33.420    3.6510
   33.435    3.4580
   33.450    3.8617
   33.465    3.7915
   33.480    3.8266
   33.495    3.9319
   33.510    3.5984
   33.525    3.3702
   33.540    3.5984
   33.555    3.3000
   33.570    3.5984
   33.585    3.5282
   33.600    3.3351
   33.615    3.5633
   33.630    3.7037
   33.645    3.9494
   33.660    3.6510
   33.675    3.4053
   33.690    3.5106
   33.705    3.7564
   33.720    3.5984
   33.735    3.2649
   33.750    3.7564
   33.765    3.5633
   33.780    3.5633
   33.795    3.7564
   33.810    3.5984
   33.825    3.4404
   33.840    3.2824
   33.855    3.4755
   33.870    3.7388
   33.885    3.4755
   33.900    3.5457
   33.915    3.6159
   33.930    3.5457
   33.945    3.5808
   33.960    3.5633
   33.975    3.9143
   33.990    3.7213
   34.005    3.8792
   34.020    3.6510
   34.035    3.6510
   34.050    3.5984
   34.065    3.8617
   34.080    3.7739
   34.095    3.9143
   34.110    3.2473
   34.125    3.4053
   34.140    3.4580
   34.155    3.7388
   34.170    3.3000
   34.185    3.2473
   34.200    3.2649
   34.215    3.3351
   34.230    3.3877
   34.245    3.6159
   34.260    3.9494
   34.275    3.1596
   34.290    3.2649
   34.305    3.4755
   34.320    3.7388
   34.335    3.6335
   34.350    3.9846
   34.365    3.8090
   34.380    3.7037
   34.395    3.5984
   34.410    3.7037
   34.425    3.1420
   34.440    3.6510
   34.455    3.5808
   34.470    3.7213
   34.485    3.4404
   34.500    3.4931
   34.515    3.3175
   34.530    3.4755
   34.545    3.6335
   34.560    3.5633
   34.575    3.3702
   34.590    3.4580
   34.605    3.5633
   34.620    3.3526
   34.635    3.5106
   34.650    3.8090
   34.665    3.5633
   34.680    3.4931
   34.695    3.5633
   34.710    3.4580
   34.725    3.6686
   34.740    3.8968
   34.755    3.3702
   34.770    3.4931
   34.785    3.0893
   34.800    3.1596
   34.815    3.4053
   34.830    3.7213
   34.845    3.7037
   34.860    3.5457
   34.875    3.6335
   34.890    3.6686
   34.905    3.5633
   34.920    3.3877
   34.935    3.6686
   34.950    3.5457
   34.965    3.4580
   34.980    3.5633
   34.995    3.4053
   35.010    3.4229
   35.025    3.4229
   35.040    3.6159
   35.055    3.8266
   35.070    3.7037
   35.085    3.8792
   35.100    3.5282
   35.115    3.5808
   35.130    3.4404
   35.145    3.4580
   35.160    3.6686
   35.175    3.4053
   35.190    3.3000
   35.205    3.6159
   35.220    3.7037
   35.235    3.5282
   35.250    3.6510
   35.265    3.2649
   35.280    3.4053
   35.295    3.6686
   35.310    3.4053
   35.325    3.3351
   35.340    3.4053
   35.355    3.0542
   35.370    3.2824
   35.385    3.3000
   35.400    3.3702
   35.415    3.4755
   35.430    3.1069
   35.445    3.4580
   35.460    3.6510
   35.475    3.8968
   35.490    3.3351
   35.505    3.2473
   35.520    3.5808
   35.535    3.5808
   35.550    3.6510
   35.565    3.7213
   35.580    3.6335
   35.595    3.1069
   35.610    3.5457
   35.625    3.5984
   35.640    3.5633
   35.655    3.4053
   35.670    3.4931
   35.685    3.4404
   35.700    3.1771
   35.715    3.1947
   35.730    3.6862
   35.745    3.6686
   35.760    3.6335
   35.775    3.2824
   35.790    3.0893
   35.805    3.1771
   35.820    3.1771
   35.835    3.6159
   35.850    3.3526
   35.865    3.1596
   35.880    3.3351
   35.895    3.6335
   35.910    3.5457
   35.925    3.7915
   35.940    3.3702
   35.955    3.2824
   35.970    3.4229
   35.985    3.0542
   36.000    3.2473
   36.015    3.4755
   36.030    3.3351
   36.045    3.4404
   36.060    3.4580
   36.075    2.9314
   36.090    3.1420
   36.105    3.5457
   36.120    3.8441
   36.135    3.1596
   36.150    3.3702
   36.165    3.4755
   36.180    3.3175
   36.195    3.3877
   36.210    3.3175
   36.225    3.6335
   36.240    3.5633
   36.255    3.3351
   36.270    3.3175
   36.285    3.5457
   36.300    3.6159
   36.315    3.6686
   36.330    3.4931
   36.345    3.1947
   36.360    3.5984
   36.375    3.4755
   36.390    3.2824
   36.405    3.3526
   36.420    3.4931
   36.435    3.5106
   36.450    3.5457
   36.465    3.5633
   36.480    3.4931
   36.495    3.4580
   36.510    3.1947
   36.525    3.3175
   36.540    3.1947
   36.555    3.2122
   36.570    3.4229
   36.585    3.6510
   36.600    3.3351
   36.615    3.2298
   36.630    3.4755
   36.645    3.5457
   36.660    3.3526
   36.675    3.3175
   36.690    2.9138
   36.705    3.3000
   36.720    3.2298
   36.735    3.1771
   36.750    3.4755
   36.765    3.5984
   36.780    3.5282
   36.795    3.4580
   36.810    3.5457
   36.825    3.4931
   36.840    3.5106
   36.855    3.4580
   36.870    3.1771
   36.885    3.6335
   36.900    3.5984
   36.915    3.3000
   36.930    3.6335
   36.945    3.1069
   36.960    3.1771
   36.975    3.1245
   36.990    3.3000
   37.005    3.4404
   37.020    3.3000
   37.035    3.3175
   37.050    3.4931
   37.065    3.4931
   37.080    3.1069
   37.095    2.8612
   37.110    3.1245
   37.125    2.9840
   37.140    3.2122
   37.155    3.2298
   37.170    3.1771
   37.185    3.2649
   37.200    3.6862
   37.215    3.9319
   37.230    3.4053
   37.245    3.2298
   37.260    3.4053
   37.275    3.3702
   37.290    3.3175
   37.305    3.2649
   37.320    3.2824
   37.335    3.6686
   37.350    3.1771
   37.365    3.3526
   37.380    3.6159
   37.395    3.4580
   37.410    3.3877
   37.425    3.2298
   37.440    3.3526
   37.455    3.2473
   37.470    3.3351
   37.485    3.1420
   37.500    3.3000
   37.515    3.5457
   37.530    3.3175
   37.545    3.1069
   37.560    2.9665
   37.575    3.3877
   37.590    3.3702
   37.605    3.1420
   37.620    2.9840
   37.635    3.3877
   37.650    3.3877
   37.665    3.3351
   37.680    3.4404
   37.695    3.1947
   37.710    3.4404
   37.725    3.2298
   37.740    3.3526
   37.755    3.4404
   37.770    3.1596
   37.785    3.3526
   37.800    3.2824
   37.815    3.2649
   37.830    3.1947
   37.845    3.4053
   37.860    3.4755
   37.875    3.4404
   37.890    3.0191
   37.905    2.8787
   37.920    3.2122
   37.935    3.4404
   37.950    3.2298
   37.965    3.1596
   37.980    2.9840
   37.995    3.2122
   38.010    3.2473
   38.025    3.3526
   38.040    3.3526
   38.055    3.5282
   38.070    3.5633
   38.085    3.4053
   38.100    3.2649
   38.115    3.0893
   38.130    3.6335
   38.145    3.0367
   38.160    3.2473
   38.175    3.7037
   38.190    3.2649
   38.205    3.4404
   38.220    3.2649
   38.235    3.6335
   38.250    3.5106
   38.265    3.4931
   38.280    3.2473
   38.295    3.4580
   38.310    3.2473
   38.325    3.2824
   38.340    2.7207
   38.355    2.9665
   38.370    3.5808
   38.385    3.5282
   38.400    3.3351
   38.415    3.3000
   38.430    3.1771
   38.445    3.1596
   38.460    3.3526
   38.475    3.1947
   38.490    3.4580
   38.505    3.4053
   38.520    3.2298
   38.535    3.2122
   38.550    2.9840
   38.565    3.8090
   38.580    3.6510
   38.595    3.4931
   38.610    3.1771
   38.625    3.2824
   38.640    3.8792
   38.655    3.5633
   38.670    3.1069
   38.685    3.6335
   38.700    3.8441
   38.715    3.4229
   38.730    2.8787
   38.745    3.4053
   38.760    3.3702
   38.775    3.4229
   38.790    3.3351
   38.805    3.3175
   38.820    3.3702
   38.835    3.8441
   38.850    3.3351
   38.865    3.0718
   38.880    3.2298
   38.895    3.1947
   38.910    3.5808
   38.925    3.7388
   38.940    3.3526
   38.955    3.3526
   38.970    3.5106
   38.985    3.4580
   39.000    3.1771
   39.015    3.1596
   39.030    3.4053
   39.045    3.3175
   39.060    3.4580
   39.075    3.1771
   39.090    3.2122
   39.105    3.0893
   39.120    3.2824
   39.135    3.0718
   39.150    3.5633
   39.165    3.2824
   39.180    3.1069
   39.195    3.3175
   39.210    3.2824
   39.225    3.4931
   39.240    3.1596
   39.255    3.4931
   39.270    3.4404
   39.285    3.2649
   39.300    3.0893
   39.315    3.1069
   39.330    3.0893
   39.345    3.3526
   39.360    3.3877
   39.375    3.4404
   39.390    3.4053
   39.405    3.2298
   39.420    3.3877
   39.435    3.7739
   39.450    3.4931
   39.465    3.3175
   39.480    3.0016
   39.495    3.2298
   39.510    3.5808
   39.525    3.6510
   39.540    3.3526
   39.555    3.3351
   39.570    3.0718
   39.585    2.9138
   39.600    3.5282
   39.615    3.1947
   39.630    3.5106
   39.645    3.4053
   39.660    3.3702
   39.675    3.1947
   39.690    3.2298
   39.705    2.9665
   39.720    3.5633
   39.735    3.4404
   39.750    3.1069
   39.765    2.9138
   39.780    3.0718
   39.795    3.2824
   39.810    3.3526
   39.825    3.6686
   39.840    3.4229
   39.855    3.5984
   39.870    3.6159
   39.885    3.3526
   39.900    3.4755
   39.915    3.2473
   39.930    3.3175
   39.945    3.3702
   39.960    3.4229
   39.975    3.3351
   39.990    3.1596
   40.005    3.0542
   40.020    3.1245
   40.035    3.0542
   40.050    3.0542
   40.065    2.9840
   40.080    3.3175
   40.095    3.5633
   40.110    3.1420
   40.125    3.4580
   40.140    3.5106
   40.155    3.2649
   40.170    3.4404
   40.185    3.5808
   40.200    3.6510
   40.215    3.0542
   40.230    3.3702
   40.245    3.1771
   40.260    3.4229
   40.275    2.9489
   40.290    3.3526
   40.305    3.5106
   40.320    3.2649
   40.335    3.1771
   40.350    3.0191
   40.365    3.0367
   40.380    2.9665
   40.395    3.2824
   40.410    3.3877
   40.425    3.3351
   40.440    3.3877
   40.455    3.3702
   40.470    3.0542
   40.485    3.2122
   40.500    3.1947
   40.515    2.8612
   40.530    3.3526
   40.545    3.4931
   40.560    3.1771
   40.575    3.1947
   40.590    3.3877
   40.605    3.2298
   40.620    3.2122
   40.635    3.1069
   40.650    3.3526
   40.665    3.1596
   40.680    2.8787
   40.695    2.8787
   40.710    3.3702
   40.725    3.2298
   40.740    3.0191
   40.755    3.4755
   40.770    3.3702
   40.785    3.3175
   40.800    3.3000
   40.815    3.1420
   40.830    3.1947
   40.845    3.3351
   40.860    3.1069
   40.875    3.1596
   40.890    3.5633
   40.905    3.5984
   40.920    3.0718
   40.935    2.9489
   40.950    3.0542
   40.965    3.0016
   40.980    3.4404
   40.995    3.2649
   41.010    3.3877
   41.025    3.2649
   41.040    3.0893
   41.055    3.2649
   41.070    3.1420
   41.085    3.3877
   41.100    3.3175
   41.115    3.4404
   41.130    2.8787
   41.145    3.2824
   41.160    3.2473
   41.175    3.3526
   41.190    3.2824
   41.205    3.2298
   41.220    3.0893
   41.235    3.0191
   41.250    2.9665
   41.265    2.9489
   41.280    3.2473
   41.295    3.0367
   41.310    3.4229
   41.325    3.2122
   41.340    3.4931
   41.355    3.5984
   41.370    3.5633
   41.385    3.2649
   41.400    3.2824
   41.415    3.2473
   41.430    3.3702
   41.445    2.9665
   41.460    3.2649
   41.475    3.4229
   41.490    3.1947
   41.505    3.3877
   41.520    3.4404
   41.535    3.3702
   41.550    3.0016
   41.565    3.1420
   41.580    3.0893
   41.595    3.1947
   41.610    3.2824
   41.625    3.6159
   41.640    3.3702
   41.655    3.3175
   41.670    3.2298
   41.685    2.9665
   41.700    3.4229
   41.715    3.4580
   41.730    3.3526
   41.745    3.3351
   41.760    3.0367
   41.775    3.0893
   41.790    3.1420
   41.805    3.0367
   41.820    3.2122
   41.835    3.2649
   41.850    3.1069
   41.865    3.1771
   41.880    3.1245
   41.895    3.2649
   41.910    3.3702
   41.925    3.6510
   41.940    2.7909
   41.955    3.2473
   41.970    3.1069
   41.985    3.2122
   42.000    3.0191
   42.015    3.0367
   42.030    3.4931
   42.045    3.4053
   42.060    2.9665
   42.075    3.0542
   42.090    3.1596
   42.105    3.0718
   42.120    3.2824
   42.135    3.2298
   42.150    2.8963
   42.165    2.8612
   42.180    3.1771
   42.195    2.8085
   42.210    3.1069
   42.225    3.2298
   42.240    3.4053
   42.255    3.3000
   42.270    3.4755
   42.285    3.4404
   42.300    3.2298
   42.315    3.1245
   42.330    3.0893
   42.345    3.3702
   42.360    3.5282
   42.375    3.5457
   42.390    3.3351
   42.405    2.8085
   42.420    3.2122
   42.435    3.1069
   42.450    3.1420
   42.465    3.2473
   42.480    3.3351
   42.495    3.2122
   42.510    3.5282
   42.525    3.4931
   42.540    3.5106
   42.555    3.3877
   42.570    3.3526
   42.585    3.3526
   42.600    3.0542
   42.615    3.0542
   42.630    3.1947
   42.645    3.1069
   42.660    3.0367
   42.675    3.1947
   42.690    3.0893
   42.705    3.2122
   42.720    3.0367
   42.735    3.3702
   42.750    3.2473
   42.765    3.4229
   42.780    3.2473
   42.795    3.0718
   42.810    3.4755
   42.825    3.3351
   42.840    3.1947
   42.855    2.9840
   42.870    2.9138
   42.885    3.4229
   42.900    3.2298
   42.915    3.4755
   42.930    3.2122
   42.945    3.2473
   42.960    3.2473
   42.975    3.1069
   42.990    3.3526
   43.005    3.1245
   43.020    3.0542
   43.035    3.2298
   43.050    3.0893
   43.065    3.1069
   43.080    3.1771
   43.095    3.4053
   43.110    3.3000
   43.125    2.9138
   43.140    3.1771
   43.155    3.0542
   43.170    2.9665
   43.185    3.5457
   43.200    3.4053
   43.215    3.1596
   43.230    2.8260
   43.245    3.1420
   43.260    3.0893
   43.275    3.3702
   43.290    3.3351
   43.305    3.0367
   43.320    3.2473
   43.335    3.5457
   43.350    3.3351
   43.365    3.2473
   43.380    3.1069
   43.395    3.3526
   43.410    3.1245
   43.425    3.5282
   43.440    3.4229
   43.455    3.0542
   43.470    2.9665
   43.485    3.4580
   43.500    3.3702
   43.515    3.2122
   43.530    3.1069
   43.545    3.1069
   43.560    3.2298
   43.575    2.7909
   43.590    3.1771
   43.605    3.3702
   43.620    3.3000
   43.635    3.0542
   43.650    3.1947
   43.665    3.4580
   43.680    3.2649
   43.695    3.0542
   43.710    3.5106
   43.725    3.1245
   43.740    3.3702
   43.755    2.9665
   43.770    3.3877
   43.785    3.3175
   43.800    3.1596
   43.815    3.1420
   43.830    3.1245
   43.845    3.1596
   43.860    3.4404
   43.875    3.4229
   43.890    3.4580
   43.905    3.5808
   43.920    3.2473
   43.935    3.2473
   43.950    3.0367
   43.965    3.4404
   43.980    3.2473
   43.995    3.4580
   44.010    3.4404
   44.025    3.0191
   44.040    2.8085
   44.055    3.1069
   44.070    3.5457
   44.085    3.4755
   44.100    3.7388
   44.115    3.1596
   44.130    3.0191
   44.145    3.1947
   44.160    3.0893
   44.175    2.8260
   44.190    3.1245
   44.205    3.2473
   44.220    3.2649
   44.235    3.3877
   44.250    3.0718
   44.265    3.3526
   44.280    3.3526
   44.295    2.9138
   44.310    3.3877
   44.325    3.3702
   44.340    3.2473
   44.355    3.0016
   44.370    2.9314
   44.385    3.1771
   44.400    3.3877
   44.415    3.3877
   44.430    2.9489
   44.445    2.8787
   44.460    3.1420
   44.475    2.7207
   44.490    3.0893
   44.505    3.0718
   44.520    3.2473
   44.535    3.2824
   44.550    3.2473
   44.565    2.9840
   44.580    3.0016
   44.595    3.0893
   44.610    3.3000
   44.625    2.9138
   44.640    3.0191
   44.655    3.0718
   44.670    3.2298
   44.685    3.4931
   44.700    2.8963
   44.715    3.2473
   44.730    3.4053
   44.745    3.3526
   44.760    3.1596
   44.775    3.2473
   44.790    3.3175
   44.805    3.3000
   44.820    3.2824
   44.835    3.1245
   44.850    3.3351
   44.865    3.1596
   44.880    2.9314
   44.895    3.2298
   44.910    3.1947
   44.925    2.9489
   44.940    2.9840
   44.955    3.2473
   44.970    3.2122
   44.985    3.0016
   45.000    3.1771
   45.015    3.0718
   45.030    3.2122
   45.045    3.1245
   45.060    3.1069
   45.075    2.9138
   45.090    3.4229
   45.105    3.1245
   45.120    2.9138
   45.135    2.9665
   45.150    3.0542
   45.165    3.3175
   45.180    3.1947
   45.195    3.2122
   45.210    3.2298
   45.225    2.9840
   45.240    3.1771
   45.255    3.3000
   45.270    3.2298
   45.285    3.3175
   45.300    2.8260
   45.315    2.9665
   45.330    3.3175
   45.345    3.2473
   45.360    3.4580
   45.375    2.9138
   45.390    2.9840
   45.405    3.1069
   45.420    3.0191
   45.435    3.0191
   45.450    3.1245
   45.465    3.1771
   45.480    3.3175
   45.495    3.0016
   45.510    3.2473
   45.525    3.5106
   45.540    3.5457
   45.555    3.5282
   45.570    3.2122
   45.585    3.1771
   45.600    3.4229
   45.615    2.8787
   45.630    2.7909
   45.645    2.7383
   45.660    3.0542
   45.675    3.4580
   45.690    3.3526
   45.705    2.9840
   45.720    3.1069
   45.735    3.3351
   45.750    3.2649
   45.765    3.4404
   45.780    2.5101
   45.795    2.7207
   45.810    3.0718
   45.825    3.1245
   45.840    2.8787
   45.855    3.5457
   45.870    3.3000
   45.885    3.0542
   45.900    3.2824
   45.915    3.3702
   45.930    3.2824
   45.945    3.2649
   45.960    3.1245
   45.975    3.1596
   45.990    2.9489
   46.005    2.7558
   46.020    3.0367
   46.035    3.1069
   46.050    3.2473
   46.065    3.2122
   46.080    3.2122
   46.095    3.2298
   46.110    3.4580
   46.125    2.9840
   46.140    3.0718
   46.155    3.1947
   46.170    3.1771
   46.185    3.0718
   46.200    3.1069
   46.215    2.9489
   46.230    3.0718
   46.245    3.5106
   46.260    3.2298
   46.275    3.1771
   46.290    3.1245
   46.305    2.9314
   46.320    3.2298
   46.335    3.3000
   46.350    2.9314
   46.365    3.1245
   46.380    3.3702
   46.395    3.1420
   46.410    2.9665
   46.425    3.3175
   46.440    3.0893
   46.455    2.6154
   46.470    3.0893
   46.485    3.1069
   46.500    3.0893
   46.515    3.1245
   46.530    2.8612
   46.545    2.8085
   46.560    3.2473
   46.575    3.1420
   46.590    2.8612
   46.605    3.2649
   46.620    2.9840
   46.635    3.1947
   46.650    3.1069
   46.665    2.9840
   46.680    2.9489
   46.695    2.9840
   46.710    2.9489
   46.725    3.1771
   46.740    2.9489
   46.755    2.9138
   46.770    3.0016
   46.785    3.1420
   46.800    3.1771
   46.815    3.2473
   46.830    3.2298
   46.845    3.1245
   46.860    2.9314
   46.875    3.1245
   46.890    3.1420
   46.905    3.2473
   46.920    3.1069
   46.935    3.0367
   46.950    2.9138
   46.965    2.8787
   46.980    3.1947
   46.995    3.0016
   47.010    2.8612
   47.025    3.0191
   47.040    2.9489
   47.055    3.1420
   47.070    3.0191
   47.085    2.9665
   47.100    2.8260
   47.115    3.0718
   47.130    3.1596
   47.145    3.3526
   47.160    3.3000
   47.175    3.1420
   47.190    3.0191
   47.205    3.3702
   47.220    3.4755
   47.235    3.3000
   47.250    3.1420
   47.265    3.0893
   47.280    3.1947
   47.295    2.8260
   47.310    2.9489
   47.325    3.2473
   47.340    3.1596
   47.355    2.8612
   47.370    3.1596
   47.385    3.2298
   47.400    3.2298
   47.415    2.8436
   47.430    3.2298
   47.445    3.1069
   47.460    3.3351
   47.475    3.0367
   47.490    3.0893
   47.505    3.1596
   47.520    2.8436
   47.535    3.1947
   47.550    3.1420
   47.565    3.0893
   47.580    3.4755
   47.595    3.0367
   47.610    2.5276
   47.625    2.7207
   47.640    3.2824
   47.655    2.9138
   47.670    2.7734
   47.685    3.0367
   47.700    3.1069
   47.715    3.3175
   47.730    3.4755
   47.745    3.1771
   47.760    2.7207
   47.775    3.0016
   47.790    2.8963
   47.805    2.8085
   47.820    3.2824
   47.835    3.0367
   47.850    2.8436
   47.865    2.9138
   47.880    3.5282
   47.895    3.1947
   47.910    3.1771
   47.925    3.0542
   47.940    2.9314
   47.955    2.8436
   47.970    3.1245
   47.985    3.1771
   48.000    3.0893
   48.015    3.2298
   48.030    3.2122
   48.045    3.3175
   48.060    2.8963
   48.075    2.8260
   48.090    3.0016
   48.105    3.2473
   48.120    2.8260
   48.135    3.1771
   48.150    3.3000
   48.165    3.1596
   48.180    3.3526
   48.195    3.1596
   48.210    3.0191
   48.225    3.1069
   48.240    2.8436
   48.255    3.1420
   48.270    3.0191
   48.285    2.9840
   48.300    2.7383
   48.315    3.0542
   48.330    3.0016
   48.345    2.8787
   48.360    2.9489
   48.375    3.4755
   48.390    3.0893
   48.405    2.8963
   48.420    2.9840
   48.435    2.9314
   48.450    3.0718
   48.465    3.3526
   48.480    3.3351
   48.495    3.1069
   48.510    2.8787
   48.525    3.1069
   48.540    2.8085
   48.555    2.7734
   48.570    3.1069
   48.585    2.9138
   48.600    3.1245
   48.615    2.8963
   48.630    2.9665
   48.645    2.9314
   48.660    3.1069
   48.675    3.0542
   48.690    2.8436
   48.705    2.9314
   48.720    3.1420
   48.735    3.0191
   48.750    2.9489
   48.765    3.0367
   48.780    2.9489
   48.795    2.6681
   48.810    3.1947
   48.825    3.4931
   48.840    2.8260
   48.855    2.7558
   48.870    3.1069
   48.885    3.2649
   48.900    3.1069
   48.915    3.1245
   48.930    2.9665
   48.945    3.2824
   48.960    2.8963
   48.975    2.9489
   48.990    3.2122
   49.005    3.0542
   49.020    2.7734
   49.035    2.8963
   49.050    2.9138
   49.065    2.8787
   49.080    2.9489
   49.095    3.0718
   49.110    3.1596
   49.125    2.8787
   49.140    3.2298
   49.155    3.0367
   49.170    2.9665
   49.185    3.0893
   49.200    2.9138
   49.215    3.0542
   49.230    3.0191
   49.245    3.0016
   49.260    2.9138
   49.275    2.7383
   49.290    2.5452
   49.305    2.8963
   49.320    2.8436
   49.335    2.6856
   49.350    2.8787
   49.365    3.1069
   49.380    3.0718
   49.395    3.2122
   49.410    3.1420
   49.425    3.1947
   49.440    2.5979
   49.455    3.0191
   49.470    3.1596
   49.485    3.1420
   49.500    3.1947
   49.515    2.9665
   49.530    3.0893
   49.545    3.1596
   49.560    2.8963
   49.575    2.8612
   49.590    2.9489
   49.605    3.0718
   49.620    3.2122
   49.635    2.6330
   49.650    2.9489
   49.665    2.9489
   49.680    2.8963
   49.695    2.8260
   49.710    2.7207
   49.725    3.0718
   49.740    3.1069
   49.755    3.3000
   49.770    2.7032
   49.785    2.9489
   49.800    3.0893
   49.815    3.1069
   49.830    3.0191
   49.845    3.1420
   49.860    3.1245
   49.875    3.2824
   49.890    3.3000
   49.905    3.0893
   49.920    3.0542
   49.935    3.0367
   49.950    2.9314
   49.965    3.0542
   49.980    3.0718
