    1.500    3.6862
    1.515    3.7213
    1.530    3.6686
    1.545    3.5808
    1.560    3.0718
    1.575    2.8787
    1.590    3.2473
    1.605    3.4404
    1.620    3.3175
    1.635    3.3702
    1.650    3.0893
    1.665    2.9840
    1.680    3.2824
    1.695    3.3000
    1.710    3.4931
    1.725    3.0191
    1.740    3.1069
    1.755    3.1069
    1.770    3.2824
    1.785    2.7558
    1.800    2.7207
    1.815    3.0016
    1.830    2.8436
    1.845    3.0367
    1.860    2.8787
    1.875    2.8612
    1.890    2.7558
    1.905    2.8436
    1.920    2.7734
    1.935    2.7207
    1.950    2.7032
    1.965    2.7734
    1.980    2.9138
    1.995    2.8787
    2.010    2.5276
    2.025    2.6154
    2.040    2.4574
    2.055    2.3697
    2.070    2.2292
    2.085    2.5803
    2.100    2.5101
    2.115    2.4925
    2.130    2.2995
    2.145    2.5276
    2.160    2.5101
    2.175    2.4048
    2.190    2.4750
    2.205    2.4574
    2.220    2.4574
    2.235    2.2819
    2.250    2.3521
    2.265    2.5276
    2.280    2.4399
    2.295    2.2819
    2.310    2.2643
    2.325    2.2292
    2.340    2.4574
    2.355    2.4048
    2.370    2.0362
    2.385    2.0537
    2.400    2.1766
    2.415    1.8431
    2.430    1.7378
    2.445    1.9133
    2.460    2.0011
    2.475    2.0888
    2.490    2.0888
    2.505    1.9659
    2.520    2.3697
    2.535    2.1064
    2.550    1.9659
    2.565    2.0888
    2.580    2.1064
    2.595    2.1064
    2.610    2.0362
    2.625    2.2117
    2.640    1.9835
    2.655    2.2292
    2.670    1.7904
    2.685    2.0362
    2.700    2.0362
    2.715    1.9659
    2.730    2.1415
    2.745    2.2117
    2.760    1.9133
    2.775    1.7729
    2.790    2.0362
    2.805    2.0362
    2.820    2.0713
    2.835    2.1766
    2.850    1.9133
    2.865    1.8606
    2.880    1.9659
    2.895    2.1766
    2.910    2.0713
    2.925    2.2643
    2.940    2.2292
    2.955    2.4750
    2.970    2.1239
    2.985    2.4223
    3.000    2.4750
    3.015    2.3521
    3.030    2.7558
    3.045    2.3346
    3.060    2.2819
    3.075    2.1590
    3.090    2.4574
    3.105    2.7032
    3.120    3.2298
    3.135    2.8085
    3.150    3.0367
    3.165    2.9314
    3.180    3.0367
    3.195    2.9138
    3.210    3.0191
    3.225    3.1420
    3.240    3.1596
    3.255    3.3175
    3.270    3.6510
    3.285    4.2478
    3.300    3.8968
    3.315    3.9846
    3.330    4.0548
    3.345    3.9319
    3.360    4.3005
    3.375    5.0904
    3.390    5.0904
    3.405    5.7925
    3.420    5.7925
    3.435    5.6521
    3.450    5.9681
    3.465    6.4771
    3.480    6.9510
    3.495    7.5654
    3.510    8.3553
    3.525    8.0569
    3.540    8.8292
    3.555    9.5313
    3.570    9.6718
    3.585   10.3037
    3.600   11.5850
    3.615   10.8654
    3.630   12.4803
    3.645   13.1473
    3.660   13.8494
    3.675   15.0430
    3.690   16.8510
    3.705   18.3605
    3.720   19.7648
    3.735   21.8185
    3.750   23.9775
    3.765   27.4530
    3.780   33.0700
    3.795   37.6689
    3.810   44.9535
    3.825   53.5896
    3.840   53.2737
    3.855   45.1641
    3.870   34.8780
    3.885   23.2754
    3.900   13.5861
    3.915    7.2845
    3.930    4.6340
    3.945    3.1420
    3.960    2.7207
    3.975    2.5452
    3.990    2.2995
    4.005    2.1064
    4.020    2.0713
    4.035    1.8255
    4.050    1.7027
    4.065    1.7904
    4.080    1.8080
    4.095    1.9308
    4.110    1.8255
    4.125    1.5798
    4.140    1.6149
    4.155    1.4920
    4.170    1.6149
    4.185    1.4218
    4.200    1.5798
    4.215    1.4218
    4.230    1.5447
    4.245    1.6500
    4.260    1.5096
    4.275    1.5096
    4.290    1.6149
    4.305    1.6851
    4.320    1.5447
    4.335    1.4920
    4.350    1.7027
    4.365    1.4920
    4.380    1.4394
    4.395    1.5447
    4.410    1.3691
    4.425    1.3691
    4.440    1.3691
    4.455    1.4218
    4.470    1.5096
    4.485    1.4569
    4.500    1.5271
    4.515    1.8255
    4.530    1.6500
    4.545    1.6500
    4.560    1.3691
    4.575    1.3867
    4.590    1.4218
    4.605    1.3516
    4.620    1.1234
    4.635    1.6675
    4.650    1.5973
    4.665    1.3867
    4.680    1.7027
    4.695    1.6675
    4.710    1.5798
    4.725    1.4042
    4.740    1.3867
    4.755    1.4920
    4.770    1.3867
    4.785    1.4745
    4.800    1.6675
    4.815    1.5447
    4.830    1.7027
    4.845    1.7027
    4.860    1.7378
    4.875    1.9308
    4.890    1.7202
    4.905    1.4218
    4.920    1.2814
    4.935    1.4042
    4.950    1.8255
    4.965    1.9308
    4.980    1.8255
    4.995    1.8255
    5.010    2.0011
    5.025    1.9484
    5.040    2.1239
    5.055    1.9835
    5.070    2.3170
    5.085    2.4925
    5.100    2.4223
    5.115    2.2117
    5.130    2.7909
    5.145    2.7909
    5.160    2.8612
    5.175    3.1245
    5.190    3.0542
    5.205    3.4755
    5.220    3.6686
    5.235    3.8792
    5.250    4.3356
    5.265    4.6691
    5.280    5.0904
    5.295    4.9324
    5.310    5.4239
    5.325    5.7750
    5.340    6.3367
    5.355    6.7755
    5.370    7.9867
    5.385    9.6015
    5.400   10.8303
    5.415   12.2170
    5.430   14.6744
    5.445   18.1148
    5.460   18.1499
    5.475   15.2712
    5.490   11.4622
    5.505    8.6888
    5.520    5.5643
    5.535    3.5633
    5.550    2.3521
    5.565    2.0186
    5.580    1.9835
    5.595    1.5271
    5.610    1.3165
    5.625    1.7027
    5.640    1.5447
    5.655    1.6149
    5.670    1.6149
    5.685    1.5096
    5.700    1.2989
    5.715    1.3165
    5.730    1.5622
    5.745    1.5973
    5.760    1.5622
    5.775    1.5622
    5.790    1.5096
    5.805    1.3165
    5.820    1.1761
    5.835    1.3691
    5.850    1.4394
    5.865    1.3867
    5.880    1.3165
    5.895    1.4569
    5.910    1.2638
    5.925    1.2638
    5.940    1.0883
    5.955    1.4394
    5.970    1.2287
    5.985    1.3516
    6.000    1.4394
    6.015    1.2287
    6.030    1.1936
    6.045    1.3691
    6.060    1.4569
    6.075    1.4569
    6.090    1.3165
    6.105    1.4042
    6.120    1.4745
    6.135    1.5622
    6.150    1.3165
    6.165    1.4042
    6.180    1.3516
    6.195    1.1058
    6.210    1.2112
    6.225    1.3340
    6.240    1.3691
    6.255    1.2463
    6.270    1.5096
    6.285    1.5096
    6.300    1.4920
    6.315    1.4394
    6.330    1.3340
    6.345    1.7202
    6.360    1.7202
    6.375    1.7553
    6.390    1.5271
    6.405    1.7202
    6.420    1.6500
    6.435    1.5973
    6.450    1.7202
    6.465    1.9484
    6.480    1.5271
    6.495    1.8782
    6.510    2.0011
    6.525    2.1590
    6.540    2.3346
    6.555    2.2819
    6.570    2.0011
    6.585    2.2643
    6.600    2.5452
    6.615    2.5803
    6.630    3.3000
    6.645    3.5282
    6.660    4.2303
    6.675    4.7920
    6.690    5.4941
    6.705    5.7048
    6.720    4.9149
    6.735    4.0021
    6.750    2.7383
    6.765    2.3872
    6.780    1.7378
    6.795    1.4745
    6.810    1.4745
    6.825    1.3165
    6.840    1.3516
    6.855    1.4920
    6.870    1.1936
    6.885    1.3165
    6.900    1.3691
    6.915    1.3691
    6.930    1.1585
    6.945    1.2112
    6.960    1.2989
    6.975    1.3516
    6.990    1.2287
    7.005    1.3691
    7.020    1.2814
    7.035    1.4218
    7.050    1.3516
    7.065    1.5798
    7.080    1.4569
    7.095    1.4569
    7.110    1.1761
    7.125    1.3165
    7.140    1.4394
    7.155    1.4394
    7.170    1.4569
    7.185    1.3165
    7.200    1.4042
    7.215    1.2814
    7.230    1.2463
    7.245    1.2463
    7.260    1.3340
    7.275    1.3165
    7.290    1.3867
    7.305    1.0883
    7.320    1.3340
    7.335    1.4218
    7.350    1.6324
    7.365    1.3691
    7.380    1.6500
    7.395    1.4745
    7.410    1.2989
    7.425    1.2989
    7.440    1.3516
    7.455    1.5973
    7.470    1.4745
    7.485    1.4042
    7.500    1.5096
    7.515    1.6149
    7.530    1.6675
    7.545    1.8782
    7.560    1.9308
    7.575    1.8080
    7.590    1.5973
    7.605    1.8606
    7.620    2.0011
    7.635    2.1941
    7.650    2.0888
    7.665    2.4223
    7.680    2.9314
    7.695    3.2298
    7.710    3.8266
    7.725    4.4585
    7.740    5.0026
    7.755    5.1255
    7.770    4.2654
    7.785    3.4931
    7.800    2.7032
    7.815    2.2643
    7.830    1.8080
    7.845    1.5096
    7.860    1.4920
    7.875    1.2989
    7.890    1.1936
    7.905    1.2989
    7.920    1.3867
    7.935    1.4042
    7.950    1.2989
    7.965    1.3340
    7.980    1.2989
    7.995    1.3867
    8.010    1.3516
    8.025    1.2989
    8.040    1.3165
    8.055    1.3867
    8.070    1.4218
    8.085    1.5622
    8.100    1.1936
    8.115    1.3867
    8.130    1.1410
    8.145    1.2814
    8.160    1.3340
    8.175    1.2463
    8.190    1.2989
    8.205    1.2989
    8.220    1.2112
    8.235    1.2638
    8.250    1.1761
    8.265    1.2287
    8.280    1.1936
    8.295    1.6675
    8.310    1.2989
    8.325    1.1761
    8.340    1.0532
    8.355    1.2638
    8.370    1.3691
    8.385    1.1936
    8.400    1.2112
    8.415    1.4042
    8.430    1.3165
    8.445    1.2463
    8.460    1.1585
    8.475    1.1761
    8.490    1.2112
    8.505    1.4745
    8.520    1.4569
    8.535    1.2287
    8.550    1.2814
    8.565    1.4042
    8.580    1.3516
    8.595    1.4569
    8.610    1.4042
    8.625    1.4394
    8.640    1.7904
    8.655    1.7904
    8.670    2.0362
    8.685    1.7202
    8.700    1.6149
    8.715    1.5271
    8.730    1.4569
    8.745    1.3867
    8.760    1.2638
    8.775    1.2463
    8.790    1.3691
    8.805    1.1058
    8.820    1.4042
    8.835    1.0883
    8.850    1.3516
    8.865    1.3340
    8.880    1.5798
    8.895    1.1936
    8.910    1.3165
    8.925    1.3340
    8.940    1.3867
    8.955    1.3340
    8.970    1.2989
    8.985    1.2638
    9.000    1.3340
    9.015    1.1936
    9.030    1.2989
    9.045    1.2287
    9.060    1.4920
    9.075    1.2112
    9.090    1.0356
    9.105    1.2638
    9.120    1.3340
    9.135    1.2814
    9.150    1.4218
    9.165    1.4042
    9.180    1.4394
    9.195    1.2814
    9.210    1.2463
    9.225    1.3867
    9.240    1.5622
    9.255    1.3867
    9.270    1.4042
    9.285    1.5622
    9.300    1.5973
    9.315    1.7904
    9.330    1.9308
    9.345    1.9133
    9.360    2.4223
    9.375    2.2292
    9.390    2.2643
    9.405    2.6154
    9.420    3.0191
    9.435    3.7388
    9.450    3.9143
    9.465    5.3186
    9.480    6.3893
    9.495    7.3899
    9.510    8.1446
    9.525    6.9335
    9.540    5.8276
    9.555    4.4234
    9.570    3.2122
    9.585    2.1239
    9.600    1.8080
    9.615    1.3867
    9.630    1.4920
    9.645    1.2638
    9.660    1.2638
    9.675    1.1410
    9.690    1.2989
    9.705    1.3516
    9.720    1.1410
    9.735    1.2638
    9.750    1.0707
    9.765    1.2638
    9.780    1.2112
    9.795    1.0181
    9.810    1.0532
    9.825    1.2638
    9.840    1.1936
    9.855    1.1936
    9.870    1.1058
    9.885    1.2287
    9.900    1.3867
    9.915    1.4920
    9.930    1.3691
    9.945    1.3516
    9.960    1.2287
    9.975    1.3165
    9.990    1.2989
   10.005    1.3691
   10.020    1.4218
   10.035    1.0883
   10.050    1.2463
   10.065    1.0883
   10.080    1.3516
   10.095    1.4042
   10.110    1.4218
   10.125    1.4218
   10.140    1.6675
   10.155    1.5096
   10.170    1.7202
   10.185    2.1064
   10.200    1.9659
   10.215    2.1415
   10.230    2.1941
   10.245    2.8436
   10.260    3.2122
   10.275    3.2122
   10.290    3.2824
   10.305    2.6154
   10.320    2.6154
   10.335    2.1941
   10.350    1.5798
   10.365    1.2814
   10.380    1.4218
   10.395    1.2463
   10.410    1.2287
   10.425    1.0356
   10.440    1.4745
   10.455    1.3691
   10.470    1.1410
   10.485    1.2814
   10.500    1.1761
   10.515    1.2287
   10.530    1.2112
   10.545    1.1410
   10.560    1.0883
   10.575    1.2638
   10.590    1.2112
   10.605    1.1058
   10.620    1.2989
   10.635    1.4042
   10.650    1.0883
   10.665    1.1058
   10.680    1.0707
   10.695    1.2463
   10.710    1.2463
   10.725    1.1234
   10.740    1.2463
   10.755    1.3165
   10.770    1.0532
   10.785    1.2814
   10.800    1.4042
   10.815    1.3516
   10.830    1.3516
   10.845    1.4745
   10.860    1.7202
   10.875    1.6675
   10.890    1.6500
   10.905    1.7729
   10.920    1.8782
   10.935    2.1766
   10.950    2.6330
   10.965    2.4574
   10.980    2.7032
   10.995    2.9665
   11.010    3.0718
   11.025    2.8436
   11.040    2.5452
   11.055    2.0888
   11.070    1.8431
   11.085    1.3516
   11.100    1.4920
   11.115    1.2112
   11.130    1.3867
   11.145    1.1058
   11.160    1.0883
   11.175    1.0707
   11.190    1.2112
   11.205    1.2989
   11.220    1.4218
   11.235    1.2287
   11.250    1.3691
   11.265    1.0707
   11.280    1.2638
   11.295    1.2989
   11.310    1.3691
   11.325    1.2989
   11.340    1.1936
   11.355    1.2463
   11.370    1.1936
   11.385    1.2112
   11.400    1.2112
   11.415    1.1936
   11.430    1.3516
   11.445    1.4042
   11.460    1.3516
   11.475    1.2814
   11.490    1.2112
   11.505    1.3340
   11.520    1.4920
   11.535    1.6675
   11.550    1.7202
   11.565    1.9659
   11.580    1.7027
   11.595    1.9133
   11.610    2.0537
   11.625    2.4574
   11.640    3.1069
   11.655    3.1069
   11.670    3.3702
   11.685    3.3175
   11.700    2.8436
   11.715    2.2117
   11.730    2.2117
   11.745    1.5096
   11.760    1.2638
   11.775    1.2112
   11.790    1.3165
   11.805    1.2463
   11.820    1.1234
   11.835    1.1761
   11.850    1.1761
   11.865    1.2814
   11.880    1.2112
   11.895    1.1410
   11.910    1.2287
   11.925    1.1058
   11.940    1.1585
   11.955    1.2638
   11.970    1.2287
   11.985    1.2112
   12.000    1.0356
   12.015    1.1761
   12.030    1.1585
   12.045    1.2287
   12.060    1.1234
   12.075    1.1936
   12.090    1.0356
   12.105    1.0532
   12.120    1.2112
   12.135    1.3516
   12.150    1.2638
   12.165    1.5271
   12.180    1.1761
   12.195    0.8952
   12.210    1.3340
   12.225    1.3691
   12.240    1.1585
   12.255    1.4218
   12.270    1.5447
   12.285    1.4745
   12.300    1.8080
   12.315    1.5447
   12.330    1.6324
   12.345    1.7027
   12.360    1.3516
   12.375    1.2638
   12.390    1.1936
   12.405    1.1410
   12.420    1.3165
   12.435    1.2814
   12.450    1.2463
   12.465    1.1234
   12.480    1.2112
   12.495    1.2463
   12.510    1.2638
   12.525    1.3691
   12.540    1.1585
   12.555    1.1761
   12.570    1.2638
   12.585    1.3691
   12.600    1.2638
   12.615    1.3165
   12.630    1.1234
   12.645    1.1761
   12.660    1.1234
   12.675    0.8777
   12.690    1.2463
   12.705    1.2112
   12.720    1.2112
   12.735    1.2989
   12.750    1.3340
   12.765    1.3516
   12.780    1.3691
   12.795    1.1585
   12.810    1.5096
   12.825    1.6500
   12.840    1.7027
   12.855    1.7202
   12.870    1.9484
   12.885    2.7207
   12.900    2.2468
   12.915    2.4048
   12.930    2.2292
   12.945    1.9133
   12.960    1.5447
   12.975    1.5447
   12.990    1.2638
   13.005    1.1585
   13.020    1.2463
   13.035    1.1761
   13.050    1.1936
   13.065    1.2814
   13.080    1.0707
   13.095    1.1234
   13.110    1.0356
   13.125    1.0005
   13.140    1.0883
   13.155    1.2463
   13.170    1.2287
   13.185    1.2112
   13.200    1.0532
   13.215    1.1234
   13.230    1.1410
   13.245    1.0883
   13.260    1.2814
   13.275    1.2638
   13.290    1.0532
   13.305    1.1234
   13.320    1.3340
   13.335    1.0707
   13.350    1.1761
   13.365    1.3340
   13.380    1.2463
   13.395    1.2814
   13.410    1.2814
   13.425    1.6149
   13.440    1.5447
   13.455    1.5096
   13.470    1.5973
   13.485    1.8606
   13.500    1.5622
   13.515    1.5622
   13.530    1.4920
   13.545    1.0181
   13.560    1.3165
   13.575    1.2814
   13.590    1.1410
   13.605    1.1936
   13.620    1.0005
   13.635    1.2989
   13.650    1.0883
   13.665    1.1761
   13.680    1.2287
   13.695    1.1936
   13.710    1.2112
   13.725    1.1936
   13.740    1.1761
   13.755    1.2463
   13.770    1.2112
   13.785    1.4042
   13.800    1.1936
   13.815    1.0005
   13.830    0.8777
   13.845    1.1585
   13.860    1.4394
   13.875    1.1234
   13.890    1.0532
   13.905    1.1585
   13.920    1.3516
   13.935    1.1410
   13.950    1.4569
   13.965    1.7202
   13.980    1.4745
   13.995    1.7378
   14.010    2.2117
   14.025    2.4399
   14.040    2.0362
   14.055    2.3170
   14.070    2.3872
   14.085    2.3346
   14.100    1.7553
   14.115    1.5447
   14.130    1.1585
   14.145    1.0181
   14.160    1.4042
   14.175    1.2814
   14.190    1.1234
   14.205    1.1585
   14.220    1.2814
   14.235    1.0532
   14.250    1.1058
   14.265    1.2112
   14.280    1.0181
   14.295    1.0181
   14.310    0.9303
   14.325    0.9128
   14.340    1.1234
   14.355    1.1936
   14.370    1.1410
   14.385    0.9830
   14.400    1.1761
   14.415    1.2112
   14.430    1.1058
   14.445    0.9303
   14.460    1.1410
   14.475    1.0532
   14.490    0.8601
   14.505    0.9830
   14.520    1.0356
   14.535    1.1058
   14.550    1.1410
   14.565    1.1410
   14.580    1.0883
   14.595    1.1410
   14.610    1.2112
   14.625    1.2287
   14.640    1.0707
   14.655    1.1058
   14.670    1.0181
   14.685    1.0532
   14.700    1.2814
   14.715    1.2638
   14.730    1.1761
   14.745    1.0356
   14.760    1.0356
   14.775    0.9303
   14.790    1.1585
   14.805    1.0883
   14.820    1.0532
   14.835    1.0883
   14.850    0.9479
   14.865    1.1058
   14.880    1.3165
   14.895    1.1936
   14.910    1.1936
   14.925    1.0883
   14.940    1.1234
   14.955    0.9654
   14.970    0.9654
   14.985    1.0356
   15.000    1.3691
   15.015    1.5271
   15.030    1.5096
   15.045    1.2463
   15.060    1.4042
   15.075    1.5271
   15.090    1.5271
   15.105    1.4042
   15.120    1.4042
   15.135    1.3165
   15.150    1.4042
   15.165    1.1058
   15.180    1.1234
   15.195    1.2638
   15.210    1.0181
   15.225    1.0356
   15.240    1.1936
   15.255    0.9128
   15.270    0.9654
   15.285    1.1234
   15.300    1.1761
   15.315    1.1936
   15.330    1.1058
   15.345    1.1410
   15.360    1.1058
   15.375    1.0005
   15.390    1.3340
   15.405    1.1410
   15.420    1.1234
   15.435    1.0707
   15.450    0.9128
   15.465    1.0883
   15.480    1.1058
   15.495    1.2638
   15.510    1.1761
   15.525    0.9654
   15.540    0.8952
   15.555    0.9128
   15.570    1.2112
   15.585    1.0883
   15.600    1.2112
   15.615    1.1058
   15.630    1.2112
   15.645    1.1234
   15.660    1.0707
   15.675    1.1585
   15.690    1.3691
   15.705    1.3340
   15.720    1.4218
   15.735    1.1585
   15.750    1.0532
   15.765    1.2112
   15.780    1.2463
   15.795    1.1761
   15.810    1.0532
   15.825    1.0356
   15.840    1.0532
   15.855    1.0181
   15.870    1.2638
   15.885    1.2638
   15.900    1.0883
   15.915    1.1585
   15.930    1.0707
   15.945    1.2287
   15.960    1.1410
   15.975    1.2989
   15.990    1.1936
   16.005    1.2989
   16.020    1.2463
   16.035    1.2463
   16.050    1.1936
   16.065    1.3165
   16.080    1.4218
   16.095    1.3691
   16.110    1.2463
   16.125    1.2287
   16.140    1.2287
   16.155    1.2814
   16.170    1.2638
   16.185    1.1585
   16.200    1.1936
   16.215    1.0005
   16.230    1.0532
   16.245    0.9654
   16.260    1.0181
   16.275    1.0532
   16.290    1.0005
   16.305    1.1936
   16.320    1.2638
   16.335    1.0707
   16.350    1.1234
   16.365    0.9479
   16.380    1.1058
   16.395    1.1936
   16.410    1.1936
   16.425    0.9654
   16.440    1.0356
   16.455    1.4569
   16.470    1.2287
   16.485    1.4042
   16.500    1.4569
   16.515    1.4394
   16.530    1.5622
   16.545    1.5447
   16.560    1.6851
   16.575    1.6851
   16.590    1.4920
   16.605    1.1585
   16.620    1.0883
   16.635    1.0532
   16.650    1.0356
   16.665    1.1410
   16.680    1.0707
   16.695    1.2638
   16.710    1.0181
   16.725    1.2287
   16.740    1.1234
   16.755    1.2112
   16.770    1.1761
   16.785    1.3165
   16.800    1.0356
   16.815    1.0707
   16.830    1.3516
   16.845    1.0005
   16.860    1.1936
   16.875    1.1936
   16.890    1.3340
   16.905    1.2814
   16.920    1.2989
   16.935    1.6851
   16.950    1.5096
   16.965    1.5622
   16.980    1.6851
   16.995    1.7904
   17.010    2.1766
   17.025    2.3346
   17.040    2.0888
   17.055    2.0186
   17.070    1.7378
   17.085    1.6149
   17.100    1.2989
   17.115    1.2112
   17.130    1.1761
   17.145    1.1585
   17.160    1.1936
   17.175    1.0356
   17.190    1.0356
   17.205    1.0532
   17.220    1.2814
   17.235    1.1058
   17.250    1.1936
   17.265    1.0707
   17.280    1.1936
   17.295    1.1585
   17.310    1.0356
   17.325    0.9303
   17.340    1.0883
   17.355    1.1058
   17.370    1.1410
   17.385    1.2463
   17.400    1.1058
   17.415    1.1410
   17.430    1.2638
   17.445    1.4394
   17.460    1.4042
   17.475    1.2287
   17.490    1.2287
   17.505    1.5096
   17.520    1.2463
   17.535    1.2638
   17.550    1.0532
   17.565    1.0532
   17.580    1.3165
   17.595    1.1936
   17.610    1.4042
   17.625    1.1234
   17.640    1.2814
   17.655    1.2112
   17.670    1.1936
   17.685    1.1936
   17.700    1.1761
   17.715    0.8952
   17.730    1.1234
   17.745    1.2112
   17.760    1.2287
   17.775    1.1234
   17.790    1.2287
   17.805    1.2638
   17.820    1.2463
   17.835    1.2287
   17.850    1.1936
   17.865    1.3165
   17.880    1.1410
   17.895    1.2638
   17.910    1.1936
   17.925    1.3691
   17.940    1.3516
   17.955    1.4394
   17.970    1.2989
   17.985    1.1058
   18.000    0.9303
   18.015    1.2463
   18.030    1.2287
   18.045    1.2989
   18.060    1.1410
   18.075    1.2287
   18.090    1.2112
   18.105    1.1936
   18.120    1.2989
   18.135    1.4745
   18.150    1.1234
   18.165    1.4218
   18.180    1.4042
   18.195    1.1058
   18.210    1.2112
   18.225    1.2814
   18.240    1.2463
   18.255    1.1058
   18.270    1.4042
   18.285    1.2638
   18.300    1.3516
   18.315    1.2814
   18.330    1.4569
   18.345    1.4042
   18.360    1.1058
   18.375    1.2814
   18.390    1.3165
   18.405    1.4569
   18.420    1.3340
   18.435    1.2112
   18.450    1.1585
   18.465    1.1936
   18.480    1.1936
   18.495    1.1936
   18.510    1.3340
   18.525    1.2814
   18.540    1.1761
   18.555    1.2287
   18.570    1.0883
   18.585    1.0005
   18.600    1.0356
   18.615    1.1234
   18.630    1.2463
   18.645    1.1936
   18.660    1.2112
   18.675    1.1410
   18.690    1.3165
   18.705    1.2463
   18.720    1.1410
   18.735    1.2638
   18.750    1.4042
   18.765    1.3867
   18.780    1.1410
   18.795    1.3516
   18.810    1.2814
   18.825    1.1585
   18.840    1.1058
   18.855    0.9830
   18.870    1.1234
   18.885    1.1410
   18.900    1.2287
   18.915    1.0005
   18.930    1.0532
   18.945    1.1761
   18.960    1.0356
   18.975    1.1410
   18.990    1.0532
   19.005    1.2287
   19.020    1.0532
   19.035    1.2814
   19.050    1.3340
   19.065    1.2638
   19.080    1.1761
   19.095    0.9128
   19.110    1.1234
   19.125    1.0707
   19.140    1.0707
   19.155    1.0532
   19.170    1.2287
   19.185    1.1585
   19.200    1.1585
   19.215    1.2287
   19.230    1.2463
   19.245    1.0532
   19.260    1.2638
   19.275    1.2814
   19.290    1.1585
   19.305    1.0707
   19.320    0.9479
   19.335    1.1761
   19.350    1.0883
   19.365    1.1410
   19.380    1.2463
   19.395    1.1936
   19.410    1.1585
   19.425    1.1410
   19.440    1.1761
   19.455    1.0532
   19.470    1.0356
   19.485    1.2989
   19.500    1.3340
   19.515    1.1761
   19.530    1.4745
   19.545    1.4042
   19.560    1.4042
   19.575    1.3516
   19.590    1.2463
   19.605    1.4745
   19.620    1.4042
   19.635    1.1936
   19.650    1.0532
   19.665    1.2112
   19.680    1.1585
   19.695    1.2989
   19.710    1.0356
   19.725    1.2638
   19.740    1.2814
   19.755    1.0532
   19.770    1.0532
   19.785    1.1585
   19.800    1.1936
   19.815    1.1585
   19.830    1.0356
   19.845    1.3340
   19.860    1.2463
   19.875    0.9479
   19.890    1.0532
   19.905    1.1234
   19.920    1.1410
   19.935    1.2989
   19.950    1.2287
   19.965    1.2463
   19.980    0.9654
   19.995    1.0707
   20.010    1.1585
   20.025    1.1410
   20.040    1.1761
   20.055    1.1058
   20.070    1.2638
   20.085    1.3516
   20.100    1.3340
   20.115    1.1761
   20.130    1.3516
   20.145    1.4745
   20.160    1.2814
   20.175    1.4745
   20.190    1.0356
   20.205    1.1410
   20.220    1.0532
   20.235    1.2989
   20.250    1.5096
   20.265    1.4569
   20.280    1.5447
   20.295    1.4218
   20.310    1.9659
   20.325    1.5798
   20.340    1.9484
   20.355    2.0713
   20.370    2.1064
   20.385    1.3867
   20.400    1.3867
   20.415    1.4569
   20.430    1.3340
   20.445    1.2463
   20.460    1.1410
   20.475    1.1585
   20.490    1.2814
   20.505    1.0532
   20.520    1.1936
   20.535    0.8777
   20.550    1.1234
   20.565    1.3516
   20.580    1.2287
   20.595    1.1936
   20.610    1.2112
   20.625    1.1936
   20.640    1.3516
   20.655    1.4920
   20.670    1.3340
   20.685    1.1234
   20.700    1.1761
   20.715    1.2112
   20.730    1.0883
   20.745    1.2112
   20.760    1.2463
   20.775    1.1410
   20.790    1.2112
   20.805    1.0532
   20.820    1.1058
   20.835    1.1234
   20.850    1.0883
   20.865    1.2638
   20.880    1.1936
   20.895    1.1234
   20.910    1.0356
   20.925    1.2814
   20.940    1.0883
   20.955    1.1058
   20.970    1.3165
   20.985    1.2112
   21.000    1.2112
   21.015    1.1936
   21.030    1.2287
   21.045    1.2989
   21.060    1.4920
   21.075    1.2814
   21.090    1.1410
   21.105    1.3691
   21.120    1.2463
   21.135    1.2287
   21.150    0.9654
   21.165    1.1761
   21.180    1.0005
   21.195    1.2112
   21.210    1.1410
   21.225    1.4394
   21.240    1.2112
   21.255    1.1936
   21.270    1.2814
   21.285    1.2112
   21.300    1.2989
   21.315    1.1936
   21.330    1.2814
   21.345    1.2287
   21.360    1.3340
   21.375    1.4042
   21.390    1.3165
   21.405    1.1761
   21.420    1.0707
   21.435    1.2814
   21.450    1.1936
   21.465    1.0005
   21.480    1.1585
   21.495    1.2989
   21.510    1.2989
   21.525    1.3340
   21.540    1.3516
   21.555    1.3691
   21.570    1.2287
   21.585    1.2814
   21.600    1.1936
   21.615    1.3867
   21.630    1.1585
   21.645    1.2463
   21.660    1.2112
   21.675    1.2814
   21.690    1.0532
   21.705    1.0707
   21.720    1.0883
   21.735    1.0356
   21.750    1.1585
   21.765    1.2287
   21.780    1.5096
   21.795    1.3867
   21.810    1.3516
   21.825    1.3340
   21.840    1.3691
   21.855    1.3516
   21.870    1.3867
   21.885    1.3165
   21.900    1.4218
   21.915    1.1585
   21.930    1.2989
   21.945    1.2989
   21.960    1.2989
   21.975    1.2814
   21.990    1.4218
   22.005    1.2287
   22.020    1.1761
   22.035    1.3340
   22.050    1.1761
   22.065    1.1410
   22.080    1.1761
   22.095    1.2112
   22.110    1.4745
   22.125    1.2989
   22.140    1.2463
   22.155    1.3165
   22.170    1.3165
   22.185    1.4745
   22.200    1.5622
   22.215    1.3340
   22.230    1.3340
   22.245    1.0883
   22.260    1.2814
   22.275    1.3165
   22.290    1.0883
   22.305    1.2638
   22.320    1.1761
   22.335    1.1936
   22.350    1.1761
   22.365    1.2989
   22.380    1.1058
   22.395    1.2112
   22.410    1.2463
   22.425    1.5096
   22.440    1.4920
   22.455    1.5096
   22.470    1.6675
   22.485    2.0011
   22.500    2.1590
   22.515    2.1064
   22.530    2.0888
   22.545    2.1766
   22.560    1.7904
   22.575    1.4042
   22.590    1.3691
   22.605    1.2814
   22.620    1.2463
   22.635    1.4745
   22.650    1.3340
   22.665    1.2287
   22.680    1.2638
   22.695    1.2287
   22.710    1.1936
   22.725    1.1058
   22.740    1.2112
   22.755    1.2989
   22.770    1.5622
   22.785    1.7027
   22.800    1.7202
   22.815    1.7027
   22.830    1.8255
   22.845    1.8255
   22.860    1.7378
   22.875    1.8080
   22.890    1.9835
   22.905    1.9308
   22.920    1.8782
   22.935    1.4394
   22.950    1.3165
   22.965    1.3691
   22.980    1.2989
   22.995    1.1410
   23.010    1.2814
   23.025    1.1585
   23.040    1.2112
   23.055    1.1936
   23.070    1.2638
   23.085    1.3165
   23.100    1.1936
   23.115    1.3516
   23.130    1.1936
   23.145    1.5447
   23.160    1.4745
   23.175    1.5798
   23.190    1.7027
   23.205    1.7202
   23.220    1.1410
   23.235    1.4745
   23.250    1.5271
   23.265    1.1410
   23.280    1.0883
   23.295    1.1058
   23.310    1.2989
   23.325    1.0883
   23.340    1.1410
   23.355    1.2989
   23.370    1.3165
   23.385    1.1761
   23.400    1.0707
   23.415    1.1234
   23.430    1.0707
   23.445    1.1761
   23.460    1.0883
   23.475    1.2638
   23.490    1.2287
   23.505    1.3340
   23.520    1.2287
   23.535    1.3165
   23.550    1.1058
   23.565    1.0707
   23.580    1.2287
   23.595    1.4745
   23.610    1.3867
   23.625    1.2112
   23.640    1.0707
   23.655    1.0707
   23.670    1.1058
   23.685    1.1585
   23.700    1.2989
   23.715    1.1585
   23.730    1.0181
   23.745    1.2814
   23.760    1.0707
   23.775    1.2463
   23.790    1.3516
   23.805    1.2814
   23.820    1.3165
   23.835    1.4218
   23.850    1.3340
   23.865    1.1761
   23.880    1.2814
   23.895    1.4042
   23.910    1.5447
   23.925    1.4218
   23.940    1.1585
   23.955    1.2112
   23.970    1.2638
   23.985    1.1058
   24.000    1.0707
   24.015    1.2287
   24.030    1.1410
   24.045    0.9479
   24.060    1.0532
   24.075    1.4218
   24.090    1.2814
   24.105    0.9479
   24.120    0.9654
   24.135    1.1585
   24.150    1.1234
   24.165    1.0532
   24.180    1.2463
   24.195    1.2638
   24.210    1.1410
   24.225    1.2463
   24.240    1.3691
   24.255    1.2989
   24.270    1.1585
   24.285    1.1761
   24.300    1.1585
   24.315    1.1410
   24.330    1.0181
   24.345    1.2287
   24.360    1.0707
   24.375    1.2112
   24.390    1.1761
   24.405    1.0707
   24.420    1.2463
   24.435    1.3691
   24.450    1.3516
   24.465    1.3516
   24.480    1.1936
   24.495    1.3340
   24.510    1.1585
   24.525    1.2638
   24.540    1.1761
   24.555    1.1761
   24.570    1.2638
   24.585    1.3340
   24.600    1.1761
   24.615    0.9830
   24.630    0.9479
   24.645    1.2463
   24.660    1.3691
   24.675    1.1234
   24.690    1.0356
   24.705    1.0883
   24.720    1.2989
   24.735    1.0356
   24.750    1.2463
   24.765    1.3691
   24.780    1.2638
   24.795    1.2112
   24.810    1.2112
   24.825    1.3867
   24.840    1.3516
   24.855    1.0707
   24.870    1.0707
   24.885    1.1058
   24.900    1.0883
   24.915    1.2989
   24.930    1.0883
   24.945    1.0707
   24.960    0.9479
   24.975    1.2638
   24.990    1.2638
   25.005    1.3165
   25.020    1.1234
   25.035    1.3340
   25.050    1.1936
   25.065    1.2814
   25.080    1.1410
   25.095    1.1058
   25.110    1.1936
   25.125    1.1761
   25.140    1.1234
   25.155    1.1410
   25.170    1.1761
   25.185    1.3165
   25.200    1.1410
   25.215    1.1761
   25.230    1.1234
   25.245    0.9128
   25.260    1.1585
   25.275    1.1761
   25.290    1.1936
   25.305    1.2814
   25.320    1.2287
   25.335    1.1585
   25.350    1.1410
   25.365    0.9830
   25.380    1.1058
   25.395    1.0532
   25.410    1.2287
   25.425    1.2463
   25.440    1.1410
   25.455    1.1234
   25.470    1.2463
   25.485    1.0005
   25.500    1.1936
   25.515    1.1410
   25.530    1.1058
   25.545    1.0356
   25.560    0.8952
   25.575    1.2287
   25.590    1.1410
   25.605    1.0532
   25.620    1.1410
   25.635    1.3691
   25.650    1.3516
   25.665    1.2463
   25.680    1.3516
   25.695    1.6149
   25.710    1.5798
   25.725    1.4394
   25.740    1.4745
   25.755    1.6324
   25.770    1.6675
   25.785    1.5798
   25.800    1.4920
   25.815    1.3165
   25.830    1.3516
   25.845    1.2638
   25.860    1.2989
   25.875    1.1234
   25.890    1.2814
   25.905    1.0707
   25.920    1.1058
   25.935    1.1936
   25.950    1.0532
   25.965    1.1410
   25.980    1.1761
   25.995    1.1936
   26.010    1.0883
   26.025    1.1761
   26.040    1.0005
   26.055    1.3516
   26.070    1.1936
   26.085    1.1410
   26.100    1.0532
   26.115    1.2814
   26.130    1.3691
   26.145    1.3691
   26.160    1.2463
   26.175    1.1936
   26.190    1.0356
   26.205    1.0707
   26.220    1.2463
   26.235    1.2638
   26.250    1.2989
   26.265    1.2989
   26.280    1.2814
   26.295    1.1585
   26.310    1.1761
   26.325    1.1058
   26.340    1.3340
   26.355    1.4394
   26.370    1.1585
   26.385    1.1761
   26.400    1.3516
   26.415    1.5271
   26.430    1.2989
   26.445    1.2638
   26.460    1.1585
   26.475    0.9654
   26.490    1.3165
   26.505    1.2112
   26.520    1.2989
   26.535    1.1234
   26.550    0.9830
   26.565    1.0181
   26.580    1.0181
   26.595    0.9830
   26.610    1.1058
   26.625    1.1761
   26.640    1.0532
   26.655    1.1058
   26.670    1.2638
   26.685    1.1761
   26.700    1.0181
   26.715    1.0181
   26.730    1.0532
   26.745    1.1234
   26.760    1.0883
   26.775    1.0005
   26.790    1.0181
   26.805    1.1234
   26.820    1.0707
   26.835    1.1585
   26.850    1.1058
   26.865    0.8777
   26.880    0.8777
   26.895    1.1058
   26.910    1.1058
   26.925    1.2814
   26.940    1.5096
   26.955    1.5798
   26.970    1.4745
   26.985    1.3691
   27.000    1.4042
   27.015    1.1936
   27.030    0.9830
   27.045    0.9479
   27.060    0.9830
   27.075    1.1936
   27.090    1.0356
   27.105    1.0005
   27.120    0.8952
   27.135    0.9654
   27.150    1.0356
   27.165    1.0532
   27.180    1.0883
   27.195    1.1058
   27.210    1.1058
   27.225    1.1234
   27.240    0.9479
   27.255    1.0883
   27.270    1.1058
   27.285    1.1410
   27.300    1.2814
   27.315    1.1761
   27.330    1.1936
   27.345    1.2989
   27.360    1.0707
   27.375    1.1410
   27.390    1.0356
   27.405    1.0883
   27.420    1.2638
   27.435    1.1585
   27.450    1.1058
   27.465    1.0181
   27.480    1.2638
   27.495    1.1936
   27.510    1.2112
   27.525    1.4042
   27.540    1.3165
   27.555    1.0005
   27.570    1.0883
   27.585    1.0356
   27.600    1.1761
   27.615    1.0883
   27.630    0.9303
   27.645    1.2287
   27.660    1.2814
   27.675    1.1936
   27.690    1.2463
   27.705    1.1234
   27.720    1.2287
   27.735    1.1234
   27.750    0.9654
   27.765    1.0005
   27.780    1.1234
   27.795    1.0532
   27.810    1.1058
   27.825    1.0707
   27.840    1.0181
   27.855    1.2287
   27.870    1.1234
   27.885    1.0883
   27.900    1.0005
   27.915    1.2112
   27.930    1.1761
   27.945    0.7899
   27.960    1.0005
   27.975    1.0005
   27.990    1.1585
   28.005    0.9830
   28.020    1.1058
   28.035    0.9654
   28.050    1.2463
   28.065    1.4920
   28.080    1.5096
   28.095    1.3165
   28.110    1.5096
   28.125    1.4042
   28.140    1.3867
   28.155    1.4569
   28.170    1.5271
   28.185    1.1936
   28.200    0.9830
   28.215    1.1234
   28.230    0.9303
   28.245    1.0005
   28.260    1.0883
   28.275    1.0005
   28.290    1.1410
   28.305    0.9479
   28.320    1.0356
   28.335    1.2287
   28.350    1.1585
   28.365    1.1058
   28.380    1.0356
   28.395    1.1410
   28.410    1.2638
   28.425    1.2287
   28.440    1.3867
   28.455    1.1234
   28.470    1.0356
   28.485    1.1234
   28.500    1.1585
   28.515    1.1058
   28.530    1.1585
   28.545    1.1410
   28.560    1.1234
   28.575    0.9654
   28.590    1.0532
   28.605    1.1234
   28.620    1.0707
   28.635    0.9303
   28.650    1.0356
   28.665    1.1058
   28.680    1.1585
   28.695    1.0356
   28.710    0.9830
   28.725    0.9128
   28.740    1.0532
   28.755    1.0356
   28.770    1.1058
   28.785    1.0181
   28.800    1.2112
   28.815    1.1234
   28.830    1.0005
   28.845    1.1410
   28.860    1.1234
   28.875    1.1234
   28.890    1.1936
   28.905    1.0005
   28.920    1.0883
   28.935    0.8601
   28.950    1.2112
   28.965    1.0883
   28.980    1.1585
   28.995    1.0532
   29.010    1.0181
   29.025    1.0005
   29.040    1.1761
   29.055    1.0707
   29.070    0.9479
   29.085    1.1410
   29.100    1.0181
   29.115    0.9303
   29.130    1.0005
   29.145    1.1058
   29.160    1.2463
   29.175    1.0532
   29.190    1.1410
   29.205    1.1585
   29.220    1.1058
   29.235    1.2112
   29.250    0.9479
   29.265    1.1585
   29.280    1.1410
   29.295    1.0707
   29.310    1.1058
   29.325    1.2112
   29.340    1.1234
   29.355    1.0356
   29.370    0.9303
   29.385    1.0356
   29.400    1.1585
   29.415    1.0883
   29.430    1.0181
   29.445    1.2112
   29.460    1.1058
   29.475    1.1936
   29.490    1.1058
   29.505    1.0356
   29.520    1.0005
   29.535    1.1234
   29.550    1.1058
   29.565    1.0883
   29.580    0.9303
   29.595    0.7723
   29.610    1.0181
   29.625    1.0707
   29.640    1.0181
   29.655    0.9128
   29.670    0.9128
   29.685    1.2638
   29.700    1.2112
   29.715    0.8952
   29.730    0.8074
   29.745    0.9654
   29.760    1.2463
   29.775    1.3165
   29.790    1.1585
   29.805    1.0532
   29.820    1.0532
   29.835    0.9479
   29.850    1.0883
   29.865    1.0707
   29.880    1.1058
   29.895    0.9830
   29.910    0.9830
   29.925    1.1585
   29.940    1.1234
   29.955    1.1234
   29.970    0.9830
   29.985    1.2463
   30.000    1.1936
   30.015    0.9830
   30.030    1.1410
   30.045    1.0707
   30.060    1.1761
   30.075    1.0532
   30.090    1.0707
   30.105    0.7899
   30.120    0.8777
   30.135    1.0181
   30.150    0.8777
   30.165    1.0356
   30.180    0.9830
   30.195    1.0532
   30.210    0.8952
   30.225    1.0356
   30.240    1.2814
   30.255    0.9830
   30.270    0.9479
   30.285    0.9654
   30.300    0.9128
   30.315    1.0181
   30.330    1.1936
   30.345    1.1410
   30.360    1.2287
   30.375    0.8777
   30.390    1.1234
   30.405    1.1410
   30.420    1.2463
   30.435    1.1234
   30.450    0.8777
   30.465    0.9303
   30.480    0.9830
   30.495    1.1761
   30.510    1.0356
   30.525    1.0883
   30.540    1.0356
   30.555    1.1058
   30.570    0.8601
   30.585    0.9479
   30.600    1.1585
   30.615    1.0181
   30.630    1.0707
   30.645    0.9479
   30.660    1.0707
   30.675    1.0532
   30.690    0.8952
   30.705    1.3165
   30.720    0.9830
   30.735    0.8250
   30.750    1.1058
   30.765    1.2463
   30.780    0.9479
   30.795    0.9128
   30.810    1.0356
   30.825    0.9830
   30.840    1.1585
   30.855    1.0883
   30.870    0.9303
   30.885    0.8425
   30.900    1.0356
   30.915    1.0181
   30.930    1.1234
   30.945    1.1761
   30.960    1.0707
   30.975    0.8250
   30.990    1.0181
   31.005    0.9830
   31.020    0.8250
   31.035    0.9128
   31.050    1.1410
   31.065    0.8777
   31.080    0.8952
   31.095    1.0005
   31.110    0.9830
   31.125    0.8777
   31.140    0.9830
   31.155    1.0005
   31.170    1.0005
   31.185    1.0005
   31.200    0.9128
   31.215    1.1410
   31.230    1.1585
   31.245    1.2287
   31.260    1.0356
   31.275    1.1234
   31.290    0.9830
   31.305    1.0356
   31.320    0.9654
   31.335    0.8777
   31.350    1.0181
   31.365    0.9303
   31.380    0.8425
   31.395    0.8250
   31.410    1.0356
   31.425    1.0181
   31.440    0.9479
   31.455    1.0532
   31.470    0.9654
   31.485    0.7197
   31.500    0.9303
   31.515    0.9479
   31.530    1.1410
   31.545    1.0181
   31.560    0.8777
   31.575    0.9479
   31.590    0.9654
   31.605    1.0532
   31.620    1.1936
   31.635    1.0181
   31.650    0.9479
   31.665    1.0181
   31.680    1.0883
   31.695    1.0005
   31.710    1.0005
   31.725    1.0181
   31.740    0.9128
   31.755    0.9654
   31.770    0.9479
   31.785    0.9128
   31.800    1.0883
   31.815    0.9654
   31.830    1.0532
   31.845    1.1234
   31.860    1.0707
   31.875    0.9303
   31.890    1.1761
   31.905    0.9830
   31.920    1.1234
   31.935    0.9128
   31.950    0.8074
   31.965    0.7899
   31.980    0.7548
   31.995    0.8074
   32.010    0.8601
   32.025    0.9128
   32.040    1.1234
   32.055    0.9479
   32.070    1.0707
   32.085    1.1234
   32.100    1.2287
   32.115    1.1058
   32.130    1.0005
   32.145    1.0356
   32.160    0.9654
   32.175    0.9479
   32.190    0.9830
   32.205    1.0356
   32.220    1.0532
   32.235    0.9128
   32.250    0.9654
   32.265    1.0532
   32.280    0.9830
   32.295    0.8250
   32.310    1.0181
   32.325    0.8601
   32.340    0.9128
   32.355    1.0532
   32.370    1.0883
   32.385    1.1234
   32.400    1.1936
   32.415    1.1761
   32.430    0.8952
   32.445    0.8601
   32.460    1.0356
   32.475    0.8601
   32.490    0.9303
   32.505    0.8601
   32.520    0.8425
   32.535    0.9479
   32.550    0.9654
   32.565    1.0356
   32.580    0.9479
   32.595    1.0005
   32.610    1.0005
   32.625    1.0707
   32.640    0.8777
   32.655    0.8425
   32.670    0.9128
   32.685    1.0532
   32.700    0.8074
   32.715    0.9654
   32.730    0.9303
   32.745    0.8952
   32.760    0.9830
   32.775    0.9303
   32.790    0.8777
   32.805    0.8425
   32.820    0.8601
   32.835    0.9128
   32.850    1.0356
   32.865    0.8777
   32.880    0.8777
   32.895    0.9830
   32.910    1.1410
   32.925    0.9128
   32.940    0.7372
   32.955    0.8250
   32.970    0.8777
   32.985    0.8952
   33.000    0.7899
   33.015    0.9128
   33.030    0.8777
   33.045    0.6670
   33.060    0.7899
   33.075    0.9303
   33.090    0.9128
   33.105    1.0181
   33.120    0.9303
   33.135    0.9830
   33.150    0.9479
   33.165    0.8601
   33.180    0.9654
   33.195    0.8777
   33.210    0.8425
   33.225    0.9303
   33.240    0.9128
   33.255    0.8250
   33.270    0.9128
   33.285    0.9128
   33.300    0.9479
   33.315    1.0356
   33.330    0.9128
   33.345    0.8250
   33.360    0.7548
   33.375    0.7372
   33.390    0.9303
   33.405    0.9479
   33.420    0.7899
   33.435    0.8952
   33.450    0.8952
   33.465    0.8250
   33.480    0.9830
   33.495    1.0181
   33.510    0.8074
   33.525    0.8425
   33.540    0.8777
   33.555    0.8250
   33.570    0.7899
   33.585    0.8777
   33.600    0.9303
   33.615    0.8601
   33.630    1.0356
   33.645    0.8601
   33.660    0.9128
   33.675    0.8250
   33.690    1.0883
   33.705    0.9830
   33.720    1.0532
   33.735    0.9654
   33.750    0.9479
   33.765    0.9128
   33.780    1.1585
   33.795    1.2814
   33.810    1.0181
   33.825    1.1058
   33.840    1.2112
   33.855    1.0883
   33.870    0.7548
   33.885    0.7548
   33.900    0.8425
   33.915    0.8425
   33.930    1.0356
   33.945    1.0356
   33.960    0.7899
   33.975    0.8601
   33.990    0.8601
   34.005    0.8952
   34.020    0.8601
   34.035    0.9479
   34.050    1.0005
   34.065    0.8777
   34.080    0.7723
   34.095    0.9830
   34.110    0.8601
   34.125    1.0181
   34.140    0.7197
   34.155    0.8250
   34.170    0.9128
   34.185    0.8601
   34.200    0.9303
   34.215    0.9128
   34.230    0.8425
   34.245    0.8250
   34.260    0.7899
   34.275    0.8425
   34.290    0.8601
   34.305    0.7548
   34.320    0.8601
   34.335    0.8952
   34.350    0.7372
   34.365    0.7548
   34.380    0.7899
   34.395    0.8074
   34.410    0.8425
   34.425    0.6670
   34.440    0.8952
   34.455    0.9128
   34.470    0.7197
   34.485    0.7899
   34.500    0.9128
   34.515    1.0005
   34.530    0.9303
   34.545    0.7899
   34.560    0.8074
   34.575    0.9128
   34.590    0.7548
   34.605    0.7021
   34.620    0.7197
   34.635    0.8425
   34.650    0.7548
   34.665    0.7723
   34.680    1.0005
   34.695    0.9479
   34.710    0.9128
   34.725    0.8952
   34.740    0.8777
   34.755    0.9303
   34.770    0.9479
   34.785    0.9479
   34.800    0.9303
   34.815    1.0181
   34.830    0.9479
   34.845    0.8425
   34.860    0.8952
   34.875    0.8425
   34.890    0.8425
   34.905    0.7548
   34.920    0.8250
   34.935    0.7197
   34.950    0.6144
   34.965    0.8250
   34.980    0.8250
   34.995    0.7899
   35.010    0.6670
   35.025    0.7899
   35.040    0.8250
   35.055    0.8777
   35.070    0.6846
   35.085    0.8777
   35.100    0.6846
   35.115    0.8601
   35.130    0.7197
   35.145    0.6144
   35.160    0.7548
   35.175    0.8601
   35.190    0.9128
   35.205    0.8074
   35.220    0.8601
   35.235    0.7197
   35.250    0.7723
   35.265    0.9128
   35.280    0.8777
   35.295    0.8777
   35.310    0.7548
   35.325    0.8601
   35.340    0.7197
   35.355    0.8250
   35.370    0.8074
   35.385    0.9303
   35.400    0.7372
   35.415    0.8250
   35.430    0.8074
   35.445    0.7723
   35.460    0.9479
   35.475    0.8601
   35.490    0.8074
   35.505    0.9128
   35.520    0.7548
   35.535    0.7548
   35.550    0.7021
   35.565    0.7197
   35.580    0.7899
   35.595    0.8074
   35.610    0.9303
   35.625    1.0883
   35.640    0.7723
   35.655    0.7372
   35.670    0.8601
   35.685    0.8777
   35.700    0.7548
   35.715    0.8601
   35.730    0.7723
   35.745    0.7372
   35.760    0.9128
   35.775    0.8074
   35.790    0.7723
   35.805    0.8777
   35.820    0.8777
   35.835    0.6144
   35.850    0.8074
   35.865    0.8074
   35.880    0.8952
   35.895    0.7723
   35.910    0.9479
   35.925    0.7899
   35.940    0.9128
   35.955    0.7021
   35.970    0.7723
   35.985    0.6495
   36.000    0.7021
   36.015    0.7899
   36.030    0.8250
   36.045    0.7548
   36.060    0.8425
   36.075    0.7548
   36.090    0.7372
   36.105    0.7197
   36.120    0.5617
   36.135    1.0532
   36.150    0.8074
   36.165    0.8777
   36.180    0.8250
   36.195    0.5968
   36.210    0.7899
   36.225    0.8601
   36.240    0.8250
   36.255    0.8425
   36.270    0.9128
   36.285    0.7021
   36.300    0.8074
   36.315    0.8601
   36.330    0.6495
   36.345    0.8425
   36.360    0.7548
   36.375    0.8074
   36.390    0.7723
   36.405    0.9479
   36.420    0.8425
   36.435    0.7021
   36.450    0.8777
   36.465    0.8777
   36.480    0.9128
   36.495    0.9479
   36.510    0.8074
   36.525    0.7723
   36.540    1.0356
   36.555    0.9830
   36.570    1.0005
   36.585    0.8601
   36.600    0.8425
   36.615    0.9303
   36.630    0.8952
   36.645    0.7723
   36.660    0.9128
   36.675    0.7899
   36.690    0.7899
   36.705    0.5793
   36.720    0.8601
   36.735    0.8425
   36.750    0.8601
   36.765    0.8250
   36.780    0.7197
   36.795    0.7723
   36.810    0.7021
   36.825    0.6670
   36.840    0.7197
   36.855    0.9128
   36.870    0.8952
   36.885    0.6670
   36.900    0.7021
   36.915    0.8425
   36.930    0.8250
   36.945    0.7197
   36.960    0.8250
   36.975    0.7021
   36.990    0.6846
   37.005    0.7899
   37.020    0.8777
   37.035    0.7899
   37.050    0.7899
   37.065    0.8601
   37.080    0.8074
   37.095    0.6670
   37.110    0.6319
   37.125    0.7372
   37.140    0.8250
   37.155    0.8601
   37.170    0.8074
   37.185    0.6846
   37.200    0.5441
   37.215    0.7021
   37.230    0.6846
   37.245    0.7021
   37.260    0.6670
   37.275    0.6319
   37.290    0.7899
   37.305    0.7548
   37.320    0.7372
   37.335    0.8250
   37.350    0.8425
   37.365    0.8425
   37.380    0.8425
   37.395    0.8777
   37.410    0.7723
   37.425    0.9479
   37.440    0.9303
   37.455    0.7021
   37.470    0.7021
   37.485    1.0707
   37.500    0.9128
   37.515    0.8777
   37.530    0.7197
   37.545    0.5968
   37.560    0.7197
   37.575    0.7372
   37.590    1.0005
   37.605    0.8074
   37.620    0.7548
   37.635    0.6670
   37.650    0.7548
   37.665    0.7021
   37.680    0.8777
   37.695    1.0181
   37.710    1.0707
   37.725    0.8952
   37.740    0.7021
   37.755    0.8425
   37.770    0.6670
   37.785    0.7197
   37.800    0.7548
   37.815    0.6846
   37.830    0.7723
   37.845    0.8074
   37.860    0.8425
   37.875    0.8250
   37.890    0.6319
   37.905    0.7723
   37.920    0.7372
   37.935    0.7372
   37.950    0.7021
   37.965    0.7197
   37.980    0.7021
   37.995    0.6846
   38.010    0.8250
   38.025    0.8074
   38.040    0.7723
   38.055    0.8952
   38.070    0.8952
   38.085    0.7899
   38.100    0.7723
   38.115    0.8425
   38.130    0.7548
   38.145    0.7899
   38.160    0.8601
   38.175    0.9128
   38.190    0.7899
   38.205    0.8425
   38.220    0.7021
   38.235    0.8601
   38.250    0.7899
   38.265    0.8250
   38.280    0.6144
   38.295    0.6846
   38.310    0.7197
   38.325    0.7723
   38.340    0.7197
   38.355    0.7372
   38.370    0.7021
   38.385    0.7372
   38.400    0.9128
   38.415    0.7548
   38.430    0.7197
   38.445    0.5793
   38.460    0.7197
   38.475    0.7021
   38.490    0.8952
   38.505    0.7723
   38.520    0.6670
   38.535    0.7197
   38.550    0.8074
   38.565    0.7899
   38.580    0.7723
   38.595    0.5793
   38.610    0.6495
   38.625    0.7021
   38.640    0.8425
   38.655    0.9479
   38.670    0.7372
   38.685    0.6144
   38.700    0.7197
   38.715    0.7372
   38.730    0.6144
   38.745    0.4915
   38.760    0.5090
   38.775    0.6144
   38.790    0.7021
   38.805    0.6144
   38.820    0.6846
   38.835    0.6495
   38.850    0.7548
   38.865    0.6319
   38.880    0.6846
   38.895    0.6846
   38.910    0.5793
   38.925    0.5090
   38.940    0.6670
   38.955    0.7548
   38.970    0.6846
   38.985    0.6670
   39.000    0.7197
   39.015    0.8425
   39.030    0.7899
   39.045    0.6495
   39.060    0.7197
   39.075    0.6670
   39.090    0.6670
   39.105    0.7723
   39.120    0.6144
   39.135    0.5968
   39.150    0.6846
   39.165    0.7548
   39.180    0.7021
   39.195    0.7372
   39.210    0.5968
   39.225    0.6846
   39.240    0.8074
   39.255    0.8074
   39.270    0.7372
   39.285    0.5968
   39.300    0.6144
   39.315    0.8425
   39.330    0.6144
   39.345    0.6670
   39.360    0.6670
   39.375    0.5968
   39.390    0.7197
   39.405    0.7021
   39.420    0.7197
   39.435    0.7899
   39.450    0.6670
   39.465    0.8425
   39.480    0.8601
   39.495    0.6846
   39.510    0.7723
   39.525    0.7723
   39.540    0.8074
   39.555    0.7548
   39.570    0.7197
   39.585    0.7372
   39.600    0.7021
   39.615    0.7021
   39.630    0.6846
   39.645    0.8074
   39.660    0.7548
   39.675    0.7548
   39.690    0.8601
   39.705    0.9128
   39.720    0.7021
   39.735    0.7372
   39.750    0.6495
   39.765    0.6670
   39.780    0.9128
   39.795    0.8074
   39.810    0.6670
   39.825    0.7548
   39.840    0.7372
   39.855    0.5793
   39.870    0.6144
   39.885    0.6846
   39.900    0.7197
   39.915    0.8601
   39.930    0.7372
   39.945    0.6319
   39.960    0.6670
   39.975    0.6846
   39.990    0.7548
   40.005    0.7372
   40.020    0.6319
   40.035    0.6670
   40.050    0.6495
   40.065    0.6670
   40.080    0.7197
   40.095    0.8425
   40.110    0.7723
   40.125    0.7723
   40.140    0.6846
   40.155    0.7548
   40.170    0.7899
   40.185    0.7372
   40.200    0.8074
   40.215    0.7197
   40.230    0.9303
   40.245    0.8952
   40.260    0.9303
   40.275    0.5617
   40.290    0.6495
   40.305    0.8074
   40.320    0.7372
   40.335    0.8250
   40.350    0.8601
   40.365    0.7197
   40.380    0.8425
   40.395    0.9654
   40.410    0.8425
   40.425    0.7372
   40.440    0.7723
   40.455    0.9303
   40.470    1.0356
   40.485    0.8074
   40.500    0.7197
   40.515    0.8425
   40.530    0.8250
   40.545    0.8250
   40.560    0.8425
   40.575    0.6144
   40.590    0.6846
   40.605    0.6846
   40.620    0.6846
   40.635    0.6144
   40.650    0.7723
   40.665    0.8074
   40.680    0.7197
   40.695    0.6846
   40.710    0.7021
   40.725    0.7197
   40.740    0.7021
   40.755    0.6319
   40.770    0.8250
   40.785    0.6670
   40.800    0.7723
   40.815    0.8425
   40.830    0.6846
   40.845    0.8250
   40.860    0.7899
   40.875    0.8074
   40.890    0.8074
   40.905    0.8250
   40.920    0.6846
   40.935    0.6319
   40.950    0.7197
   40.965    0.7548
   40.980    0.6495
   40.995    0.6846
   41.010    0.6319
   41.025    0.8250
   41.040    0.8250
   41.055    0.8250
   41.070    0.8425
   41.085    0.6846
   41.100    0.6670
   41.115    0.7548
   41.130    0.8425
   41.145    0.7021
   41.160    0.7197
   41.175    0.7021
   41.190    0.7372
   41.205    0.7197
   41.220    0.8425
   41.235    0.6319
   41.250    0.6846
   41.265    0.7548
   41.280    0.6495
   41.295    0.7548
   41.310    0.7021
   41.325    0.6495
   41.340    0.5968
   41.355    0.6670
   41.370    0.8074
   41.385    0.4915
   41.400    0.7021
   41.415    0.6495
   41.430    0.6144
   41.445    0.7372
   41.460    0.8425
   41.475    0.6670
   41.490    0.6144
   41.505    0.5441
   41.520    0.6319
   41.535    0.5090
   41.550    0.5617
   41.565    0.6495
   41.580    0.6495
   41.595    0.6495
   41.610    0.5968
   41.625    0.6319
   41.640    0.6846
   41.655    0.6495
   41.670    0.6670
   41.685    0.8777
   41.700    0.8601
   41.715    0.7197
   41.730    0.7021
   41.745    0.6495
   41.760    0.6319
   41.775    0.6319
   41.790    0.7548
   41.805    0.7372
   41.820    0.7197
   41.835    0.6319
   41.850    0.7723
   41.865    0.6144
   41.880    0.6495
   41.895    0.5968
   41.910    0.6319
   41.925    0.6319
   41.940    0.7197
   41.955    0.7021
   41.970    0.7372
   41.985    0.5090
   42.000    0.6670
   42.015    0.8250
   42.030    0.8250
   42.045    0.8777
   42.060    0.7548
   42.075    0.7372
   42.090    0.7723
   42.105    0.8074
   42.120    0.7723
   42.135    0.7548
   42.150    0.8425
   42.165    0.8074
   42.180    0.6846
   42.195    0.6495
   42.210    0.5793
   42.225    0.7197
   42.240    0.8777
   42.255    0.5793
   42.270    0.6319
   42.285    0.7723
   42.300    0.8250
   42.315    0.5266
   42.330    0.6495
   42.345    0.7723
   42.360    0.7548
   42.375    0.7372
   42.390    0.6670
   42.405    0.7197
   42.420    0.5968
   42.435    0.7372
   42.450    0.7021
   42.465    0.5793
   42.480    0.6846
   42.495    0.6670
   42.510    0.5441
   42.525    0.5793
   42.540    0.7021
   42.555    0.5968
   42.570    0.7723
   42.585    0.6846
   42.600    0.7021
   42.615    0.5617
   42.630    0.6495
   42.645    0.7548
   42.660    0.6144
   42.675    0.5266
   42.690    0.7723
   42.705    0.7372
   42.720    0.7723
   42.735    0.7899
   42.750    0.6144
   42.765    0.7548
   42.780    0.7899
   42.795    0.7548
   42.810    0.8952
   42.825    0.6670
   42.840    0.6495
   42.855    0.5968
   42.870    0.5793
   42.885    0.6319
   42.900    0.7899
   42.915    0.7548
   42.930    0.7548
   42.945    0.6846
   42.960    0.5441
   42.975    0.9128
   42.990    0.7372
   43.005    0.7548
   43.020    0.7197
   43.035    0.5266
   43.050    0.5441
   43.065    0.7372
   43.080    0.7723
   43.095    0.6846
   43.110    0.6495
   43.125    0.7899
   43.140    0.8425
   43.155    0.7899
   43.170    0.7723
   43.185    0.5793
   43.200    0.6846
   43.215    0.7548
   43.230    0.7548
   43.245    0.8425
   43.260    0.9830
   43.275    0.8250
   43.290    0.8777
   43.305    0.8425
   43.320    0.4739
   43.335    0.6319
   43.350    0.6319
   43.365    0.6670
   43.380    0.7548
   43.395    0.6670
   43.410    0.7197
   43.425    0.6319
   43.440    0.7548
   43.455    0.7548
   43.470    0.6319
   43.485    0.7197
   43.500    0.8777
   43.515    0.6319
   43.530    0.7197
   43.545    0.6144
   43.560    0.9303
   43.575    0.7372
   43.590    0.6670
   43.605    0.7723
   43.620    0.6670
   43.635    0.7021
   43.650    0.7548
   43.665    0.7197
   43.680    0.7021
   43.695    0.7021
   43.710    0.7899
   43.725    0.7021
   43.740    0.7197
   43.755    0.7723
   43.770    0.7197
   43.785    0.5968
   43.800    0.7197
   43.815    0.8250
   43.830    0.7197
   43.845    0.8425
   43.860    0.7899
   43.875    0.7548
   43.890    0.8074
   43.905    0.5793
   43.920    0.6319
   43.935    0.8425
   43.950    0.7197
   43.965    0.5617
   43.980    0.7197
   43.995    0.7723
   44.010    0.8777
   44.025    0.8601
   44.040    0.6846
   44.055    0.7548
   44.070    0.6144
   44.085    0.6319
   44.100    0.8250
   44.115    0.7021
   44.130    0.8601
   44.145    0.8777
   44.160    0.9128
   44.175    0.8952
   44.190    0.7723
   44.205    0.5441
   44.220    0.6495
   44.235    0.5617
   44.250    0.8425
   44.265    0.7372
   44.280    0.6319
   44.295    0.6319
   44.310    0.6495
   44.325    0.6846
   44.340    0.7021
   44.355    0.7548
   44.370    0.7197
   44.385    0.7548
   44.400    0.8250
   44.415    0.6846
   44.430    0.8250
   44.445    0.6144
   44.460    0.6144
   44.475    0.5793
   44.490    0.6846
   44.505    0.7021
   44.520    0.7372
   44.535    0.7021
   44.550    0.5793
   44.565    0.5617
   44.580    0.7899
   44.595    0.8250
   44.610    0.9128
   44.625    0.6670
   44.640    0.6846
   44.655    0.7372
   44.670    0.8250
   44.685    0.8601
   44.700    0.8250
   44.715    0.5968
   44.730    0.6144
   44.745    0.7197
   44.760    0.7197
   44.775    0.6670
   44.790    0.5266
   44.805    0.6670
   44.820    0.7372
   44.835    0.6319
   44.850    0.7197
   44.865    0.6144
   44.880    0.5793
   44.895    0.6670
   44.910    0.5968
   44.925    0.6670
   44.940    0.7021
   44.955    0.5090
   44.970    0.6495
   44.985    0.5793
   45.000    0.5968
   45.015    0.5266
   45.030    0.5090
   45.045    0.6670
   45.060    0.7899
   45.075    0.7372
   45.090    0.6319
   45.105    0.7723
   45.120    0.8601
   45.135    0.7548
   45.150    0.6846
   45.165    0.7899
   45.180    0.7021
   45.195    0.6846
   45.210    0.7197
   45.225    0.6495
   45.240    0.6495
   45.255    0.6319
   45.270    0.6670
   45.285    0.7548
   45.300    0.7548
   45.315    0.6670
   45.330    0.6495
   45.345    0.6495
   45.360    0.6144
   45.375    0.7372
   45.390    0.5968
   45.405    0.5090
   45.420    0.5617
   45.435    0.7372
   45.450    0.7372
   45.465    0.6670
   45.480    0.6495
   45.495    0.6319
   45.510    0.4739
   45.525    0.4739
   45.540    0.5617
   45.555    0.8074
   45.570    0.6144
   45.585    0.5793
   45.600    0.5968
   45.615    0.6495
   45.630    0.6144
   45.645    0.4739
   45.660    0.5441
   45.675    0.7197
   45.690    0.6670
   45.705    0.5441
   45.720    0.6846
   45.735    0.5617
   45.750    0.6495
   45.765    0.6144
   45.780    0.6144
   45.795    0.5617
   45.810    0.7021
   45.825    0.8250
   45.840    0.7372
   45.855    0.7197
   45.870    0.6846
   45.885    0.6319
   45.900    0.6846
   45.915    0.6495
   45.930    0.6670
   45.945    0.5617
   45.960    0.4915
   45.975    0.6319
   45.990    0.7723
   46.005    0.5441
   46.020    0.4037
   46.035    0.4915
   46.050    0.5968
   46.065    0.5968
   46.080    0.6319
   46.095    0.7723
   46.110    0.8425
   46.125    0.7021
   46.140    0.6670
   46.155    0.7723
   46.170    0.6495
   46.185    0.6319
   46.200    0.8601
   46.215    0.8601
   46.230    0.9128
   46.245    0.7372
   46.260    0.8250
   46.275    0.8425
   46.290    0.6495
   46.305    0.6495
   46.320    0.5968
   46.335    0.6670
   46.350    0.5968
   46.365    0.5090
   46.380    0.5968
   46.395    0.7723
   46.410    0.6846
   46.425    0.6846
   46.440    0.5793
   46.455    0.6846
   46.470    0.7021
   46.485    0.5968
   46.500    0.5441
   46.515    0.5968
   46.530    0.7372
   46.545    0.5793
   46.560    0.7548
   46.575    0.7899
   46.590    0.6495
   46.605    0.5441
   46.620    0.6495
   46.635    0.7723
   46.650    0.8074
   46.665    0.7021
   46.680    0.7372
   46.695    0.8250
   46.710    0.7372
   46.725    0.6319
   46.740    0.6670
   46.755    0.7197
   46.770    0.7197
   46.785    0.7372
   46.800    0.6846
   46.815    0.6319
   46.830    0.8250
   46.845    0.7723
   46.860    0.7021
   46.875    0.5968
   46.890    0.5968
   46.905    0.6319
   46.920    0.7548
   46.935    0.8777
   46.950    0.4739
   46.965    0.5266
   46.980    0.5968
   46.995    0.7723
   47.010    0.6495
   47.025    0.5968
   47.040    0.7372
   47.055    0.6495
   47.070    0.5793
   47.085    0.5441
   47.100    0.5441
   47.115    0.4915
   47.130    0.5441
   47.145    0.7372
   47.160    0.7197
   47.175    0.5617
   47.190    0.7723
   47.205    0.7021
   47.220    0.6319
   47.235    0.6319
   47.250    0.5617
   47.265    0.8250
   47.280    0.7723
   47.295    0.7548
   47.310    0.7899
   47.325    0.6144
   47.340    0.6319
   47.355    0.5441
   47.370    0.9128
   47.385    0.7548
   47.400    0.5441
   47.415    0.5617
   47.430    0.4564
   47.445    0.5090
   47.460    0.6846
   47.475    0.7899
   47.490    0.4564
   47.505    0.5793
   47.520    0.6670
   47.535    0.5266
   47.550    0.6319
   47.565    0.6495
   47.580    0.5441
   47.595    0.7372
   47.610    0.8074
   47.625    0.7021
   47.640    0.5968
   47.655    0.5617
   47.670    0.8425
   47.685    0.6670
   47.700    0.6495
   47.715    0.6144
   47.730    0.5090
   47.745    0.6846
   47.760    0.6670
   47.775    0.7021
   47.790    0.5968
   47.805    0.7197
   47.820    0.5793
   47.835    0.6670
   47.850    0.7021
   47.865    0.8601
   47.880    0.7197
   47.895    0.6846
   47.910    0.5968
   47.925    0.8250
   47.940    0.7548
   47.955    0.6670
   47.970    0.6319
   47.985    0.5793
   48.000    0.5441
   48.015    0.6846
   48.030    0.6670
   48.045    0.5968
   48.060    0.6144
   48.075    0.7899
   48.090    0.7021
   48.105    0.4388
   48.120    0.5617
   48.135    0.5090
   48.150    0.5441
   48.165    0.5617
   48.180    0.5968
   48.195    0.5793
   48.210    0.7021
   48.225    0.7197
   48.240    0.8074
   48.255    0.6495
   48.270    0.6495
   48.285    0.6144
   48.300    0.6495
   48.315    0.8250
   48.330    0.6670
   48.345    0.7021
   48.360    0.7899
   48.375    0.8250
   48.390    0.7021
   48.405    0.5441
   48.420    0.8250
   48.435    0.7723
   48.450    0.6495
   48.465    0.5793
   48.480    0.6846
   48.495    0.6319
   48.510    0.6319
   48.525    0.7197
   48.540    0.6846
   48.555    0.5968
   48.570    0.6670
   48.585    0.6319
   48.600    0.6495
   48.615    0.6846
   48.630    0.6144
   48.645    0.6495
   48.660    0.6495
   48.675    0.7548
   48.690    0.6144
   48.705    0.8074
   48.720    0.6846
   48.735    0.7197
   48.750    0.5968
   48.765    0.7197
   48.780    0.5617
   48.795    0.5617
   48.810    0.6670
   48.825    0.7899
   48.840    0.6495
   48.855    0.5090
   48.870    0.4739
   48.885    0.5617
   48.900    0.5617
   48.915    0.6144
   48.930    0.6670
   48.945    0.7372
   48.960    0.6670
   48.975    0.7372
   48.990    0.5090
   49.005    0.7197
   49.020    0.6670
   49.035    0.6495
   49.050    0.5968
   49.065    0.6846
   49.080    0.6495
   49.095    0.7021
   49.110    0.7021
   49.125    0.5266
   49.140    0.7021
   49.155    0.5617
   49.170    0.6846
   49.185    0.7548
   49.200    0.6670
   49.215    0.7899
   49.230    0.6495
   49.245    0.5968
   49.260    0.7021
   49.275    0.5090
   49.290    0.6495
   49.305    0.6846
   49.320    0.6144
   49.335    0.7021
   49.350    0.6670
   49.365    0.6319
   49.380    0.5793
   49.395    0.7548
   49.410    0.8425
   49.425    0.5793
   49.440    0.5793
   49.455    0.6144
   49.470    0.6319
   49.485    0.6846
   49.500    0.6495
   49.515    0.4739
   49.530    0.6319
   49.545    0.5441
   49.560    0.7372
   49.575    0.6846
   49.590    0.4915
   49.605    0.6495
   49.620    0.5617
   49.635    0.5266
   49.650    0.7197
   49.665    0.6670
   49.680    0.6319
   49.695    0.5793
   49.710    0.7548
   49.725    0.7197
   49.740    0.5793
   49.755    0.4213
   49.770    0.4739
   49.785    0.5617
   49.800    0.6144
   49.815    0.7197
   49.830    0.5441
   49.845    0.5793
   49.860    0.6319
   49.875    0.4739
   49.890    0.6144
   49.905    0.7372
   49.920    0.6144
   49.935    0.7021
   49.950    0.5266
   49.965    0.6495
   49.980    0.7197
