    1.500   16.4824
    1.515   16.3139
    1.530   16.6614
    1.545   16.2085
    1.560   15.7135
    1.575   15.6293
    1.590   15.2396
    1.605   15.3555
    1.620   14.9658
    1.635   15.0922
    1.650   15.3028
    1.665   14.8394
    1.680   14.1654
    1.695   14.3760
    1.710   13.9863
    1.725   13.6072
    1.740   13.3860
    1.755   13.3860
    1.770   13.0384
    1.785   12.8594
    1.800   12.8699
    1.815   12.8910
    1.830   13.4071
    1.845   13.2070
    1.860   12.9542
    1.875   12.7120
    1.890   12.4487
    1.905   12.1643
    1.920   12.1011
    1.935   12.0379
    1.950   11.6166
    1.965   11.1532
    1.980   11.6798
    1.995   11.4903
    2.010   11.5534
    2.025   11.5219
    2.040   11.3112
    2.055   11.4376
    2.070   10.9531
    2.085   10.2054
    2.100   10.2370
    2.115   10.8057
    2.130   10.9637
    2.145   10.6266
    2.160   10.5108
    2.175    9.7420
    2.190   10.2791
    2.205   10.1527
    2.220   10.0685
    2.235   10.1316
    2.250   10.1632
    2.265    9.8684
    2.280    9.2364
    2.295    9.5419
    2.310    9.8894
    2.325    9.4576
    2.340    9.4892
    2.355    8.8362
    2.370    9.0469
    2.385    9.4787
    2.400    9.0574
    2.415    8.8678
    2.430    9.0995
    2.445    9.1101
    2.460    9.0890
    2.475    8.9205
    2.490    9.1311
    2.505    8.7836
    2.520    8.8573
    2.535    8.7204
    2.550    8.6888
    2.565    8.6572
    2.580    8.7730
    2.595    8.9205
    2.610    9.0995
    2.625    8.7625
    2.640    8.7625
    2.655    8.3623
    2.670    8.5097
    2.685    8.6045
    2.700    8.2780
    2.715    8.4571
    2.730    8.2675
    2.745    8.6467
    2.760    8.2991
    2.775    8.4255
    2.790    8.1833
    2.805    8.5835
    2.820    8.6045
    2.835    8.2780
    2.850    8.5519
    2.865    8.5413
    2.880    8.6256
    2.895    8.6677
    2.910    9.1943
    2.925    8.6993
    2.940    8.4150
    2.955    8.7730
    2.970    9.1311
    2.985    9.2575
    3.000    9.3418
    3.015    9.2364
    3.030    9.3418
    3.045    9.6893
    3.060    9.6577
    3.075    9.8578
    3.090   10.7214
    3.105   10.8373
    3.120   11.1532
    3.135   11.4376
    3.150   11.3323
    3.165   11.5113
    3.180   12.5645
    3.195   13.2491
    3.210   12.8383
    3.225   13.2385
    3.240   14.1443
    3.255   14.7130
    3.270   15.6187
    3.285   16.1664
    3.300   17.1037
    3.315   18.3992
    3.330   18.6098
    3.345   20.2001
    3.360   21.0216
    3.375   22.0432
    3.390   23.6230
    3.405   24.3918
    3.420   26.1822
    3.435   28.0674
    3.450   29.6998
    3.465   31.5008
    3.480   33.2807
    3.495   35.2607
    3.510   37.8410
    3.525   40.1790
    3.540   43.5387
    3.555   47.3512
    3.570   49.1101
    3.585   53.4281
    3.600   56.9352
    3.615   60.5793
    3.630   65.2449
    3.645   71.0058
    3.660   77.8515
    3.675   83.8652
    3.690   90.8373
    3.705   99.6103
    3.720  110.2054
    3.735  121.0321
    3.750  135.1027
    3.765  152.3855
    3.780  171.4903
    3.795  196.8931
    3.810  229.8052
    3.825  277.1669
    3.840  319.0416
    3.855  341.7062
    3.870  338.1359
    3.885  298.1043
    3.900  231.2480
    3.915  143.0016
    3.930   69.0890
    3.945   31.7009
    3.960   18.3465
    3.975   13.5229
    3.990   10.7425
    4.005    9.7525
    4.020    8.0990
    4.035    7.9305
    4.050    7.6988
    4.065    7.1933
    4.080    7.0037
    4.095    6.6245
    4.110    6.5613
    4.125    6.4350
    4.140    6.1295
    4.155    6.1190
    4.170    6.0769
    4.185    6.2243
    4.200    5.9610
    4.215    5.7083
    4.230    5.6556
    4.245    5.5714
    4.260    5.5398
    4.275    5.7188
    4.290    5.6345
    4.305    5.2975
    4.320    5.6240
    4.335    5.4450
    4.350    5.2870
    4.365    5.4660
    4.380    5.5608
    4.395    5.5924
    4.410    5.2343
    4.425    5.2027
    4.440    5.4976
    4.455    5.3186
    4.470    5.0764
    4.485    4.8973
    4.500    5.1711
    4.515    5.3502
    4.530    5.1395
    4.545    5.0237
    4.560    5.1290
    4.575    5.3607
    4.590    4.9184
    4.605    4.8657
    4.620    5.0237
    4.635    4.6972
    4.650    4.6972
    4.665    4.7815
    4.680    5.0764
    4.695    5.1080
    4.710    5.1290
    4.725    5.2765
    4.740    5.2133
    4.755    4.9710
    4.770    4.8236
    4.785    4.6867
    4.800    5.0342
    4.815    4.8236
    4.830    4.8552
    4.845    5.3923
    4.860    5.2870
    4.875    4.8447
    4.890    4.7499
    4.905    5.0553
    4.920    4.8657
    4.935    5.3607
    4.950    5.4766
    4.965    5.5819
    4.980    4.9184
    4.995    5.4871
    5.010    5.6556
    5.025    5.5924
    5.040    6.2454
    5.055    6.0874
    5.070    6.4876
    5.085    6.5298
    5.100    6.7193
    5.115    7.0774
    5.130    7.1301
    5.145    7.5829
    5.160    7.8673
    5.175    7.8673
    5.190    8.6467
    5.205    9.3944
    5.220   10.1211
    5.235   10.8478
    5.250   10.9426
    5.265   11.5850
    5.280   12.3012
    5.295   13.5545
    5.310   15.3660
    5.325   15.5556
    5.340   17.3249
    5.355   19.2101
    5.370   21.5377
    5.385   24.4234
    5.400   27.5619
    5.415   31.9221
    5.430   37.6830
    5.445   44.8131
    5.460   52.5224
    5.475   58.4413
    5.490   59.7262
    5.505   53.6598
    5.520   45.3081
    5.535   32.0379
    5.550   19.3576
    5.565   10.4581
    5.580    7.5935
    5.595    6.3086
    5.610    5.5082
    5.625    4.9605
    5.640    5.3818
    5.655    5.2870
    5.670    4.8763
    5.685    4.9500
    5.700    4.8447
    5.715    4.7393
    5.730    4.6867
    5.745    4.5498
    5.760    4.5603
    5.775    4.5603
    5.790    4.9500
    5.805    4.7920
    5.820    4.4128
    5.835    4.3286
    5.850    4.4234
    5.865    4.5708
    5.880    4.3813
    5.895    4.4655
    5.910    4.3602
    5.925    4.5076
    5.940    4.7183
    5.955    4.5076
    5.970    4.3075
    5.985    4.4655
    6.000    4.1180
    6.015    4.3075
    6.030    4.2022
    6.045    4.1496
    6.060    4.5076
    6.075    4.2970
    6.090    4.3813
    6.105    4.3181
    6.120    4.5287
    6.135    4.4234
    6.150    4.5498
    6.165    4.3497
    6.180    4.4655
    6.195    3.9284
    6.210    4.2233
    6.225    4.3707
    6.240    4.5603
    6.255    4.5498
    6.270    4.7604
    6.285    4.5603
    6.300    4.2338
    6.315    4.1811
    6.330    4.5182
    6.345    4.3075
    6.360    4.2549
    6.375    4.3075
    6.390    4.2759
    6.405    4.0969
    6.420    4.5182
    6.435    4.4971
    6.450    4.6972
    6.465    4.6024
    6.480    4.6235
    6.495    4.6656
    6.510    4.7183
    6.525    4.8025
    6.540    4.7920
    6.555    5.0869
    6.570    5.4766
    6.585    5.1501
    6.600    5.0448
    6.615    5.5608
    6.630    5.7083
    6.645    6.2138
    6.660    6.4771
    6.675    6.8036
    6.690    7.8462
    6.705    9.0153
    6.720    9.7841
    6.735    9.3523
    6.750    8.7625
    6.765    8.3834
    6.780    7.2143
    6.795    5.8557
    6.810    4.8657
    6.825    4.4655
    6.840    4.1706
    6.855    4.4550
    6.870    4.6235
    6.885    4.5919
    6.900    4.4655
    6.915    4.2338
    6.930    4.3181
    6.945    4.2865
    6.960    4.6024
    6.975    4.4339
    6.990    4.0969
    7.005    4.4550
    7.020    4.4339
    7.035    4.2970
    7.050    4.2233
    7.065    4.1285
    7.080    4.3075
    7.095    4.2654
    7.110    4.3181
    7.125    4.3707
    7.140    4.6867
    7.155    4.3813
    7.170    4.2549
    7.185    4.2759
    7.200    3.8757
    7.215    4.1917
    7.230    4.6761
    7.245    4.5814
    7.260    4.3181
    7.275    4.0653
    7.290    3.6756
    7.305    3.8547
    7.320    4.1706
    7.335    4.3286
    7.350    4.2127
    7.365    4.2549
    7.380    4.4234
    7.395    3.9600
    7.410    4.0442
    7.425    4.3602
    7.440    4.5498
    7.455    4.5603
    7.470    4.4971
    7.485    4.7815
    7.500    4.8868
    7.515    4.6972
    7.530    4.9394
    7.545    5.0764
    7.560    5.3186
    7.575    5.4239
    7.590    5.9926
    7.605    6.1822
    7.620    6.4560
    7.635    6.9194
    7.650    7.7304
    7.665    8.3412
    7.680    9.2048
    7.695   10.2159
    7.710   11.1638
    7.725   13.7967
    7.740   16.1348
    7.755   18.5150
    7.770   20.5898
    7.785   22.3802
    7.800   21.0005
    7.815   18.9152
    7.830   14.3760
    7.845   10.1001
    7.860    6.8246
    7.875    5.1817
    7.890    4.8131
    7.905    4.4866
    7.920    4.2022
    7.935    3.9600
    7.950    4.0758
    7.965    4.3391
    7.980    4.0758
    7.995    4.1811
    8.010    4.2127
    8.025    4.0442
    8.040    4.1496
    8.055    4.2338
    8.070    4.2549
    8.085    4.2654
    8.100    3.8863
    8.115    4.1074
    8.130    4.0442
    8.145    3.9179
    8.160    4.1074
    8.175    3.8441
    8.190    3.8652
    8.205    3.8757
    8.220    3.9389
    8.235    4.1496
    8.250    4.0758
    8.265    3.9389
    8.280    4.2022
    8.295    3.8020
    8.310    4.0021
    8.325    4.0758
    8.340    3.8968
    8.355    4.0021
    8.370    4.0864
    8.385    4.1180
    8.400    3.8441
    8.415    3.8757
    8.430    4.0442
    8.445    4.3075
    8.460    4.2970
    8.475    3.7915
    8.490    3.8968
    8.505    3.8125
    8.520    3.9389
    8.535    4.2549
    8.550    4.1496
    8.565    4.3497
    8.580    4.3181
    8.595    4.4760
    8.610    4.7077
    8.625    5.0342
    8.640    4.9921
    8.655    5.4450
    8.670    5.4555
    8.685    6.1822
    8.700    7.3407
    8.715    7.2670
    8.730    6.6877
    8.745    6.3402
    8.760    5.5398
    8.775    5.0974
    8.790    4.1601
    8.805    4.1706
    8.820    3.8125
    8.835    3.7915
    8.850    3.8336
    8.865    3.8968
    8.880    3.6230
    8.895    3.7388
    8.910    4.1074
    8.925    3.9494
    8.940    3.8652
    8.955    3.8757
    8.970    3.9389
    8.985    3.6546
    9.000    3.9600
    9.015    4.1285
    9.030    4.1601
    9.045    3.9179
    9.060    4.0653
    9.075    3.6862
    9.090    4.0442
    9.105    4.0864
    9.120    4.1074
    9.135    3.9494
    9.150    3.7493
    9.165    3.8652
    9.180    4.1180
    9.195    4.0232
    9.210    3.9600
    9.225    4.0337
    9.240    4.2443
    9.255    4.0442
    9.270    4.2022
    9.285    4.0337
    9.300    4.1180
    9.315    4.6340
    9.330    4.8868
    9.345    4.6130
    9.360    5.3186
    9.375    5.8978
    9.390    6.1506
    9.405    6.6456
    9.420    7.1090
    9.435    8.1201
    9.450    9.4681
    9.465   10.7109
    9.480   12.8383
    9.495   15.4713
    9.510   18.5571
    9.525   22.2959
    9.540   24.7393
    9.555   24.3602
    9.570   22.7172
    9.585   19.9579
    9.600   15.4081
    9.615   10.9321
    9.630    6.8457
    9.645    5.0342
    9.660    4.4655
    9.675    4.5182
    9.690    4.1285
    9.705    4.0653
    9.720    3.8231
    9.735    4.0021
    9.750    3.8863
    9.765    3.7599
    9.780    3.7809
    9.795    4.1390
    9.810    3.8125
    9.825    3.5282
    9.840    4.0548
    9.855    3.8125
    9.870    3.6440
    9.885    3.7704
    9.900    3.9916
    9.915    3.8441
    9.930    3.9073
    9.945    4.0021
    9.960    3.9600
    9.975    3.6230
    9.990    3.5914
   10.005    3.5808
   10.020    3.9389
   10.035    4.0021
   10.050    4.0442
   10.065    4.0442
   10.080    4.1285
   10.095    3.9810
   10.110    4.2443
   10.125    4.2865
   10.140    4.1074
   10.155    4.4234
   10.170    4.7077
   10.185    4.9816
   10.200    4.9816
   10.215    5.7925
   10.230    5.7820
   10.245    6.5087
   10.260    7.6883
   10.275    9.0890
   10.290    9.4892
   10.305   11.0269
   10.320   11.2586
   10.335   11.1427
   10.350   10.5951
   10.365    9.4050
   10.380    7.2565
   10.395    5.7399
   10.410    4.5603
   10.425    4.1074
   10.440    3.8968
   10.455    3.9389
   10.470    3.8020
   10.485    3.6230
   10.500    3.6230
   10.515    3.9600
   10.530    3.6230
   10.545    3.5703
   10.560    3.7599
   10.575    3.7283
   10.590    3.8863
   10.605    3.7704
   10.620    3.8968
   10.635    3.7177
   10.650    3.4650
   10.665    3.6124
   10.680    3.6651
   10.695    3.5176
   10.710    3.8968
   10.725    3.7809
   10.740    3.6862
   10.755    3.7809
   10.770    3.6546
   10.785    3.6651
   10.800    3.6019
   10.815    3.6335
   10.830    3.8441
   10.845    4.0653
   10.860    4.2549
   10.875    4.5603
   10.890    4.8868
   10.905    5.0974
   10.920    4.9710
   10.935    5.4239
   10.950    5.7820
   10.965    6.7509
   10.980    7.1722
   10.995    8.7414
   11.010   10.6582
   11.025   11.7114
   11.040   11.9747
   11.055   11.7536
   11.070   10.2475
   11.085    8.7098
   11.100    7.5513
   11.115    5.6135
   11.130    4.3075
   11.145    4.1390
   11.160    4.0337
   11.175    4.1917
   11.190    3.7915
   11.205    3.5914
   11.220    3.5914
   11.235    3.9810
   11.250    3.7072
   11.265    3.6546
   11.280    3.6756
   11.295    3.7388
   11.310    3.5914
   11.325    3.6230
   11.340    3.7177
   11.355    3.6230
   11.370    3.8020
   11.385    3.5598
   11.400    3.5387
   11.415    3.7072
   11.430    3.6440
   11.445    3.6440
   11.460    3.6019
   11.475    3.8336
   11.490    3.6862
   11.505    3.9179
   11.520    4.1706
   11.535    4.1811
   11.550    4.3602
   11.565    4.5708
   11.580    4.7077
   11.595    4.9289
   11.610    5.4134
   11.625    6.0453
   11.640    6.6456
   11.655    7.5092
   11.670    8.9731
   11.685   10.2896
   11.700   11.3744
   11.715   12.3223
   11.730   12.3012
   11.745   11.3639
   11.760   10.0158
   11.775    7.4882
   11.790    5.7609
   11.805    4.5603
   11.820    3.8652
   11.835    3.7704
   11.850    3.8757
   11.865    3.6230
   11.880    3.5492
   11.895    3.8441
   11.910    3.6651
   11.925    3.5387
   11.940    3.6019
   11.955    3.7809
   11.970    3.4860
   11.985    3.1912
   12.000    3.3491
   12.015    3.4229
   12.030    3.7915
   12.045    3.2754
   12.060    3.5071
   12.075    3.4966
   12.090    3.6967
   12.105    3.6967
   12.120    3.3913
   12.135    3.9494
   12.150    3.7704
   12.165    3.6019
   12.180    3.4650
   12.195    3.8336
   12.210    3.8757
   12.225    3.8125
   12.240    3.7283
   12.255    3.7599
   12.270    4.2233
   12.285    4.2759
   12.300    4.4971
   12.315    4.9394
   12.330    5.1711
   12.345    5.2765
   12.360    5.4344
   12.375    5.1185
   12.390    5.4871
   12.405    4.6761
   12.420    4.2127
   12.435    3.8125
   12.450    3.7599
   12.465    3.5598
   12.480    3.3702
   12.495    3.5071
   12.510    3.5703
   12.525    3.5703
   12.540    3.4650
   12.555    3.4544
   12.570    3.3070
   12.585    3.6967
   12.600    3.6651
   12.615    3.6862
   12.630    3.3702
   12.645    3.3491
   12.660    3.5808
   12.675    3.5598
   12.690    3.3491
   12.705    3.3070
   12.720    3.4334
   12.735    3.6230
   12.750    3.6967
   12.765    3.4966
   12.780    3.7704
   12.795    3.5914
   12.810    3.7388
   12.825    3.8441
   12.840    4.4023
   12.855    4.5392
   12.870    4.2970
   12.885    5.0658
   12.900    5.9084
   12.915    6.4455
   12.930    7.3196
   12.945    8.1411
   12.960    8.6151
   12.975    8.2043
   12.990    7.8673
   13.005    7.2670
   13.020    6.2559
   13.035    5.1395
   13.050    4.2970
   13.065    3.9389
   13.080    3.5492
   13.095    3.5176
   13.110    3.8020
   13.125    3.7072
   13.140    3.9916
   13.155    3.4544
   13.170    3.6862
   13.185    3.6230
   13.200    3.6967
   13.215    3.4966
   13.230    3.2543
   13.245    3.5387
   13.260    3.5808
   13.275    3.2965
   13.290    3.4334
   13.305    3.3702
   13.320    3.6335
   13.335    3.6124
   13.350    3.3386
   13.365    3.7072
   13.380    3.6651
   13.395    3.5703
   13.410    3.7177
   13.425    3.9179
   13.440    3.9810
   13.455    3.9916
   13.470    4.5603
   13.485    4.7920
   13.500    5.1080
   13.515    5.5608
   13.530    6.4244
   13.545    6.5929
   13.560    6.3612
   13.575    5.8873
   13.590    5.6135
   13.605    4.7499
   13.620    4.0758
   13.635    3.4966
   13.650    3.4966
   13.665    3.6967
   13.680    3.6124
   13.695    3.6019
   13.710    3.4860
   13.725    3.4439
   13.740    3.4018
   13.755    3.7072
   13.770    3.2333
   13.785    3.3807
   13.800    3.5176
   13.815    3.2333
   13.830    3.3597
   13.845    3.6967
   13.860    3.4334
   13.875    3.7809
   13.890    3.3597
   13.905    3.3913
   13.920    3.6546
   13.935    3.5387
   13.950    3.5914
   13.965    4.0337
   13.980    3.9705
   13.995    4.2549
   14.010    4.8973
   14.025    4.8131
   14.040    5.0132
   14.055    6.2559
   14.070    6.7615
   14.085    7.2670
   14.100    7.9094
   14.115    7.8252
   14.130    7.4039
   14.145    6.9405
   14.160    6.0769
   14.175    5.0237
   14.190    4.2127
   14.205    3.9284
   14.220    3.8125
   14.235    3.5808
   14.250    3.6862
   14.265    3.3281
   14.280    3.4229
   14.295    3.5808
   14.310    3.5282
   14.325    3.2333
   14.340    3.0437
   14.355    3.2227
   14.370    3.4018
   14.385    3.2333
   14.400    3.4966
   14.415    3.6124
   14.430    3.6230
   14.445    3.2227
   14.460    3.3807
   14.475    3.4755
   14.490    3.5282
   14.505    3.6651
   14.520    3.4229
   14.535    3.6862
   14.550    3.5176
   14.565    3.5387
   14.580    3.2859
   14.595    3.4123
   14.610    3.4544
   14.625    3.2543
   14.640    3.0858
   14.655    3.2859
   14.670    3.6440
   14.685    3.5808
   14.700    3.4650
   14.715    3.3913
   14.730    3.4018
   14.745    3.4650
   14.760    3.4650
   14.775    3.5176
   14.790    3.3597
   14.805    3.4123
   14.820    3.6019
   14.835    3.4229
   14.850    3.3702
   14.865    3.6335
   14.880    3.5598
   14.895    3.5492
   14.910    3.4860
   14.925    3.3807
   14.940    3.5071
   14.955    3.5176
   14.970    3.3175
   14.985    3.6756
   15.000    3.5808
   15.015    3.8125
   15.030    3.4123
   15.045    3.5176
   15.060    3.6967
   15.075    3.9284
   15.090    4.3391
   15.105    4.4971
   15.120    5.0658
   15.135    4.9184
   15.150    5.2659
   15.165    5.2659
   15.180    5.0237
   15.195    4.9921
   15.210    4.6656
   15.225    4.1811
   15.240    3.6124
   15.255    3.5071
   15.270    3.4123
   15.285    3.3491
   15.300    3.2438
   15.315    3.3702
   15.330    3.3386
   15.345    3.2438
   15.360    3.4544
   15.375    3.2543
   15.390    3.2754
   15.405    3.4966
   15.420    3.4755
   15.435    3.3491
   15.450    3.4018
   15.465    3.5598
   15.480    3.4650
   15.495    3.6546
   15.510    3.5914
   15.525    3.5703
   15.540    3.3807
   15.555    3.2965
   15.570    3.5387
   15.585    3.7177
   15.600    3.3175
   15.615    3.2859
   15.630    3.7388
   15.645    3.4860
   15.660    3.3281
   15.675    3.3175
   15.690    3.3702
   15.705    3.4755
   15.720    3.4123
   15.735    3.3175
   15.750    3.3702
   15.765    3.4755
   15.780    3.3070
   15.795    3.6335
   15.810    3.5914
   15.825    3.4650
   15.840    3.3175
   15.855    3.3491
   15.870    3.4123
   15.885    3.3597
   15.900    3.2333
   15.915    3.6230
   15.930    3.6967
   15.945    3.2754
   15.960    3.3070
   15.975    3.3913
   15.990    3.6019
   16.005    3.4439
   16.020    3.6019
   16.035    3.5492
   16.050    3.7177
   16.065    3.6862
   16.080    4.1285
   16.095    4.4339
   16.110    4.7499
   16.125    4.7604
   16.140    5.0448
   16.155    5.2027
   16.170    4.7709
   16.185    4.6235
   16.200    4.3813
   16.215    4.3286
   16.230    3.7177
   16.245    3.5492
   16.260    3.5703
   16.275    3.7072
   16.290    3.2859
   16.305    3.3175
   16.320    3.3175
   16.335    3.6124
   16.350    3.4439
   16.365    3.4229
   16.380    3.4650
   16.395    3.6019
   16.410    3.6967
   16.425    3.2333
   16.440    3.3175
   16.455    3.6546
   16.470    3.4334
   16.485    3.3597
   16.500    3.6546
   16.515    3.8125
   16.530    4.2443
   16.545    4.1390
   16.560    4.0653
   16.575    4.5603
   16.590    4.8131
   16.605    5.3186
   16.620    5.3081
   16.635    5.0342
   16.650    5.1711
   16.665    4.8763
   16.680    4.4550
   16.695    3.9600
   16.710    3.6651
   16.725    3.5282
   16.740    3.4018
   16.755    3.6230
   16.770    3.5492
   16.785    3.6124
   16.800    3.2965
   16.815    3.3070
   16.830    3.7493
   16.845    3.4229
   16.860    3.4966
   16.875    3.2227
   16.890    3.6124
   16.905    3.7493
   16.920    3.7915
   16.935    3.8441
   16.950    3.8020
   16.965    3.7493
   16.980    4.2865
   16.995    4.3391
   17.010    4.3075
   17.025    5.1711
   17.040    6.0979
   17.055    6.4876
   17.070    6.7193
   17.085    6.9300
   17.100    7.1827
   17.115    7.0563
   17.130    6.0242
   17.145    5.3502
   17.160    4.9816
   17.175    4.1074
   17.190    3.6967
   17.205    3.6335
   17.220    3.5914
   17.235    3.5071
   17.250    3.4123
   17.265    3.7704
   17.280    3.4334
   17.295    3.4439
   17.310    3.7177
   17.325    3.6124
   17.340    3.2754
   17.355    3.2649
   17.370    3.4650
   17.385    3.6124
   17.400    3.4650
   17.415    3.5914
   17.430    3.5176
   17.445    3.3175
   17.460    3.4544
   17.475    3.8336
   17.490    3.9916
   17.505    3.8336
   17.520    4.4128
   17.535    4.4550
   17.550    4.2127
   17.565    3.7599
   17.580    4.0232
   17.595    3.9810
   17.610    3.9389
   17.625    3.3807
   17.640    3.5492
   17.655    3.4966
   17.670    3.4860
   17.685    3.4439
   17.700    3.4860
   17.715    3.5914
   17.730    3.3913
   17.745    3.6440
   17.760    3.5492
   17.775    3.4966
   17.790    3.4123
   17.805    3.2965
   17.820    3.6230
   17.835    3.3807
   17.850    3.7704
   17.865    3.2965
   17.880    3.4544
   17.895    3.6862
   17.910    3.8231
   17.925    3.9284
   17.940    4.1811
   17.955    4.4128
   17.970    4.1706
   17.985    4.0653
   18.000    4.2127
   18.015    3.8441
   18.030    3.7599
   18.045    3.7915
   18.060    3.4860
   18.075    3.7809
   18.090    3.8125
   18.105    3.3807
   18.120    3.4755
   18.135    3.6124
   18.150    3.4123
   18.165    3.5703
   18.180    3.5598
   18.195    3.7177
   18.210    3.6862
   18.225    3.1806
   18.240    3.2649
   18.255    3.6440
   18.270    3.4650
   18.285    3.5808
   18.300    3.7388
   18.315    3.5176
   18.330    3.9916
   18.345    4.2443
   18.360    4.1285
   18.375    4.0548
   18.390    4.3181
   18.405    4.5076
   18.420    4.4760
   18.435    4.3813
   18.450    4.2654
   18.465    3.8441
   18.480    3.7915
   18.495    3.4439
   18.510    3.5071
   18.525    3.6651
   18.540    3.2965
   18.555    3.3807
   18.570    3.6756
   18.585    3.5808
   18.600    3.7283
   18.615    3.4123
   18.630    3.4334
   18.645    3.2965
   18.660    3.2227
   18.675    3.2649
   18.690    3.3070
   18.705    3.5282
   18.720    3.5914
   18.735    3.6967
   18.750    3.5282
   18.765    4.0442
   18.780    3.8863
   18.795    4.0548
   18.810    4.2233
   18.825    3.9389
   18.840    3.9705
   18.855    3.9284
   18.870    3.6651
   18.885    3.5598
   18.900    3.4650
   18.915    3.6862
   18.930    3.4860
   18.945    3.5492
   18.960    3.2859
   18.975    3.5492
   18.990    3.5071
   19.005    2.9700
   19.020    3.0753
   19.035    3.3281
   19.050    3.3702
   19.065    3.4544
   19.080    3.6230
   19.095    3.3070
   19.110    3.2965
   19.125    3.4544
   19.140    3.3597
   19.155    3.3702
   19.170    3.2438
   19.185    3.0542
   19.200    3.3597
   19.215    3.5176
   19.230    3.6335
   19.245    3.5914
   19.260    3.7599
   19.275    3.4334
   19.290    3.3807
   19.305    3.3702
   19.320    3.2543
   19.335    3.3597
   19.350    3.5176
   19.365    3.2438
   19.380    3.3702
   19.395    3.2859
   19.410    3.3491
   19.425    3.4123
   19.440    3.6335
   19.455    3.6440
   19.470    3.7599
   19.485    3.6124
   19.500    3.4439
   19.515    3.4966
   19.530    3.7072
   19.545    4.1180
   19.560    3.9810
   19.575    4.1285
   19.590    4.9289
   19.605    5.0342
   19.620    5.0342
   19.635    5.0342
   19.650    4.9078
   19.665    4.9816
   19.680    4.5392
   19.695    4.1811
   19.710    3.7283
   19.725    3.7388
   19.740    3.6335
   19.755    3.2438
   19.770    3.2754
   19.785    3.4650
   19.800    3.5071
   19.815    3.5703
   19.830    3.7177
   19.845    3.4544
   19.860    3.2543
   19.875    3.3807
   19.890    3.4966
   19.905    3.3807
   19.920    3.5387
   19.935    3.6019
   19.950    3.7704
   19.965    3.7072
   19.980    3.9179
   19.995    3.8125
   20.010    3.6019
   20.025    3.8547
   20.040    3.6440
   20.055    3.5808
   20.070    3.7704
   20.085    3.5703
   20.100    3.6862
   20.115    3.5071
   20.130    3.3175
   20.145    3.2649
   20.160    3.4123
   20.175    3.4018
   20.190    3.4650
   20.205    3.4860
   20.220    3.4229
   20.235    3.4334
   20.250    3.3597
   20.265    3.4966
   20.280    3.6967
   20.295    3.9494
   20.310    3.9073
   20.325    4.1285
   20.340    4.8447
   20.355    5.4976
   20.370    5.8241
   20.385    6.3402
   20.400    6.8246
   20.415    7.2459
   20.430    6.9089
   20.445    6.3507
   20.460    5.6767
   20.475    5.4239
   20.490    4.8657
   20.505    4.2022
   20.520    4.1074
   20.535    3.6440
   20.550    3.7283
   20.565    3.5282
   20.580    3.5808
   20.595    3.5176
   20.610    3.5598
   20.625    3.6546
   20.640    3.7599
   20.655    3.4018
   20.670    3.3175
   20.685    3.4229
   20.700    3.1490
   20.715    3.3597
   20.730    3.4439
   20.745    3.3281
   20.760    3.6440
   20.775    3.5598
   20.790    3.7704
   20.805    3.4966
   20.820    3.3807
   20.835    3.4334
   20.850    3.4334
   20.865    3.5598
   20.880    3.6546
   20.895    3.7388
   20.910    3.6230
   20.925    3.2017
   20.940    3.0542
   20.955    3.5914
   20.970    3.2438
   20.985    3.4544
   21.000    3.6230
   21.015    3.3597
   21.030    3.5176
   21.045    3.6124
   21.060    3.5703
   21.075    3.3491
   21.090    3.3491
   21.105    3.5387
   21.120    3.4123
   21.135    3.8231
   21.150    3.3702
   21.165    3.6546
   21.180    3.4334
   21.195    3.4018
   21.210    3.4018
   21.225    3.5598
   21.240    3.5598
   21.255    3.3807
   21.270    3.2227
   21.285    3.7388
   21.300    3.6019
   21.315    3.3702
   21.330    3.0964
   21.345    3.2754
   21.360    3.0753
   21.375    3.2859
   21.390    3.3491
   21.405    3.5387
   21.420    3.5387
   21.435    3.4334
   21.450    3.4229
   21.465    3.5808
   21.480    3.4229
   21.495    3.2017
   21.510    3.2122
   21.525    3.6335
   21.540    3.6019
   21.555    3.7072
   21.570    3.4860
   21.585    3.2859
   21.600    3.4544
   21.615    3.4650
   21.630    3.6546
   21.645    3.4755
   21.660    3.6019
   21.675    3.1912
   21.690    3.2649
   21.705    3.4018
   21.720    3.5808
   21.735    3.3913
   21.750    3.5703
   21.765    3.4650
   21.780    3.4860
   21.795    3.7388
   21.810    3.9600
   21.825    3.8968
   21.840    4.2865
   21.855    4.5708
   21.870    5.0448
   21.885    5.0553
   21.900    5.1711
   21.915    4.9710
   21.930    4.9184
   21.945    4.6761
   21.960    4.3181
   21.975    4.1074
   21.990    3.4544
   22.005    3.5387
   22.020    3.7599
   22.035    3.4860
   22.050    3.5598
   22.065    3.5598
   22.080    3.4650
   22.095    3.4650
   22.110    3.2754
   22.125    3.4229
   22.140    3.5387
   22.155    3.5071
   22.170    3.6546
   22.185    3.8863
   22.200    3.6967
   22.215    3.9705
   22.230    3.8441
   22.245    4.4444
   22.260    4.4971
   22.275    4.0442
   22.290    3.7072
   22.305    3.9284
   22.320    4.0442
   22.335    3.8441
   22.350    3.7388
   22.365    3.6546
   22.380    3.4123
   22.395    3.6124
   22.410    3.8441
   22.425    3.4334
   22.440    3.7493
   22.455    3.6230
   22.470    3.7283
   22.485    3.8652
   22.500    4.3391
   22.515    4.5498
   22.530    4.9394
   22.545    5.3502
   22.560    6.0032
   22.575    6.6351
   22.590    6.7930
   22.605    6.7615
   22.620    6.8036
   22.635    6.2981
   22.650    5.9294
   22.665    5.2343
   22.680    4.9816
   22.695    4.2233
   22.710    3.7283
   22.725    3.5808
   22.740    3.4966
   22.755    3.5703
   22.770    3.5914
   22.785    3.6440
   22.800    3.7493
   22.815    3.9073
   22.830    3.8757
   22.845    4.2338
   22.860    4.5182
   22.875    5.0974
   22.890    6.2875
   22.905    6.7193
   22.920    7.0563
   22.935    7.7725
   22.950    7.7830
   22.965    7.4776
   22.980    7.3618
   22.995    6.7930
   23.010    5.9400
   23.025    4.9605
   23.040    4.2549
   23.055    3.9810
   23.070    3.8125
   23.085    3.6546
   23.100    3.4544
   23.115    3.4544
   23.130    3.0858
   23.145    3.2333
   23.160    4.0442
   23.175    3.7283
   23.190    3.6019
   23.205    3.6651
   23.220    3.9179
   23.235    4.2654
   23.250    4.1811
   23.265    4.1180
   23.280    4.6656
   23.295    4.6656
   23.310    4.7077
   23.325    4.5287
   23.340    4.4655
   23.355    4.1285
   23.370    3.7809
   23.385    3.3913
   23.400    3.7072
   23.415    3.6230
   23.430    3.7809
   23.445    3.6230
   23.460    3.4334
   23.475    3.3913
   23.490    3.3597
   23.505    3.4966
   23.520    3.2543
   23.535    3.4018
   23.550    3.8757
   23.565    3.6124
   23.580    3.8547
   23.595    3.9284
   23.610    3.8336
   23.625    3.8652
   23.640    3.6335
   23.655    3.9810
   23.670    3.7388
   23.685    3.6756
   23.700    3.4229
   23.715    3.7493
   23.730    3.7704
   23.745    3.6335
   23.760    3.5176
   23.775    3.4544
   23.790    3.5598
   23.805    3.7283
   23.820    3.6019
   23.835    3.7072
   23.850    3.3597
   23.865    3.5071
   23.880    3.6335
   23.895    4.0758
   23.910    4.5498
   23.925    4.3391
   23.940    4.5919
   23.955    4.7709
   23.970    4.6024
   23.985    4.8447
   24.000    4.3286
   24.015    4.0864
   24.030    3.8547
   24.045    3.6546
   24.060    3.5176
   24.075    3.2122
   24.090    3.6546
   24.105    3.5282
   24.120    3.3386
   24.135    3.5387
   24.150    3.5914
   24.165    3.8125
   24.180    3.8547
   24.195    3.5282
   24.210    3.3597
   24.225    3.5914
   24.240    3.3702
   24.255    3.6440
   24.270    3.4860
   24.285    3.3386
   24.300    3.5492
   24.315    3.4229
   24.330    3.4439
   24.345    3.3807
   24.360    3.2965
   24.375    3.1490
   24.390    3.5176
   24.405    3.2859
   24.420    3.2754
   24.435    3.5387
   24.450    3.5914
   24.465    3.1701
   24.480    3.1701
   24.495    3.5387
   24.510    3.3281
   24.525    3.1596
   24.540    3.5914
   24.555    3.5387
   24.570    3.6124
   24.585    3.6756
   24.600    3.4334
   24.615    3.8231
   24.630    3.5703
   24.645    3.2859
   24.660    3.3386
   24.675    3.6967
   24.690    3.4544
   24.705    3.5808
   24.720    3.4439
   24.735    3.0858
   24.750    3.6756
   24.765    3.3491
   24.780    3.4018
   24.795    3.2333
   24.810    3.4439
   24.825    3.3070
   24.840    3.6440
   24.855    3.4439
   24.870    3.3913
   24.885    3.4650
   24.900    3.8125
   24.915    3.3070
   24.930    3.3702
   24.945    3.3597
   24.960    3.6124
   24.975    3.6967
   24.990    3.6019
   25.005    3.2438
   25.020    3.1069
   25.035    3.1701
   25.050    3.5282
   25.065    3.5492
   25.080    3.2754
   25.095    3.3491
   25.110    3.4439
   25.125    3.3913
   25.140    3.2333
   25.155    3.9073
   25.170    3.8968
   25.185    3.8757
   25.200    3.7809
   25.215    3.7493
   25.230    3.9284
   25.245    3.7177
   25.260    3.9600
   25.275    3.7072
   25.290    3.6335
   25.305    3.9389
   25.320    3.7072
   25.335    3.6124
   25.350    3.6546
   25.365    3.6756
   25.380    3.6651
   25.395    3.3175
   25.410    3.3070
   25.425    3.5387
   25.440    3.5387
   25.455    3.3070
   25.470    3.5492
   25.485    3.8547
   25.500    3.7177
   25.515    3.5808
   25.530    3.3281
   25.545    3.7177
   25.560    4.1706
   25.575    3.6862
   25.590    3.5282
   25.605    3.6440
   25.620    3.6967
   25.635    3.6967
   25.650    3.4966
   25.665    3.4860
   25.680    3.3175
   25.695    3.3597
   25.710    3.4334
   25.725    3.6967
   25.740    3.5282
   25.755    3.5176
   25.770    3.7072
   25.785    4.2654
   25.800    4.5498
   25.815    5.2659
   25.830    5.3818
   25.845    5.5608
   25.860    6.3718
   25.875    5.8557
   25.890    5.5187
   25.905    5.4660
   25.920    5.2343
   25.935    4.7499
   25.950    4.1180
   25.965    4.0864
   25.980    3.4650
   25.995    3.4123
   26.010    3.3070
   26.025    3.4650
   26.040    3.4123
   26.055    3.2333
   26.070    3.3175
   26.085    3.4018
   26.100    3.6546
   26.115    3.6019
   26.130    3.4334
   26.145    3.5071
   26.160    3.4650
   26.175    3.4966
   26.190    3.5387
   26.205    3.5808
   26.220    3.3913
   26.235    3.4334
   26.250    3.7283
   26.265    3.5598
   26.280    3.2754
   26.295    3.3175
   26.310    3.2438
   26.325    3.2122
   26.340    3.0753
   26.355    3.2543
   26.370    3.6862
   26.385    3.7809
   26.400    3.7704
   26.415    4.1285
   26.430    3.9494
   26.445    3.9284
   26.460    4.2865
   26.475    4.3813
   26.490    3.9810
   26.505    3.7072
   26.520    3.5914
   26.535    3.8125
   26.550    3.6440
   26.565    3.4860
   26.580    3.3281
   26.595    3.2017
   26.610    3.3702
   26.625    3.3070
   26.640    3.4123
   26.655    3.2227
   26.670    3.4018
   26.685    3.2333
   26.700    3.4439
   26.715    3.3913
   26.730    3.3491
   26.745    3.2333
   26.760    3.2754
   26.775    3.2227
   26.790    3.1280
   26.805    3.4334
   26.820    3.5282
   26.835    3.2017
   26.850    3.3702
   26.865    3.4439
   26.880    3.3281
   26.895    3.2649
   26.910    3.3281
   26.925    3.2754
   26.940    3.3491
   26.955    3.3281
   26.970    3.5071
   26.985    3.7809
   27.000    3.9073
   27.015    4.1601
   27.030    4.2022
   27.045    4.1285
   27.060    4.4550
   27.075    4.5392
   27.090    4.1390
   27.105    4.2022
   27.120    4.2022
   27.135    3.9810
   27.150    3.8757
   27.165    3.7072
   27.180    3.4650
   27.195    3.4755
   27.210    3.3386
   27.225    3.2438
   27.240    3.3070
   27.255    3.4755
   27.270    3.4439
   27.285    3.2333
   27.300    3.3386
   27.315    3.4018
   27.330    3.1385
   27.345    3.2859
   27.360    3.6335
   27.375    3.5492
   27.390    3.5387
   27.405    3.5598
   27.420    3.4544
   27.435    3.5598
   27.450    3.1596
   27.465    3.2227
   27.480    3.4650
   27.495    3.4018
   27.510    3.4018
   27.525    3.3175
   27.540    3.0648
   27.555    3.3807
   27.570    3.5703
   27.585    3.6862
   27.600    3.6862
   27.615    4.0021
   27.630    3.9600
   27.645    3.8125
   27.660    3.8231
   27.675    3.7599
   27.690    3.6230
   27.705    3.5387
   27.720    3.5492
   27.735    3.6230
   27.750    3.5387
   27.765    3.1490
   27.780    2.9384
   27.795    3.2649
   27.810    3.3070
   27.825    3.3175
   27.840    3.3386
   27.855    3.3807
   27.870    3.5387
   27.885    3.3070
   27.900    3.3702
   27.915    3.6546
   27.930    3.5598
   27.945    3.7915
   27.960    4.0337
   27.975    3.6862
   27.990    3.3386
   28.005    3.3386
   28.020    3.5176
   28.035    3.4650
   28.050    3.4860
   28.065    3.5492
   28.080    3.3597
   28.095    3.3175
   28.110    3.4123
   28.125    3.4123
   28.140    3.5808
   28.155    3.7388
   28.170    4.1601
   28.185    4.0126
   28.200    4.2022
   28.215    4.6130
   28.230    4.2970
   28.245    4.2759
   28.260    4.1496
   28.275    4.1917
   28.290    3.7915
   28.305    3.6651
   28.320    3.6756
   28.335    3.5071
   28.350    3.3386
   28.365    3.6967
   28.380    3.7493
   28.395    3.3913
   28.410    3.4439
   28.425    3.5387
   28.440    3.8757
   28.455    3.9389
   28.470    4.2443
   28.485    3.9073
   28.500    4.3181
   28.515    4.1917
   28.530    4.2549
   28.545    4.0758
   28.560    3.8125
   28.575    3.4334
   28.590    3.3491
   28.605    3.6546
   28.620    3.3702
   28.635    3.3702
   28.650    3.2333
   28.665    2.8963
   28.680    3.2649
   28.695    3.2227
   28.710    3.4123
   28.725    3.3070
   28.740    3.1701
   28.755    3.4755
   28.770    3.2649
   28.785    3.3702
   28.800    3.2122
   28.815    3.3175
   28.830    3.4544
   28.845    2.9384
   28.860    3.1280
   28.875    3.2017
   28.890    3.3070
   28.905    3.0542
   28.920    3.3175
   28.935    3.2438
   28.950    2.9384
   28.965    3.2438
   28.980    3.3175
   28.995    3.2122
   29.010    3.6230
   29.025    3.5176
   29.040    3.6967
   29.055    3.4966
   29.070    3.5492
   29.085    3.2754
   29.100    3.4123
   29.115    3.5387
   29.130    3.4966
   29.145    3.6756
   29.160    3.4229
   29.175    3.2017
   29.190    3.2017
   29.205    3.3281
   29.220    3.0858
   29.235    3.2122
   29.250    3.7493
   29.265    3.5598
   29.280    3.7493
   29.295    4.0126
   29.310    3.8968
   29.325    3.8757
   29.340    4.1811
   29.355    4.1285
   29.370    4.1390
   29.385    3.8125
   29.400    3.6651
   29.415    3.4229
   29.430    3.4229
   29.445    3.0437
   29.460    3.0121
   29.475    3.0964
   29.490    3.1912
   29.505    3.2859
   29.520    3.4755
   29.535    3.0121
   29.550    3.1490
   29.565    3.4755
   29.580    3.2965
   29.595    3.1385
   29.610    3.2859
   29.625    3.4544
   29.640    3.2438
   29.655    3.1701
   29.670    2.9700
   29.685    3.1069
   29.700    3.2754
   29.715    3.3175
   29.730    3.2227
   29.745    3.2438
   29.760    3.2122
   29.775    3.2333
   29.790    3.3702
   29.805    3.3913
   29.820    3.5598
   29.835    3.5071
   29.850    3.4544
   29.865    3.7704
   29.880    3.5282
   29.895    3.5598
   29.910    3.4334
   29.925    3.3597
   29.940    3.4018
   29.955    3.4650
   29.970    3.5492
   29.985    3.6335
   30.000    3.1701
   30.015    3.1912
   30.030    3.2649
   30.045    3.2333
   30.060    3.2227
   30.075    3.2227
   30.090    3.1596
   30.105    3.2438
   30.120    3.5282
   30.135    3.3913
   30.150    3.4334
   30.165    3.1806
   30.180    3.2649
   30.195    3.2543
   30.210    3.2017
   30.225    3.1280
   30.240    3.0226
   30.255    3.1806
   30.270    2.9700
   30.285    3.0121
   30.300    3.0964
   30.315    2.8120
   30.330    3.1912
   30.345    3.3491
   30.360    3.0753
   30.375    3.1806
   30.390    3.6124
   30.405    3.4334
   30.420    3.3491
   30.435    3.4966
   30.450    3.4123
   30.465    3.2543
   30.480    3.0542
   30.495    3.2122
   30.510    3.3070
   30.525    3.2227
   30.540    3.2859
   30.555    3.0964
   30.570    3.3175
   30.585    3.3070
   30.600    3.3070
   30.615    3.2438
   30.630    3.3175
   30.645    3.4966
   30.660    3.8757
   30.675    3.8125
   30.690    3.6335
   30.705    3.6124
   30.720    3.7388
   30.735    3.3702
   30.750    3.1806
   30.765    3.1174
   30.780    3.4544
   30.795    3.2227
   30.810    3.0858
   30.825    3.0121
   30.840    3.3175
   30.855    2.9384
   30.870    3.0753
   30.885    3.0648
   30.900    3.2859
   30.915    3.2122
   30.930    3.4018
   30.945    3.1912
   30.960    3.2227
   30.975    2.9279
   30.990    3.3491
   31.005    3.4018
   31.020    3.1174
   31.035    3.0753
   31.050    3.0016
   31.065    2.8541
   31.080    3.0332
   31.095    3.0437
   31.110    2.8963
   31.125    2.8647
   31.140    2.7804
   31.155    3.0964
   31.170    3.0016
   31.185    2.7383
   31.200    2.9384
   31.215    2.8752
   31.230    2.9068
   31.245    3.1385
   31.260    3.1174
   31.275    3.0648
   31.290    2.8752
   31.305    3.1806
   31.320    3.1280
   31.335    3.1280
   31.350    2.9700
   31.365    3.3175
   31.380    3.2859
   31.395    3.4334
   31.410    3.5387
   31.425    3.4966
   31.440    3.6862
   31.455    3.5703
   31.470    3.1174
   31.485    3.2122
   31.500    3.4334
   31.515    3.5282
   31.530    3.4650
   31.545    3.1806
   31.560    3.2649
   31.575    3.1701
   31.590    3.0332
   31.605    3.0437
   31.620    3.1596
   31.635    3.1596
   31.650    3.1912
   31.665    3.2543
   31.680    3.2122
   31.695    3.0121
   31.710    3.2859
   31.725    3.2543
   31.740    3.1806
   31.755    3.0121
   31.770    2.9068
   31.785    3.1385
   31.800    3.0753
   31.815    3.1280
   31.830    3.0121
   31.845    2.9595
   31.860    3.0542
   31.875    3.0753
   31.890    3.2017
   31.905    2.9595
   31.920    2.9384
   31.935    3.3175
   31.950    3.3702
   31.965    3.2543
   31.980    3.2859
   31.995    3.0437
   32.010    2.9595
   32.025    3.1280
   32.040    2.8963
   32.055    3.0753
   32.070    3.0648
   32.085    2.9910
   32.100    3.1912
   32.115    2.9279
   32.130    3.0648
   32.145    3.1069
   32.160    3.3175
   32.175    3.0437
   32.190    2.9805
   32.205    3.0964
   32.220    2.6119
   32.235    3.1069
   32.250    3.2122
   32.265    3.0858
   32.280    3.0648
   32.295    3.0753
   32.310    3.0753
   32.325    3.0226
   32.340    2.8963
   32.355    3.1385
   32.370    2.9805
   32.385    2.8752
   32.400    3.0964
   32.415    3.0542
   32.430    3.3281
   32.445    3.1174
   32.460    3.0858
   32.475    3.1490
   32.490    3.0016
   32.505    3.0858
   32.520    2.8857
   32.535    2.7067
   32.550    3.1912
   32.565    3.3175
   32.580    2.9173
   32.595    3.0226
   32.610    3.0858
   32.625    3.0648
   32.640    3.0226
   32.655    2.7909
   32.670    3.0121
   32.685    3.0858
   32.700    3.0437
   32.715    3.1596
   32.730    2.9173
   32.745    3.0332
   32.760    2.9805
   32.775    2.9805
   32.790    2.9279
   32.805    3.1596
   32.820    3.0858
   32.835    2.8541
   32.850    3.1912
   32.865    3.4334
   32.880    3.0753
   32.895    2.9068
   32.910    3.3281
   32.925    3.0016
   32.940    3.2122
   32.955    3.3702
   32.970    3.1701
   32.985    3.4229
   33.000    3.3175
   33.015    3.2438
   33.030    3.0437
   33.045    3.0753
   33.060    2.9068
   33.075    2.9700
   33.090    2.7699
   33.105    2.8963
   33.120    2.8963
   33.135    2.7383
   33.150    2.7699
   33.165    3.0226
   33.180    2.7909
   33.195    2.7172
   33.210    2.9279
   33.225    2.8541
   33.240    2.9068
   33.255    2.7383
   33.270    2.7593
   33.285    2.9173
   33.300    2.8963
   33.315    2.8015
   33.330    3.0332
   33.345    2.8857
   33.360    2.7067
   33.375    2.9489
   33.390    2.8120
   33.405    2.8752
   33.420    2.4223
   33.435    2.7488
   33.450    2.8331
   33.465    2.7067
   33.480    2.8436
   33.495    3.1174
   33.510    2.7804
   33.525    3.0542
   33.540    3.0332
   33.555    3.0437
   33.570    2.6224
   33.585    2.7488
   33.600    2.9595
   33.615    2.8541
   33.630    2.6962
   33.645    3.2017
   33.660    2.8331
   33.675    3.0648
   33.690    2.9805
   33.705    3.1912
   33.720    3.1385
   33.735    3.3807
   33.750    2.7383
   33.765    3.0542
   33.780    2.9805
   33.795    2.8015
   33.810    2.7383
   33.825    3.0858
   33.840    3.0964
   33.855    3.3386
   33.870    2.8752
   33.885    3.3070
   33.900    3.4229
   33.915    3.4860
   33.930    3.6230
   33.945    3.4229
   33.960    3.2017
   33.975    3.2543
   33.990    3.2122
   34.005    3.0858
   34.020    3.0332
   34.035    3.2227
   34.050    3.2227
   34.065    3.2227
   34.080    3.1806
   34.095    2.9489
   34.110    2.7909
   34.125    3.0753
   34.140    2.8647
   34.155    3.1069
   34.170    3.1069
   34.185    3.2122
   34.200    3.1280
   34.215    3.2227
   34.230    3.0542
   34.245    3.0121
   34.260    3.0226
   34.275    2.9700
   34.290    3.1912
   34.305    2.8752
   34.320    2.9173
   34.335    2.8331
   34.350    2.9384
   34.365    2.7593
   34.380    2.8541
   34.395    3.0226
   34.410    2.9910
   34.425    3.1912
   34.440    2.7593
   34.455    3.0226
   34.470    3.0226
   34.485    3.0121
   34.500    2.7278
   34.515    2.7278
   34.530    2.7488
   34.545    2.7488
   34.560    2.8120
   34.575    2.9384
   34.590    2.6330
   34.605    2.8225
   34.620    2.8963
   34.635    2.7804
   34.650    2.6435
   34.665    2.8120
   34.680    3.0753
   34.695    2.9489
   34.710    3.0437
   34.725    3.1701
   34.740    3.0542
   34.755    2.9068
   34.770    2.8647
   34.785    2.8857
   34.800    2.8647
   34.815    3.0858
   34.830    3.0332
   34.845    2.9173
   34.860    3.2438
   34.875    2.9279
   34.890    3.0648
   34.905    3.1596
   34.920    3.1806
   34.935    3.0332
   34.950    3.1596
   34.965    3.0753
   34.980    2.8436
   34.995    2.7383
   35.010    2.9068
   35.025    2.8436
   35.040    2.9173
   35.055    2.7593
   35.070    2.9279
   35.085    2.8857
   35.100    3.0226
   35.115    2.7593
   35.130    2.6330
   35.145    2.8331
   35.160    2.8541
   35.175    2.8647
   35.190    2.8647
   35.205    2.6119
   35.220    2.7909
   35.235    2.8541
   35.250    2.7593
   35.265    2.8857
   35.280    2.5698
   35.295    3.0226
   35.310    2.9384
   35.325    2.7488
   35.340    2.6856
   35.355    2.8120
   35.370    2.8225
   35.385    2.7593
   35.400    2.8436
   35.415    2.6330
   35.430    2.6962
   35.445    2.7383
   35.460    2.6646
   35.475    2.7488
   35.490    2.4961
   35.505    3.0332
   35.520    2.8541
   35.535    3.0226
   35.550    3.1385
   35.565    2.9595
   35.580    2.8857
   35.595    2.8541
   35.610    2.8331
   35.625    2.8963
   35.640    2.6751
   35.655    2.7909
   35.670    2.8436
   35.685    2.9700
   35.700    2.8436
   35.715    2.8752
   35.730    2.7909
   35.745    2.7278
   35.760    2.9910
   35.775    3.2227
   35.790    2.8857
   35.805    2.9279
   35.820    2.8225
   35.835    2.8857
   35.850    2.7699
   35.865    2.8752
   35.880    2.7067
   35.895    2.7909
   35.910    2.7909
   35.925    2.9173
   35.940    2.9805
   35.955    3.1174
   35.970    2.8647
   35.985    2.7593
   36.000    2.7172
   36.015    2.7383
   36.030    2.8752
   36.045    2.8225
   36.060    3.0121
   36.075    2.8436
   36.090    2.8541
   36.105    2.8331
   36.120    2.7067
   36.135    2.6962
   36.150    2.9279
   36.165    3.0437
   36.180    2.7593
   36.195    2.7488
   36.210    2.9489
   36.225    2.8647
   36.240    3.0332
   36.255    2.7278
   36.270    3.0016
   36.285    2.6330
   36.300    2.8963
   36.315    2.8331
   36.330    2.6224
   36.345    2.7909
   36.360    2.8647
   36.375    2.9068
   36.390    2.8225
   36.405    2.8541
   36.420    2.8963
   36.435    2.6962
   36.450    2.6751
   36.465    2.8541
   36.480    2.7699
   36.495    2.6224
   36.510    2.7593
   36.525    2.7278
   36.540    2.7067
   36.555    2.6856
   36.570    2.6540
   36.585    2.6962
   36.600    2.7067
   36.615    2.6856
   36.630    2.8857
   36.645    3.1912
   36.660    2.8436
   36.675    2.8541
   36.690    2.6751
   36.705    2.6962
   36.720    2.7804
   36.735    3.1490
   36.750    2.9384
   36.765    2.8436
   36.780    2.7067
   36.795    2.8857
   36.810    2.6962
   36.825    2.9173
   36.840    2.7067
   36.855    2.9279
   36.870    2.7172
   36.885    2.6646
   36.900    2.5803
   36.915    2.6224
   36.930    2.5698
   36.945    2.7699
   36.960    2.6224
   36.975    2.8225
   36.990    2.9279
   37.005    2.8752
   37.020    2.9595
   37.035    3.0226
   37.050    2.8225
   37.065    2.9595
   37.080    2.9068
   37.095    2.7699
   37.110    3.1701
   37.125    3.3175
   37.140    3.1069
   37.155    2.9489
   37.170    3.1069
   37.185    3.1806
   37.200    3.1596
   37.215    3.1280
   37.230    2.8752
   37.245    2.6962
   37.260    2.8857
   37.275    2.8752
   37.290    2.8225
   37.305    2.7383
   37.320    2.7278
   37.335    2.9068
   37.350    2.7909
   37.365    2.5803
   37.380    2.6962
   37.395    2.8331
   37.410    2.9068
   37.425    2.6119
   37.440    2.6962
   37.455    2.8963
   37.470    2.6962
   37.485    2.5171
   37.500    2.9489
   37.515    3.0121
   37.530    2.7172
   37.545    2.7172
   37.560    2.7067
   37.575    2.8963
   37.590    2.7909
   37.605    3.0226
   37.620    2.9910
   37.635    2.7488
   37.650    2.8541
   37.665    2.7278
   37.680    2.6119
   37.695    2.6014
   37.710    2.5803
   37.725    2.7383
   37.740    2.8225
   37.755    2.7804
   37.770    2.6540
   37.785    2.6856
   37.800    2.6540
   37.815    2.8857
   37.830    2.6119
   37.845    2.8120
   37.860    2.7804
   37.875    2.8436
   37.890    2.7488
   37.905    2.8647
   37.920    2.8857
   37.935    2.9910
   37.950    2.7488
   37.965    2.6224
   37.980    2.8752
   37.995    2.7488
   38.010    2.5487
   38.025    2.7172
   38.040    2.8436
   38.055    2.8752
   38.070    2.4329
   38.085    2.4645
   38.100    2.7699
   38.115    2.8541
   38.130    2.7593
   38.145    2.7593
   38.160    2.8541
   38.175    2.6435
   38.190    2.8752
   38.205    2.7278
   38.220    2.6014
   38.235    2.5487
   38.250    2.5698
   38.265    2.5698
   38.280    2.6540
   38.295    2.8120
   38.310    2.9068
   38.325    2.8647
   38.340    2.8752
   38.355    2.7909
   38.370    2.9384
   38.385    2.5276
   38.400    2.8015
   38.415    2.6962
   38.430    2.8015
   38.445    2.7593
   38.460    2.7804
   38.475    2.7278
   38.490    2.9489
   38.505    2.8752
   38.520    2.6330
   38.535    2.7804
   38.550    2.6962
   38.565    2.5487
   38.580    2.4013
   38.595    2.5698
   38.610    2.5171
   38.625    2.5066
   38.640    2.4539
   38.655    2.6646
   38.670    2.4013
   38.685    2.5592
   38.700    2.7488
   38.715    2.8963
   38.730    2.6856
   38.745    2.8331
   38.760    2.7488
   38.775    2.9489
   38.790    2.7593
   38.805    2.6962
   38.820    2.8015
   38.835    2.5592
   38.850    2.5382
   38.865    2.7383
   38.880    2.9279
   38.895    2.8331
   38.910    2.7909
   38.925    2.7278
   38.940    2.5908
   38.955    2.7488
   38.970    2.5171
   38.985    2.7172
   39.000    2.3486
   39.015    2.3907
   39.030    2.7909
   39.045    2.8647
   39.060    2.3170
   39.075    2.6435
   39.090    2.5276
   39.105    2.5276
   39.120    2.3381
   39.135    2.2538
   39.150    2.4118
   39.165    2.7804
   39.180    3.0016
   39.195    2.8436
   39.210    2.9805
   39.225    2.8541
   39.240    2.8015
   39.255    3.1174
   39.270    2.9384
   39.285    2.8963
   39.300    2.8647
   39.315    2.7804
   39.330    2.7383
   39.345    2.8015
   39.360    2.7383
   39.375    2.7383
   39.390    2.5592
   39.405    2.7699
   39.420    3.1596
   39.435    2.9384
   39.450    2.6330
   39.465    2.7488
   39.480    2.8647
   39.495    2.6330
   39.510    2.9279
   39.525    2.9279
   39.540    2.7172
   39.555    2.6014
   39.570    2.7593
   39.585    2.7383
   39.600    2.3697
   39.615    2.2959
   39.630    2.5803
   39.645    2.6224
   39.660    2.4329
   39.675    2.7278
   39.690    2.8857
   39.705    2.8752
   39.720    2.9700
   39.735    2.7172
   39.750    2.7488
   39.765    2.8331
   39.780    2.8541
   39.795    2.8015
   39.810    2.5171
   39.825    2.5487
   39.840    2.8752
   39.855    2.8857
   39.870    2.6856
   39.885    2.6330
   39.900    2.5803
   39.915    2.6014
   39.930    2.5487
   39.945    2.6224
   39.960    2.8015
   39.975    2.8120
   39.990    2.8541
