    1.500   14.5761
    1.515   14.5972
    1.530   14.5550
    1.545   14.4076
    1.560   14.7130
    1.575   14.3339
    1.590   14.1127
    1.605   13.9547
    1.620   13.3544
    1.635   13.0490
    1.650   13.2596
    1.665   12.9858
    1.680   12.9015
    1.695   13.1648
    1.710   13.6598
    1.725   12.6593
    1.740   12.6382
    1.755   12.1432
    1.770   12.2591
    1.785   12.0484
    1.800   11.7852
    1.815   12.3012
    1.830   12.0800
    1.845   11.9010
    1.860   11.4587
    1.875   10.9215
    1.890   11.2164
    1.905   11.5219
    1.920   11.3533
    1.935   11.5850
    1.950   11.5956
    1.965   11.1638
    1.980   11.0163
    1.995   11.3639
    2.010   10.6266
    2.025   10.2791
    2.040   10.4371
    2.055   10.6372
    2.070   10.1527
    2.085   10.1422
    2.100   10.8268
    2.115   10.4055
    2.130   10.2159
    2.145   10.2896
    2.160   10.4581
    2.175   10.4897
    2.190   10.1316
    2.205   10.0053
    2.220   10.2896
    2.235    9.8578
    2.250    9.8789
    2.265   10.1001
    2.280   10.3212
    2.295   10.5951
    2.310   10.5740
    2.325   10.2475
    2.340   10.4265
    2.355   10.0369
    2.370   10.2580
    2.385   10.8373
    2.400   10.3633
    2.415   10.4792
    2.430   10.3633
    2.445   10.7636
    2.460   10.5845
    2.475   10.3633
    2.490   10.4897
    2.505   10.9531
    2.520   10.7741
    2.535   10.5424
    2.550   11.1848
    2.565   11.0269
    2.580   11.6272
    2.595   11.5745
    2.610   11.6061
    2.625   11.4797
    2.640   11.7009
    2.655   12.6277
    2.670   13.2491
    2.685   12.9647
    2.700   13.1438
    2.715   13.4387
    2.730   13.6177
    2.745   14.2707
    2.760   13.9126
    2.775   14.0074
    2.790   14.9026
    2.805   15.1869
    2.820   15.6398
    2.835   15.9136
    2.850   16.9458
    2.865   17.9568
    2.880   18.0621
    2.895   18.5782
    2.910   19.4629
    2.925   20.5477
    2.940   21.5798
    2.955   21.8431
    2.970   23.0121
    2.985   24.1496
    3.000   24.6551
    3.015   26.3191
    3.030   27.4355
    3.045   28.8257
    3.060   30.1106
    3.075   30.9637
    3.090   33.0384
    3.105   34.2496
    3.120   37.1353
    3.135   39.4313
    3.150   41.5798
    3.165   43.5492
    3.180   45.7820
    3.195   49.1522
    3.210   53.9863
    3.225   55.8715
    3.240   58.9047
    3.255   63.4545
    3.270   68.7941
    3.285   74.1654
    3.300   79.0943
    3.315   84.4023
    3.330   92.6172
    3.345   99.5998
    3.360  108.9310
    3.375  116.5666
    3.390  125.4239
    3.405  133.1754
    3.420  136.4086
    3.435  137.8936
    3.450  135.4608
    3.465  124.9079
    3.480  113.2596
    3.495   98.9363
    3.510   85.1290
    3.525   71.1111
    3.540   60.7267
    3.555   52.1432
    3.570   46.2454
    3.585   41.6114
    3.600   39.1785
    3.615   37.0932
    3.630   36.4929
    3.645   35.9136
    3.660   35.9031
    3.675   35.1553
    3.690   37.1669
    3.705   38.1569
    3.720   38.2938
    3.735   39.9579
    3.750   41.4745
    3.765   43.6124
    3.780   45.3081
    3.795   46.8878
    3.810   51.5745
    3.825   56.9668
    3.840   60.3476
    3.855   64.9079
    3.870   66.3402
    3.885   63.6230
    3.900   56.7773
    3.915   52.2064
    3.930   50.3949
    3.945   49.1838
    3.960   51.1954
    3.975   52.6066
    3.990   54.4181
    4.005   53.5440
    4.020   54.1232
    4.035   55.2080
    4.050   56.4402
    4.065   56.6403
    4.080   56.2507
    4.095   55.6398
    4.110   56.2717
    4.125   53.7230
    4.140   52.4276
    4.155   51.1743
    4.170   48.1938
    4.185   46.0979
    4.200   43.7388
    4.215   40.2633
    4.230   37.3354
    4.245   33.6072
    4.260   31.4692
    4.275   27.8462
    4.290   25.0132
    4.305   23.3281
    4.320   20.8004
    4.335   19.3470
    4.350   17.6725
    4.365   16.3349
    4.380   15.2923
    4.395   13.5229
    4.410   12.7014
    4.425   12.0274
    4.440   10.9531
    4.455   10.4160
    4.470   10.4581
    4.485    9.6998
    4.500    9.4892
    4.515    8.9521
    4.530    8.5729
    4.545    8.2570
    4.560    7.7199
    4.575    7.5724
    4.590    7.3407
    4.605    7.1511
    4.620    7.1090
    4.635    6.9932
    4.650    6.8246
    4.665    6.5719
    4.680    6.6877
    4.695    6.4876
    4.710    6.3086
    4.725    6.3823
    4.740    6.2243
    4.755    6.0874
    4.770    5.7399
    4.785    5.5187
    4.800    6.0032
    4.815    6.0453
    4.830    5.4555
    4.845    5.4134
    4.860    5.8031
    4.875    5.6240
    4.890    5.6556
    4.905    5.4028
    4.920    5.3818
    4.935    5.7188
    4.950    5.0026
    4.965    5.0237
    4.980    5.0658
    4.995    5.2238
    5.010    5.0974
    5.025    5.1711
    5.040    5.2659
    5.055    5.1922
    5.070    4.9816
    5.085    4.7920
    5.100    4.8341
    5.115    5.1501
    5.130    5.1922
    5.145    5.0448
    5.160    4.6656
    5.175    5.0974
    5.190    5.4344
    5.205    4.9394
    5.220    5.4450
    5.235    5.7820
    5.250    5.8347
    5.265    6.0979
    5.280    5.6345
    5.295    5.6872
    5.310    5.6135
    5.325    5.8347
    5.340    6.0137
    5.355    6.2875
    5.370    6.4139
    5.385    6.7088
    5.400    7.1722
    5.415    7.1301
    5.430    7.6356
    5.445    8.4571
    5.460    9.6261
    5.475    9.6788
    5.490    8.7414
    5.505    7.9937
    5.520    7.2565
    5.535    6.3507
    5.550    4.9078
    5.565    4.2127
    5.580    4.3391
    5.595    4.4550
    5.610    4.1390
    5.625    4.4550
    5.640    4.3602
    5.655    4.3707
    5.670    4.3181
    5.685    4.3918
    5.700    4.4550
    5.715    4.2654
    5.730    4.1074
    5.745    3.9179
    5.760    4.0864
    5.775    4.0969
    5.790    3.9494
    5.805    4.0758
    5.820    4.1601
    5.835    4.0864
    5.850    3.9916
    5.865    3.7493
    5.880    4.1285
    5.895    4.2338
    5.910    4.3075
    5.925    4.3286
    5.940    4.0758
    5.955    3.7599
    5.970    3.8863
    5.985    3.9179
    6.000    3.8336
    6.015    3.9600
    6.030    4.0758
    6.045    4.2127
    6.060    4.0758
    6.075    4.0126
    6.090    4.0442
    6.105    4.0021
    6.120    3.9600
    6.135    3.8757
    6.150    3.7177
    6.165    4.1917
    6.180    4.0969
    6.195    3.7915
    6.210    3.9073
    6.225    4.2549
    6.240    3.8863
    6.255    3.7388
    6.270    3.9389
    6.285    4.1601
    6.300    4.3286
    6.315    3.9389
    6.330    4.0548
    6.345    4.3497
    6.360    4.1074
    6.375    3.9179
    6.390    3.8441
    6.405    4.3497
    6.420    4.2443
    6.435    4.2233
    6.450    4.3075
    6.465    4.5076
    6.480    4.0969
    6.495    4.5182
    6.510    4.6024
    6.525    4.4866
    6.540    4.5182
    6.555    4.4971
    6.570    4.8341
    6.585    5.2133
    6.600    5.2238
    6.615    5.4976
    6.630    5.6345
    6.645    5.9294
    6.660    6.5508
    6.675    6.5192
    6.690    6.7615
    6.705    7.8146
    6.720    8.2570
    6.735    8.1517
    6.750    8.2675
    6.765    8.4360
    6.780    8.9731
    6.795    9.3102
    6.810    9.6472
    6.825   10.3423
    6.840   11.0479
    6.855   12.4592
    6.870   13.1648
    6.885   14.3655
    6.900   15.5872
    6.915   15.4608
    6.930   16.1559
    6.945   15.9874
    6.960   15.3765
    6.975   14.3655
    6.990   13.1859
    7.005   11.7746
    7.020   10.4371
    7.035    9.4155
    7.050    8.1201
    7.065    7.0563
    7.080    6.8773
    7.095    6.4034
    7.110    5.7504
    7.125    5.5187
    7.140    5.3186
    7.155    5.4239
    7.170    5.5714
    7.185    4.9605
    7.200    4.7920
    7.215    4.6867
    7.230    4.5919
    7.245    4.7288
    7.260    4.7393
    7.275    4.5603
    7.290    4.3181
    7.305    4.5603
    7.320    4.4655
    7.335    4.2759
    7.350    4.5603
    7.365    4.5498
    7.380    4.4339
    7.395    4.6024
    7.410    4.2654
    7.425    4.1390
    7.440    4.5076
    7.455    4.5182
    7.470    4.2022
    7.485    4.3918
    7.500    4.2865
    7.515    4.4128
    7.530    4.4760
    7.545    4.9184
    7.560    4.8341
    7.575    4.7920
    7.590    4.9289
    7.605    4.4023
    7.620    4.7183
    7.635    5.2449
    7.650    5.0553
    7.665    5.0974
    7.680    5.4344
    7.695    5.4239
    7.710    5.4555
    7.725    5.7399
    7.740    6.2138
    7.755    6.3823
    7.770    6.3191
    7.785    6.4034
    7.800    6.7825
    7.815    6.2981
    7.830    6.1927
    7.845    5.6767
    7.860    5.5819
    7.875    5.8136
    7.890    5.8031
    7.905    5.9400
    7.920    5.9294
    7.935    6.2559
    7.950    6.0664
    7.965    5.9189
    7.980    6.2770
    7.995    6.4876
    8.010    6.4876
    8.025    6.6877
    8.040    7.1195
    8.055    7.2670
    8.070    7.0248
    8.085    6.9826
    8.100    7.0669
    8.115    7.3618
    8.130    7.2670
    8.145    7.5513
    8.160    7.5829
    8.175    7.6145
    8.190    7.4671
    8.205    7.6672
    8.220    7.3934
    8.235    7.1722
    8.250    7.3512
    8.265    7.5408
    8.280    7.7830
    8.295    7.5303
    8.310    7.4671
    8.325    7.1933
    8.340    7.3512
    8.355    7.3091
    8.370    7.3723
    8.385    7.4460
    8.400    7.1301
    8.415    7.2565
    8.430    7.2565
    8.445    6.9300
    8.460    6.5087
    8.475    7.1090
    8.490    6.7930
    8.505    6.4771
    8.520    6.3718
    8.535    6.4771
    8.550    5.8031
    8.565    5.6135
    8.580    5.9610
    8.595    5.9189
    8.610    5.8241
    8.625    5.5398
    8.640    5.4660
    8.655    5.3818
    8.670    5.4239
    8.685    5.3186
    8.700    5.0132
    8.715    4.7604
    8.730    4.8973
    8.745    4.7183
    8.760    4.6972
    8.775    4.5603
    8.790    4.3286
    8.805    4.3497
    8.820    4.4023
    8.835    4.3391
    8.850    4.3391
    8.865    3.9705
    8.880    4.0021
    8.895    4.1917
    8.910    4.3813
    8.925    4.1601
    8.940    3.9705
    8.955    4.0548
    8.970    3.7072
    8.985    3.6546
    9.000    3.9284
    9.015    3.8968
    9.030    4.0337
    9.045    3.8652
    9.060    3.8020
    9.075    3.9600
    9.090    3.5071
    9.105    3.5598
    9.120    3.8757
    9.135    3.7809
    9.150    3.7915
    9.165    3.6967
    9.180    3.6546
    9.195    3.5282
    9.210    3.8757
    9.225    3.7283
    9.240    3.7493
    9.255    3.7809
    9.270    3.4334
    9.285    3.7177
    9.300    3.9494
    9.315    3.6019
    9.330    3.7599
    9.345    3.8652
    9.360    3.8968
    9.375    3.7599
    9.390    3.7599
    9.405    3.7388
    9.420    3.7599
    9.435    4.0969
    9.450    4.6024
    9.465    4.6235
    9.480    4.9184
    9.495    4.9605
    9.510    5.3923
    9.525    5.7925
    9.540    6.4666
    9.555    6.3928
    9.570    6.1190
    9.585    5.1817
    9.600    4.4339
    9.615    3.9705
    9.630    3.5703
    9.645    3.2859
    9.660    3.3386
    9.675    3.3386
    9.690    3.5071
    9.705    3.2438
    9.720    3.4755
    9.735    3.6230
    9.750    3.5914
    9.765    3.6756
    9.780    3.4966
    9.795    3.3702
    9.810    3.4229
    9.825    3.5282
    9.840    3.5176
    9.855    3.3281
    9.870    3.4123
    9.885    3.6124
    9.900    3.7493
    9.915    3.8231
    9.930    3.7388
    9.945    3.5176
    9.960    3.7493
    9.975    3.7072
    9.990    3.4018
   10.005    3.4439
   10.020    3.3913
   10.035    3.8231
   10.050    3.4334
   10.065    3.6230
   10.080    3.5598
   10.095    3.3702
   10.110    3.3070
   10.125    3.6124
   10.140    3.5914
   10.155    3.6546
   10.170    3.5071
   10.185    3.7177
   10.200    4.0653
   10.215    4.3707
   10.230    4.0653
   10.245    3.7177
   10.260    3.9705
   10.275    4.6024
   10.290    4.7393
   10.305    4.9289
   10.320    5.0553
   10.335    4.8763
   10.350    4.7393
   10.365    4.7393
   10.380    4.5076
   10.395    4.2338
   10.410    4.2970
   10.425    4.6340
   10.440    4.4971
   10.455    4.3181
   10.470    4.3391
   10.485    4.2233
   10.500    4.1390
   10.515    4.3918
   10.530    4.3813
   10.545    3.9284
   10.560    3.6651
   10.575    3.7704
   10.590    3.7704
   10.605    3.5492
   10.620    3.5703
   10.635    3.6335
   10.650    3.6335
   10.665    3.5387
   10.680    3.6440
   10.695    3.5071
   10.710    3.4650
   10.725    3.4018
   10.740    3.2859
   10.755    3.3070
   10.770    3.3913
   10.785    3.3913
   10.800    3.5598
   10.815    3.3281
   10.830    3.6651
   10.845    3.6440
   10.860    3.6546
   10.875    3.4860
   10.890    3.4860
   10.905    3.4860
   10.920    3.7599
   10.935    3.7072
   10.950    3.6440
   10.965    3.8231
   10.980    3.7915
   10.995    4.0653
   11.010    4.2654
   11.025    3.8231
   11.040    4.2127
   11.055    4.2127
   11.070    3.7915
   11.085    3.6546
   11.100    3.4966
   11.115    3.3386
   11.130    3.2122
   11.145    3.4650
   11.160    3.6862
   11.175    3.6862
   11.190    3.3386
   11.205    3.2543
   11.220    3.3807
   11.235    3.6756
   11.250    3.5387
   11.265    3.9389
   11.280    3.4966
   11.295    3.2859
   11.310    3.5914
   11.325    3.9284
   11.340    3.5703
   11.355    3.6124
   11.370    3.6862
   11.385    3.7493
   11.400    3.3386
   11.415    3.5071
   11.430    3.4018
   11.445    3.7809
   11.460    3.3913
   11.475    3.6862
   11.490    3.4860
   11.505    3.6651
   11.520    3.4755
   11.535    3.4650
   11.550    3.3070
   11.565    3.4439
   11.580    3.5387
   11.595    3.8020
   11.610    3.7599
   11.625    3.9600
   11.640    3.9284
   11.655    4.2127
   11.670    4.1706
   11.685    4.3918
   11.700    4.7920
   11.715    4.8552
   11.730    4.4023
   11.745    4.1496
   11.760    3.9073
   11.775    4.0758
   11.790    3.6019
   11.805    3.6124
   11.820    3.8441
   11.835    3.8336
   11.850    3.5492
   11.865    3.7704
   11.880    3.4229
   11.895    3.7283
   11.910    4.0337
   11.925    3.5598
   11.940    3.5914
   11.955    3.6230
   11.970    3.8231
   11.985    3.7915
   12.000    3.7809
   12.015    3.9284
   12.030    4.2022
   12.045    3.6335
   12.060    3.8968
   12.075    3.7599
   12.090    3.8968
   12.105    4.1496
   12.120    3.6440
   12.135    3.7388
   12.150    4.0758
   12.165    3.9494
   12.180    4.1811
   12.195    4.0337
   12.210    4.1390
   12.225    3.8757
   12.240    3.8441
   12.255    4.0548
   12.270    4.4023
   12.285    4.3602
   12.300    4.2338
   12.315    4.1390
   12.330    4.3813
   12.345    4.2759
   12.360    4.5182
   12.375    4.5919
   12.390    4.3602
   12.405    4.1390
   12.420    4.0969
   12.435    4.0337
   12.450    4.0548
   12.465    4.1180
   12.480    4.2022
   12.495    4.3391
   12.510    4.0548
   12.525    4.1180
   12.540    4.4550
   12.555    4.3813
   12.570    4.4234
   12.585    4.1496
   12.600    4.2759
   12.615    4.1285
   12.630    4.2654
   12.645    4.0021
   12.660    4.4655
   12.675    3.9494
   12.690    3.6756
   12.705    3.9179
   12.720    4.1496
   12.735    3.9179
   12.750    4.0021
   12.765    4.0864
   12.780    4.0442
   12.795    4.1180
   12.810    4.1074
   12.825    3.8020
   12.840    4.0758
   12.855    4.0864
   12.870    4.1496
   12.885    4.1180
   12.900    4.1811
   12.915    4.3286
   12.930    4.5603
   12.945    4.1811
   12.960    4.2654
   12.975    4.2233
   12.990    3.9810
   13.005    4.0232
   13.020    4.0126
   13.035    3.7809
   13.050    3.7177
   13.065    3.7388
   13.080    3.5914
   13.095    3.4860
   13.110    3.6440
   13.125    3.8547
   13.140    3.7177
   13.155    3.7283
   13.170    3.8863
   13.185    3.7809
   13.200    3.7809
   13.215    3.5808
   13.230    3.8231
   13.245    3.8441
   13.260    3.5492
   13.275    3.3491
   13.290    3.7072
   13.305    3.9179
   13.320    3.4755
   13.335    4.0548
   13.350    4.0021
   13.365    3.7915
   13.380    3.7809
   13.395    3.7177
   13.410    3.7388
   13.425    3.6862
   13.440    3.9494
   13.455    4.0969
   13.470    3.8336
   13.485    3.7915
   13.500    3.8020
   13.515    4.0232
   13.530    3.9073
   13.545    4.0758
   13.560    3.9600
   13.575    3.6230
   13.590    3.7599
   13.605    3.7388
   13.620    3.7283
   13.635    3.8863
   13.650    3.6124
   13.665    4.0337
   13.680    3.8125
   13.695    3.5914
   13.710    3.5492
   13.725    3.5282
   13.740    3.7809
   13.755    3.9073
   13.770    3.9179
   13.785    3.5387
   13.800    3.7177
   13.815    3.9284
   13.830    4.0548
   13.845    3.8968
   13.860    3.7388
   13.875    3.7283
   13.890    3.8231
   13.905    3.8863
   13.920    3.8441
   13.935    3.5914
   13.950    3.7809
   13.965    3.9600
   13.980    4.1180
   13.995    4.0337
   14.010    4.1706
   14.025    4.0337
   14.040    4.2549
   14.055    4.1601
   14.070    4.2233
   14.085    4.3602
   14.100    4.0021
   14.115    4.2127
   14.130    3.9494
   14.145    3.9600
   14.160    3.9494
   14.175    3.8863
   14.190    3.7388
   14.205    3.7177
   14.220    3.6967
   14.235    3.6124
   14.250    3.5598
   14.265    3.9073
   14.280    3.8968
   14.295    3.6862
   14.310    3.4544
   14.325    3.5914
   14.340    3.7704
   14.355    3.3175
   14.370    3.5071
   14.385    3.3597
   14.400    3.7072
   14.415    3.7599
   14.430    3.3281
   14.445    3.3597
   14.460    3.3913
   14.475    3.3597
   14.490    3.5282
   14.505    3.7915
   14.520    3.7283
   14.535    3.4966
   14.550    3.5387
   14.565    3.6019
   14.580    3.4755
   14.595    3.5598
   14.610    3.7915
   14.625    3.6862
   14.640    3.4966
   14.655    3.4544
   14.670    3.4439
   14.685    3.1806
   14.700    3.3807
   14.715    3.3281
   14.730    3.3807
   14.745    3.3281
   14.760    3.2543
   14.775    3.5071
   14.790    3.5598
   14.805    3.5176
   14.820    3.4966
   14.835    3.4334
   14.850    3.4123
   14.865    3.5808
   14.880    3.2017
   14.895    3.5387
   14.910    3.4334
   14.925    3.3491
   14.940    3.5176
   14.955    3.4544
   14.970    3.3281
   14.985    3.4018
   15.000    3.2333
   15.015    3.3070
   15.030    3.4544
   15.045    3.2438
   15.060    3.4334
   15.075    3.7599
   15.090    3.7283
   15.105    3.4123
   15.120    3.4334
   15.135    3.6862
   15.150    3.5703
   15.165    3.7283
   15.180    3.6019
   15.195    4.0442
   15.210    3.4123
   15.225    3.6440
   15.240    3.4123
   15.255    3.5492
   15.270    3.5492
   15.285    3.4334
   15.300    3.3597
   15.315    3.4334
   15.330    3.4018
   15.345    3.4860
   15.360    3.3807
   15.375    3.4018
   15.390    3.5914
   15.405    3.5598
   15.420    3.5071
   15.435    3.3807
   15.450    3.4860
   15.465    3.5703
   15.480    3.6124
   15.495    3.5387
   15.510    3.7493
   15.525    3.5282
   15.540    3.4966
   15.555    3.5176
   15.570    3.4650
   15.585    3.4860
   15.600    3.7072
   15.615    3.5282
   15.630    3.6019
   15.645    3.7599
   15.660    3.6124
   15.675    3.4650
   15.690    3.7704
   15.705    3.3597
   15.720    3.3807
   15.735    3.4966
   15.750    3.8231
   15.765    3.8652
   15.780    4.0548
   15.795    3.8231
   15.810    3.5492
   15.825    3.4018
   15.840    3.7599
   15.855    3.6546
   15.870    3.6862
   15.885    3.5071
   15.900    3.4755
   15.915    3.6335
   15.930    3.5703
   15.945    3.6335
   15.960    3.5282
   15.975    3.5598
   15.990    3.4439
   16.005    3.8231
   16.020    4.0126
   16.035    3.6862
   16.050    3.7177
   16.065    3.6967
   16.080    3.5176
   16.095    3.4229
   16.110    3.7599
   16.125    3.5071
   16.140    3.6230
   16.155    3.6019
   16.170    3.6440
   16.185    3.6230
   16.200    3.5914
   16.215    3.6019
   16.230    3.7072
   16.245    3.7388
   16.260    3.3386
   16.275    3.4123
   16.290    3.2227
   16.305    3.5808
   16.320    3.5387
   16.335    3.7072
   16.350    3.7809
   16.365    3.7809
   16.380    3.4966
   16.395    3.7493
   16.410    3.5387
   16.425    3.5703
   16.440    3.8125
   16.455    4.0548
   16.470    3.3807
   16.485    3.4860
   16.500    3.5071
   16.515    3.5282
   16.530    3.3386
   16.545    3.2754
   16.560    3.6019
   16.575    3.5282
   16.590    3.7177
   16.605    3.4755
   16.620    3.3386
   16.635    3.7177
   16.650    3.6546
   16.665    3.4334
   16.680    3.3597
   16.695    3.4544
   16.710    3.4018
   16.725    3.4334
   16.740    3.4123
   16.755    3.3281
   16.770    3.4334
   16.785    3.5492
   16.800    3.2859
   16.815    3.4229
   16.830    3.3386
   16.845    3.6019
   16.860    3.4123
   16.875    3.4650
   16.890    3.4966
   16.905    3.7283
   16.920    3.6546
   16.935    3.6335
   16.950    3.6756
   16.965    3.5703
   16.980    3.6862
   16.995    3.6756
   17.010    3.7283
   17.025    3.8441
   17.040    3.7809
   17.055    3.4439
   17.070    3.7809
   17.085    3.6651
   17.100    3.7809
   17.115    3.7809
   17.130    3.5808
   17.145    3.5071
   17.160    3.4650
   17.175    3.7704
   17.190    3.7493
   17.205    3.4123
   17.220    3.3491
   17.235    3.3281
   17.250    3.4966
   17.265    3.1701
   17.280    3.3386
   17.295    3.4755
   17.310    3.5071
   17.325    3.3702
   17.340    3.5808
   17.355    3.5598
   17.370    3.7072
   17.385    3.6019
   17.400    3.3281
   17.415    3.3175
   17.430    3.6546
   17.445    3.7388
   17.460    3.6862
   17.475    3.6967
   17.490    3.7388
   17.505    3.6546
   17.520    3.3702
   17.535    3.5703
   17.550    3.3913
   17.565    3.5492
   17.580    3.6546
   17.595    3.7599
   17.610    3.6756
   17.625    3.7177
   17.640    3.4860
   17.655    3.6124
   17.670    3.4334
   17.685    3.7177
   17.700    3.8441
   17.715    3.8441
   17.730    3.4755
   17.745    3.6756
   17.760    3.9389
   17.775    3.5598
   17.790    3.6651
   17.805    3.2754
   17.820    3.5282
   17.835    3.4860
   17.850    3.5282
   17.865    3.6019
   17.880    3.6335
   17.895    3.8652
   17.910    3.7388
   17.925    3.8757
   17.940    3.7704
   17.955    3.6546
   17.970    3.5914
   17.985    3.7809
   18.000    3.6756
   18.015    3.9810
   18.030    3.6230
   18.045    3.5071
   18.060    3.6335
   18.075    3.5914
   18.090    3.6967
   18.105    3.7493
   18.120    3.4966
   18.135    3.4860
   18.150    3.4439
   18.165    3.8863
   18.180    3.6230
   18.195    3.8020
   18.210    3.4334
   18.225    3.4229
   18.240    3.5282
   18.255    3.6651
   18.270    3.5071
   18.285    3.7283
   18.300    3.8652
   18.315    3.7177
   18.330    3.6862
   18.345    3.3386
   18.360    3.4755
   18.375    3.7915
   18.390    3.8125
   18.405    3.8336
   18.420    3.7704
   18.435    3.5703
   18.450    3.6756
   18.465    3.3807
   18.480    3.5176
   18.495    3.8652
   18.510    3.5282
   18.525    3.7072
   18.540    3.6124
   18.555    3.7915
   18.570    3.3807
   18.585    3.4229
   18.600    3.4439
   18.615    3.5598
   18.630    3.4439
   18.645    3.4860
   18.660    3.5176
   18.675    3.5387
   18.690    3.6862
   18.705    3.6019
   18.720    3.6019
   18.735    3.5703
   18.750    3.4860
   18.765    3.4650
   18.780    3.6335
   18.795    3.8020
   18.810    3.7177
   18.825    3.3491
   18.840    3.4334
   18.855    3.8125
   18.870    3.7283
   18.885    3.3807
   18.900    3.5071
   18.915    3.8125
   18.930    3.7283
   18.945    3.8652
   18.960    3.8441
   18.975    3.7704
   18.990    4.0969
   19.005    3.7599
   19.020    3.5598
   19.035    3.6440
   19.050    3.6546
   19.065    3.5071
   19.080    3.4439
   19.095    3.4966
   19.110    3.7704
   19.125    3.6967
   19.140    3.6335
   19.155    3.6335
   19.170    3.8336
   19.185    3.8441
   19.200    3.6124
   19.215    3.7599
   19.230    3.6651
   19.245    3.5703
   19.260    3.5703
   19.275    3.6124
   19.290    3.5914
   19.305    3.3597
   19.320    3.2859
   19.335    3.7177
   19.350    4.0969
   19.365    4.0548
   19.380    3.7915
   19.395    3.5598
   19.410    3.8336
   19.425    4.0337
   19.440    3.8125
   19.455    3.8125
   19.470    3.7915
   19.485    4.0442
   19.500    3.6967
   19.515    3.7283
   19.530    3.8863
   19.545    3.8757
   19.560    3.9600
   19.575    4.1706
   19.590    3.9494
   19.605    3.8863
   19.620    3.8968
   19.635    4.0442
   19.650    4.1811
   19.665    4.3918
   19.680    3.9284
   19.695    3.9073
   19.710    4.0864
   19.725    3.9916
   19.740    3.9389
   19.755    3.9705
   19.770    4.1285
   19.785    4.1180
   19.800    4.0758
   19.815    3.8547
   19.830    4.0126
   19.845    4.0548
   19.860    4.1917
   19.875    4.0021
   19.890    3.7599
   19.905    3.9389
   19.920    3.9600
   19.935    3.8968
   19.950    4.0758
   19.965    3.8863
   19.980    3.9916
   19.995    4.3602
   20.010    4.2022
   20.025    4.3286
   20.040    3.9494
   20.055    3.8441
   20.070    3.7809
   20.085    3.8652
   20.100    4.2022
   20.115    3.8757
   20.130    4.0337
   20.145    3.9705
   20.160    4.0864
   20.175    3.7177
   20.190    4.1601
   20.205    3.9179
   20.220    4.0232
   20.235    4.0758
   20.250    4.0021
   20.265    3.9389
   20.280    3.7704
   20.295    3.9600
   20.310    4.0548
   20.325    4.0653
   20.340    4.3075
   20.355    4.2549
   20.370    4.2127
   20.385    4.0021
   20.400    4.0337
   20.415    4.3391
   20.430    4.1706
   20.445    4.1706
   20.460    4.2022
   20.475    4.0126
   20.490    3.9810
   20.505    4.0126
   20.520    3.8547
   20.535    3.7704
   20.550    3.9284
   20.565    4.0548
   20.580    4.0758
   20.595    3.9073
   20.610    3.8757
   20.625    3.9705
   20.640    3.7599
   20.655    4.0021
   20.670    3.9073
   20.685    4.0548
   20.700    3.8231
   20.715    4.1917
   20.730    3.7809
   20.745    3.9179
   20.760    4.2127
   20.775    4.1601
   20.790    3.8757
   20.805    4.5708
   20.820    3.9705
   20.835    3.9600
   20.850    3.9600
   20.865    3.8336
   20.880    3.9073
   20.895    4.0337
   20.910    4.2443
   20.925    3.8231
   20.940    4.0969
   20.955    3.7809
   20.970    3.9494
   20.985    4.1390
   21.000    4.2022
   21.015    4.1496
   21.030    3.7915
   21.045    3.9284
   21.060    4.2549
   21.075    3.9494
   21.090    3.9600
   21.105    3.8547
   21.120    3.8441
   21.135    3.8125
   21.150    4.0021
   21.165    4.0337
   21.180    3.8863
   21.195    3.8020
   21.210    4.0021
   21.225    4.0337
   21.240    3.8125
   21.255    3.6230
   21.270    3.7177
   21.285    3.8757
   21.300    3.8757
   21.315    3.9494
   21.330    4.0548
   21.345    4.0548
   21.360    3.7388
   21.375    3.9284
   21.390    4.0969
   21.405    3.9916
   21.420    4.1496
   21.435    4.0442
   21.450    4.0232
   21.465    4.0758
   21.480    3.9810
   21.495    3.9600
   21.510    3.8863
   21.525    3.8863
   21.540    3.8968
   21.555    3.6124
   21.570    4.1390
   21.585    3.9600
   21.600    4.2127
   21.615    4.0548
   21.630    3.9284
   21.645    3.7177
   21.660    4.2127
   21.675    3.9494
   21.690    3.9389
   21.705    4.0758
   21.720    4.2443
   21.735    4.3075
   21.750    3.9810
   21.765    4.1180
   21.780    3.9916
   21.795    4.4444
   21.810    3.9284
   21.825    4.3391
   21.840    4.0548
   21.855    3.9073
   21.870    4.0864
   21.885    4.1917
   21.900    4.0548
   21.915    3.9284
   21.930    3.9179
   21.945    4.0758
   21.960    3.9494
   21.975    3.9179
   21.990    3.6967
   22.005    3.7915
   22.020    3.8968
   22.035    4.1917
   22.050    4.0653
   22.065    4.0758
   22.080    4.1706
   22.095    3.6862
   22.110    3.9284
   22.125    3.6124
   22.140    3.9600
   22.155    3.9600
   22.170    3.8968
   22.185    4.2022
   22.200    4.1390
   22.215    3.9705
   22.230    4.0337
   22.245    3.9600
   22.260    4.1074
   22.275    4.2759
   22.290    3.8652
   22.305    3.8020
   22.320    3.9073
   22.335    3.8968
   22.350    4.0864
   22.365    3.9494
   22.380    3.6967
   22.395    3.9494
   22.410    4.3075
   22.425    4.2022
   22.440    4.0548
   22.455    4.0126
   22.470    4.0337
   22.485    4.0548
   22.500    3.9916
   22.515    3.8020
   22.530    4.5076
   22.545    4.1074
   22.560    4.6130
   22.575    4.6761
   22.590    4.3286
   22.605    4.2654
   22.620    4.3602
   22.635    3.9810
   22.650    3.6756
   22.665    3.6967
   22.680    3.6862
   22.695    4.0232
   22.710    3.9600
   22.725    3.9810
   22.740    3.8757
   22.755    3.9389
   22.770    3.9179
   22.785    4.1601
   22.800    4.1390
   22.815    3.9179
   22.830    3.8757
   22.845    4.0126
   22.860    4.1180
   22.875    4.2549
   22.890    4.2443
   22.905    3.9389
   22.920    3.9705
   22.935    4.1496
   22.950    4.2970
   22.965    4.3813
   22.980    4.0442
   22.995    3.7915
   23.010    3.7072
   23.025    3.8020
   23.040    4.1811
   23.055    3.3702
   23.070    3.7177
   23.085    3.6440
   23.100    3.8020
   23.115    4.0653
   23.130    3.8125
   23.145    3.9073
   23.160    3.8863
   23.175    4.1601
   23.190    3.8652
   23.205    3.8863
   23.220    4.0126
   23.235    4.2127
   23.250    3.7809
   23.265    3.8125
   23.280    3.8968
   23.295    4.0232
   23.310    3.7388
   23.325    3.6230
   23.340    3.5914
   23.355    3.8968
   23.370    3.8441
   23.385    3.5914
   23.400    3.7493
   23.415    3.8757
   23.430    3.8020
   23.445    3.8863
   23.460    3.7915
   23.475    3.9073
   23.490    3.4650
   23.505    3.5598
   23.520    3.5492
   23.535    3.9600
   23.550    4.0126
   23.565    3.7388
   23.580    3.6651
   23.595    3.7915
   23.610    3.9179
   23.625    3.6651
   23.640    3.6440
   23.655    3.7599
   23.670    3.5387
   23.685    3.8020
   23.700    3.7599
   23.715    3.4334
   23.730    4.1811
   23.745    3.7809
   23.760    3.6546
   23.775    3.5808
   23.790    3.2543
   23.805    3.6651
   23.820    3.8968
   23.835    3.7177
   23.850    3.8336
   23.865    3.7704
   23.880    3.9494
   23.895    3.6651
   23.910    3.5492
   23.925    3.6230
   23.940    3.5071
   23.955    3.5598
   23.970    3.6651
   23.985    3.8652
   24.000    3.6967
   24.015    3.5387
   24.030    3.7177
   24.045    3.8125
   24.060    3.6546
   24.075    3.7809
   24.090    3.7599
   24.105    3.6230
   24.120    3.9705
   24.135    3.9073
   24.150    3.6862
   24.165    3.3597
   24.180    3.5176
   24.195    3.7388
   24.210    3.7704
   24.225    3.5914
   24.240    3.7599
   24.255    3.9389
   24.270    3.7388
   24.285    3.7915
   24.300    3.8231
   24.315    3.5808
   24.330    3.5914
   24.345    3.5071
   24.360    3.7388
   24.375    4.1917
   24.390    4.1706
   24.405    3.9389
   24.420    3.8125
   24.435    3.5176
   24.450    3.5071
   24.465    3.6440
   24.480    3.6335
   24.495    3.5914
   24.510    3.6546
   24.525    3.7599
   24.540    3.7493
   24.555    4.0758
   24.570    3.7599
   24.585    3.7388
   24.600    3.9073
   24.615    3.8547
   24.630    3.8441
   24.645    3.5492
   24.660    3.8968
   24.675    3.8757
   24.690    3.8863
   24.705    3.7177
   24.720    3.5282
   24.735    3.8968
   24.750    3.8968
   24.765    3.5598
   24.780    3.7072
   24.795    3.7072
   24.810    3.7704
   24.825    3.6124
   24.840    3.5176
   24.855    3.5282
   24.870    3.6756
   24.885    3.8441
   24.900    3.6335
   24.915    3.3386
   24.930    3.3702
   24.945    3.6546
   24.960    3.6230
   24.975    3.8863
   24.990    3.4123
   25.005    3.4229
   25.020    3.7283
   25.035    3.4650
   25.050    3.7072
   25.065    3.7177
   25.080    3.5914
   25.095    3.6019
   25.110    3.7177
   25.125    3.5492
   25.140    3.7809
   25.155    3.5914
   25.170    3.5282
   25.185    3.4018
   25.200    3.5071
   25.215    3.4650
   25.230    3.4860
   25.245    3.7283
   25.260    3.6440
   25.275    3.4229
   25.290    3.6440
   25.305    3.4860
   25.320    3.5914
   25.335    3.6862
   25.350    3.5914
   25.365    3.4966
   25.380    3.3491
   25.395    3.3175
   25.410    3.6862
   25.425    3.6440
   25.440    3.3175
   25.455    3.5914
   25.470    3.7072
   25.485    3.3597
   25.500    3.2122
   25.515    3.3281
   25.530    3.2122
   25.545    3.5808
   25.560    3.5808
   25.575    3.4334
   25.590    3.5808
   25.605    3.3491
   25.620    3.5808
   25.635    3.5914
   25.650    3.6546
   25.665    3.6546
   25.680    3.3807
   25.695    3.5492
   25.710    3.3597
   25.725    3.3913
   25.740    3.4439
   25.755    3.6756
   25.770    3.4860
   25.785    3.4860
   25.800    3.2543
   25.815    3.3702
   25.830    3.3913
   25.845    3.7388
   25.860    3.6967
   25.875    3.8231
   25.890    3.7072
   25.905    3.5071
   25.920    3.4123
   25.935    3.2333
   25.950    3.4229
   25.965    3.2965
   25.980    3.3281
   25.995    3.4334
   26.010    3.4439
   26.025    3.4544
   26.040    3.3807
   26.055    3.3070
   26.070    3.4755
   26.085    3.4018
   26.100    3.4966
   26.115    3.4229
   26.130    3.4229
   26.145    3.3175
   26.160    3.3702
   26.175    3.3491
   26.190    3.5598
   26.205    3.4123
   26.220    3.4650
   26.235    3.3702
   26.250    3.3807
   26.265    3.2859
   26.280    3.3175
   26.295    3.2017
   26.310    3.1912
   26.325    3.4229
   26.340    3.2333
   26.355    3.3491
   26.370    3.2649
   26.385    3.2859
   26.400    3.5282
   26.415    3.4650
   26.430    3.2754
   26.445    3.4018
   26.460    3.3175
   26.475    3.2333
   26.490    3.2122
   26.505    3.3070
   26.520    3.4439
   26.535    3.2333
   26.550    3.1174
   26.565    3.3070
   26.580    3.4966
   26.595    3.5176
   26.610    3.4966
   26.625    3.6124
   26.640    3.2649
   26.655    3.0964
   26.670    3.1701
   26.685    3.3491
   26.700    3.1596
   26.715    3.2649
   26.730    3.1596
   26.745    3.2754
   26.760    3.2649
   26.775    3.5282
   26.790    3.4229
   26.805    3.1701
   26.820    3.2543
   26.835    3.0648
   26.850    3.0016
   26.865    2.9700
   26.880    3.2227
   26.895    3.6124
   26.910    3.5914
   26.925    3.2859
   26.940    3.2754
   26.955    3.2227
   26.970    3.2017
   26.985    3.1912
   27.000    3.5914
   27.015    3.6862
   27.030    3.2227
   27.045    3.2438
   27.060    3.3281
   27.075    3.3913
   27.090    3.3281
   27.105    3.2438
   27.120    3.1069
   27.135    3.2438
   27.150    3.0332
   27.165    3.1385
   27.180    3.2859
   27.195    3.2543
   27.210    3.2122
   27.225    3.2965
   27.240    3.3597
   27.255    3.4229
   27.270    3.4544
   27.285    3.2017
   27.300    3.2438
   27.315    3.1912
   27.330    3.2122
   27.345    3.2965
   27.360    3.2543
   27.375    3.5387
   27.390    3.1912
   27.405    3.4544
   27.420    3.4439
   27.435    3.0753
   27.450    3.1385
   27.465    3.5387
   27.480    3.5176
   27.495    3.2649
   27.510    3.2227
   27.525    3.2965
   27.540    3.2649
   27.555    3.2333
   27.570    3.3175
   27.585    3.3597
   27.600    3.2333
   27.615    3.3175
   27.630    3.3491
   27.645    3.3807
   27.660    3.1701
   27.675    3.1912
   27.690    3.0858
   27.705    3.1912
   27.720    3.2017
   27.735    3.0121
   27.750    3.0964
   27.765    3.2122
   27.780    3.2859
   27.795    3.2965
   27.810    3.2965
   27.825    3.3702
   27.840    3.3597
   27.855    3.4544
   27.870    3.5387
   27.885    3.3491
   27.900    3.3281
   27.915    3.2122
   27.930    3.3491
   27.945    3.2333
   27.960    3.4650
   27.975    3.3175
   27.990    3.3702
   28.005    3.5808
   28.020    3.4439
   28.035    3.3175
   28.050    3.3175
   28.065    3.3597
   28.080    3.4650
   28.095    3.5703
   28.110    3.5598
   28.125    3.5492
   28.140    3.4123
   28.155    3.5808
   28.170    3.4650
   28.185    3.3070
   28.200    3.2965
   28.215    3.2543
   28.230    3.4123
   28.245    3.4229
   28.260    3.3702
   28.275    3.3913
   28.290    3.4860
   28.305    3.5808
   28.320    3.1280
   28.335    3.2965
   28.350    3.5492
   28.365    3.3175
   28.380    3.3070
   28.395    3.1596
   28.410    3.2333
   28.425    2.9595
   28.440    3.0016
   28.455    3.4755
   28.470    3.2227
   28.485    3.0648
   28.500    3.4966
   28.515    3.6756
   28.530    3.3281
   28.545    3.2543
   28.560    3.2227
   28.575    3.1280
   28.590    3.0332
   28.605    3.1280
   28.620    3.1596
   28.635    3.1385
   28.650    3.0121
   28.665    3.0542
   28.680    3.1596
   28.695    3.2754
   28.710    3.1806
   28.725    3.2859
   28.740    3.2859
   28.755    3.2754
   28.770    3.2227
   28.785    3.0437
   28.800    3.0121
   28.815    3.1174
   28.830    3.3702
   28.845    3.2859
   28.860    3.2333
   28.875    3.3913
   28.890    3.2227
   28.905    3.3913
   28.920    3.2543
   28.935    3.2543
   28.950    3.0648
   28.965    3.3491
   28.980    3.0226
   28.995    3.1174
   29.010    3.2122
   29.025    3.3702
   29.040    2.9384
   29.055    2.9805
   29.070    2.9700
   29.085    3.3175
   29.100    3.2965
   29.115    3.3070
   29.130    3.1596
   29.145    3.2017
   29.160    3.2333
   29.175    3.2333
   29.190    3.1174
   29.205    3.2859
   29.220    3.1385
   29.235    3.0753
   29.250    3.3281
   29.265    3.6124
   29.280    3.4229
   29.295    3.1806
   29.310    3.3913
   29.325    3.3702
   29.340    2.8752
   29.355    3.0753
   29.370    3.1596
   29.385    3.1280
   29.400    3.2965
   29.415    3.3175
   29.430    2.9595
   29.445    3.3597
   29.460    3.2965
   29.475    3.3491
   29.490    2.9700
   29.505    3.1174
   29.520    2.8225
   29.535    2.8541
   29.550    3.1912
   29.565    3.3070
   29.580    2.9805
   29.595    2.9700
   29.610    3.0332
   29.625    3.0753
   29.640    3.1806
   29.655    3.1280
   29.670    2.8225
   29.685    3.2017
   29.700    3.0226
   29.715    3.0016
   29.730    2.9805
   29.745    3.2649
   29.760    3.0121
   29.775    3.0226
   29.790    3.3281
   29.805    3.1069
   29.820    3.0542
   29.835    3.1806
   29.850    3.1701
   29.865    3.0121
   29.880    2.9384
   29.895    3.0332
   29.910    2.9279
   29.925    3.2333
   29.940    3.1806
   29.955    2.9279
   29.970    2.8752
   29.985    3.1174
   30.000    2.9910
   30.015    3.2227
   30.030    3.2543
   30.045    3.4966
   30.060    2.7699
   30.075    3.0016
   30.090    3.0542
   30.105    3.0016
   30.120    3.0226
   30.135    3.2122
   30.150    3.0332
   30.165    3.0016
   30.180    3.0016
   30.195    3.0753
   30.210    3.0437
   30.225    3.1385
   30.240    3.0964
   30.255    3.1701
   30.270    3.3281
   30.285    3.0121
   30.300    2.9279
   30.315    2.9595
   30.330    2.8015
   30.345    2.9068
   30.360    2.9489
   30.375    3.0858
   30.390    2.9068
   30.405    3.0332
   30.420    2.9595
   30.435    2.9384
   30.450    2.9068
   30.465    3.3491
   30.480    3.0016
   30.495    3.0437
   30.510    3.1701
   30.525    2.9384
   30.540    2.8752
   30.555    3.0542
   30.570    3.2122
   30.585    3.2438
   30.600    3.2227
   30.615    3.0016
   30.630    2.8225
   30.645    3.1174
   30.660    3.1701
   30.675    3.0753
   30.690    3.1069
   30.705    3.1701
   30.720    3.2017
   30.735    3.1280
   30.750    3.1174
   30.765    3.3281
   30.780    3.1596
   30.795    3.4966
   30.810    3.1280
   30.825    2.7278
   30.840    2.7278
   30.855    2.8436
   30.870    2.9279
   30.885    2.9910
   30.900    2.9173
   30.915    3.2333
   30.930    3.2649
   30.945    2.9805
   30.960    3.1069
   30.975    3.1069
   30.990    2.7699
   31.005    3.0016
   31.020    3.0753
   31.035    3.0121
   31.050    3.1806
   31.065    3.0648
   31.080    3.2333
   31.095    3.3070
   31.110    3.0648
   31.125    3.1596
   31.140    2.8963
   31.155    2.9173
   31.170    3.2227
   31.185    3.1596
   31.200    3.2543
   31.215    2.9805
   31.230    2.8857
   31.245    3.1490
   31.260    2.9068
   31.275    3.1280
   31.290    2.9384
   31.305    3.1806
   31.320    3.0753
   31.335    2.9279
   31.350    3.0226
   31.365    3.1806
   31.380    2.9173
   31.395    2.8647
   31.410    2.9700
   31.425    3.3597
   31.440    3.1385
   31.455    2.8752
   31.470    3.0753
   31.485    3.3597
   31.500    2.9700
   31.515    3.1280
   31.530    2.9910
   31.545    3.1385
   31.560    3.1701
   31.575    2.9910
   31.590    2.9700
   31.605    3.0437
   31.620    3.2333
   31.635    3.2543
   31.650    3.0753
   31.665    3.3281
   31.680    3.2227
   31.695    3.2859
   31.710    3.1490
   31.725    2.9279
   31.740    3.2017
   31.755    2.9700
   31.770    3.0437
   31.785    3.3281
   31.800    3.3386
   31.815    3.2333
   31.830    3.0226
   31.845    3.1069
   31.860    3.2438
   31.875    3.1701
   31.890    3.0648
   31.905    2.9700
   31.920    3.2122
   31.935    2.9700
   31.950    3.1174
   31.965    3.1174
   31.980    3.2438
   31.995    3.2227
   32.010    3.4966
   32.025    3.6230
   32.040    3.6546
   32.055    3.9179
   32.070    3.8336
   32.085    3.5703
   32.100    3.5387
   32.115    3.4966
   32.130    3.3702
   32.145    3.4018
   32.160    3.6335
   32.175    3.5071
   32.190    3.2227
   32.205    3.1385
   32.220    3.0332
   32.235    3.0226
   32.250    3.0121
   32.265    3.1912
   32.280    3.0542
   32.295    3.2649
   32.310    3.0964
   32.325    3.2543
   32.340    2.8963
   32.355    2.9700
   32.370    3.0016
   32.385    3.0648
   32.400    2.9595
   32.415    3.0964
   32.430    2.9700
   32.445    3.2754
   32.460    2.9173
   32.475    3.0542
   32.490    3.1385
   32.505    2.9595
   32.520    2.7699
   32.535    3.0648
   32.550    2.9595
   32.565    3.1069
   32.580    2.9173
   32.595    2.7172
   32.610    2.5698
   32.625    2.9700
   32.640    2.8120
   32.655    2.7593
   32.670    2.8015
   32.685    3.0964
   32.700    2.8963
   32.715    2.9173
   32.730    2.9279
   32.745    2.7909
   32.760    3.0332
   32.775    2.8647
   32.790    2.8541
   32.805    2.8120
   32.820    3.0858
   32.835    2.8541
   32.850    2.8857
   32.865    3.0437
   32.880    2.7488
   32.895    3.0332
   32.910    3.0648
   32.925    3.0753
   32.940    2.6751
   32.955    2.9489
   32.970    2.9173
   32.985    2.6962
   33.000    2.8436
   33.015    2.8752
   33.030    2.8225
   33.045    2.6435
   33.060    2.8331
   33.075    3.0648
   33.090    3.0437
   33.105    2.7278
   33.120    2.8857
   33.135    2.9489
   33.150    2.9068
   33.165    2.7383
   33.180    2.9595
   33.195    2.6330
   33.210    2.7699
   33.225    2.7699
   33.240    2.7278
   33.255    2.7172
   33.270    2.3802
   33.285    2.7383
   33.300    2.6119
   33.315    3.0121
   33.330    2.9279
   33.345    2.8857
   33.360    2.6751
   33.375    2.6014
   33.390    2.9279
   33.405    2.8015
   33.420    2.7067
   33.435    2.7804
   33.450    2.9279
   33.465    2.8436
   33.480    3.0332
   33.495    2.8015
   33.510    2.8647
   33.525    2.6330
   33.540    2.7383
   33.555    2.7488
   33.570    2.8647
   33.585    2.8436
   33.600    2.7488
   33.615    2.8647
   33.630    3.0226
   33.645    2.8331
   33.660    2.9595
   33.675    3.0332
   33.690    2.8963
   33.705    2.7593
   33.720    2.9173
   33.735    3.2227
   33.750    2.7909
   33.765    2.7909
   33.780    3.1596
   33.795    3.0016
   33.810    3.0121
   33.825    3.0332
   33.840    2.9279
   33.855    3.1280
   33.870    3.1596
   33.885    2.6646
   33.900    2.9279
   33.915    3.1490
   33.930    2.9279
   33.945    2.8752
   33.960    2.9384
   33.975    3.0437
   33.990    3.0226
   34.005    2.8225
   34.020    2.6540
   34.035    2.9595
   34.050    2.8857
   34.065    2.7488
   34.080    2.8647
   34.095    2.6646
   34.110    2.6962
   34.125    2.8225
   34.140    2.9805
   34.155    2.5171
   34.170    2.6646
   34.185    2.9910
   34.200    3.1174
   34.215    2.8752
   34.230    2.9173
   34.245    2.7067
   34.260    2.7067
   34.275    2.4961
   34.290    2.5171
   34.305    2.8331
   34.320    2.7172
   34.335    2.7699
   34.350    2.7172
   34.365    2.7383
   34.380    2.5487
   34.395    2.5592
   34.410    2.7278
   34.425    2.9805
   34.440    2.8752
   34.455    3.0226
   34.470    2.7383
   34.485    2.7488
   34.500    2.7278
   34.515    2.9279
   34.530    2.8647
   34.545    2.6856
   34.560    2.9173
   34.575    2.8331
   34.590    2.6224
   34.605    2.7699
   34.620    2.8752
   34.635    2.6751
   34.650    2.8015
   34.665    2.7383
   34.680    2.5592
   34.695    2.6540
   34.710    2.7488
   34.725    2.9279
   34.740    2.8647
   34.755    2.8963
   34.770    2.7488
   34.785    2.7804
   34.800    2.8647
   34.815    2.7488
   34.830    2.5803
   34.845    2.7804
   34.860    2.8015
   34.875    2.6751
   34.890    2.7699
   34.905    2.6962
   34.920    2.9700
   34.935    2.7278
   34.950    2.6856
   34.965    2.6435
   34.980    2.7699
   34.995    2.9173
   35.010    2.6646
   35.025    2.6962
   35.040    2.7804
   35.055    2.6119
   35.070    2.7488
   35.085    2.6119
   35.100    2.8436
   35.115    2.7067
   35.130    2.7067
   35.145    2.7067
   35.160    2.6224
   35.175    2.5382
   35.190    2.7488
   35.205    2.8120
   35.220    2.8963
   35.235    2.9279
   35.250    2.6330
   35.265    2.6014
   35.280    2.5908
   35.295    2.7383
   35.310    2.7699
   35.325    2.6435
   35.340    2.8647
   35.355    2.6646
   35.370    2.5066
   35.385    2.6856
   35.400    2.6014
   35.415    2.6856
   35.430    2.8647
   35.445    2.6856
   35.460    2.6119
   35.475    2.6856
   35.490    2.6646
   35.505    2.6540
   35.520    2.5698
   35.535    2.9489
   35.550    2.8963
   35.565    2.6435
   35.580    2.6751
   35.595    2.6014
   35.610    2.5382
   35.625    2.6435
   35.640    2.7804
   35.655    2.6856
   35.670    2.8331
   35.685    2.7383
   35.700    2.8225
   35.715    2.8436
   35.730    2.6751
   35.745    2.7909
   35.760    2.6224
   35.775    2.6330
   35.790    2.7278
   35.805    2.5803
   35.820    2.6224
   35.835    2.7488
   35.850    2.8015
   35.865    2.5592
   35.880    2.6224
   35.895    2.6224
   35.910    2.4750
   35.925    2.3170
   35.940    2.7804
   35.955    2.7172
   35.970    2.5803
   35.985    2.6540
   36.000    2.6119
   36.015    2.7488
   36.030    2.6646
   36.045    2.5698
   36.060    2.6224
   36.075    2.9805
   36.090    2.5698
   36.105    2.4855
   36.120    2.5276
   36.135    2.8120
   36.150    2.6856
   36.165    2.4013
   36.180    2.6435
   36.195    2.5171
   36.210    2.6435
   36.225    2.4961
   36.240    2.0853
   36.255    2.3275
   36.270    2.4013
   36.285    2.7383
   36.300    2.4434
   36.315    2.7383
   36.330    2.4855
   36.345    2.4961
   36.360    2.4645
   36.375    2.6014
   36.390    2.6330
   36.405    2.7909
   36.420    2.6646
   36.435    2.5382
   36.450    2.2854
   36.465    2.5276
   36.480    2.5276
   36.495    2.5803
   36.510    2.5908
   36.525    2.6540
   36.540    2.6962
   36.555    2.5592
   36.570    2.5066
   36.585    2.4539
   36.600    2.8225
   36.615    2.8331
   36.630    2.7909
   36.645    2.8015
   36.660    2.3486
   36.675    2.5592
   36.690    2.4645
   36.705    2.6751
   36.720    2.6119
   36.735    2.6330
   36.750    2.5487
   36.765    2.5592
   36.780    2.5803
   36.795    2.6751
   36.810    2.6014
   36.825    2.8331
   36.840    2.9489
   36.855    2.8752
   36.870    2.7383
   36.885    2.6540
   36.900    2.6330
   36.915    2.8015
   36.930    2.6435
   36.945    2.6540
   36.960    2.5276
   36.975    2.5382
   36.990    2.6646
   37.005    2.6014
   37.020    2.7383
   37.035    2.4118
   37.050    2.6540
   37.065    2.6435
   37.080    2.5276
   37.095    2.8331
   37.110    2.9489
   37.125    2.5382
   37.140    2.5803
   37.155    2.6962
   37.170    2.7383
   37.185    2.6330
   37.200    2.6540
   37.215    2.8015
   37.230    2.5487
   37.245    2.4645
   37.260    2.5171
   37.275    2.6224
   37.290    2.5803
   37.305    2.5171
   37.320    2.4013
   37.335    2.5276
   37.350    2.6646
   37.365    2.7804
   37.380    2.6330
   37.395    2.3802
   37.410    2.6224
   37.425    2.4434
   37.440    2.4961
   37.455    2.6119
   37.470    2.7067
   37.485    2.7909
   37.500    2.8120
   37.515    2.4855
   37.530    2.4961
   37.545    2.5276
   37.560    2.6962
   37.575    2.4855
   37.590    2.5803
   37.605    2.6646
   37.620    2.7593
   37.635    2.7699
   37.650    2.8015
   37.665    2.4750
   37.680    2.4750
   37.695    2.6540
   37.710    2.5171
   37.725    2.5803
   37.740    2.4855
   37.755    2.4223
   37.770    2.3065
   37.785    2.4961
   37.800    2.5908
   37.815    2.5592
   37.830    2.4645
   37.845    2.3065
   37.860    2.6014
   37.875    2.5171
   37.890    2.3802
   37.905    2.3802
   37.920    2.6119
   37.935    2.4434
   37.950    2.4118
   37.965    2.7278
   37.980    2.4961
   37.995    2.3907
   38.010    2.3802
   38.025    2.5698
   38.040    2.4855
   38.055    2.4434
   38.070    2.7593
   38.085    2.5171
   38.100    2.4645
   38.115    2.4855
   38.130    2.6646
   38.145    2.7383
   38.160    2.6224
   38.175    2.5908
   38.190    2.4539
   38.205    2.6540
   38.220    2.5908
   38.235    2.5698
   38.250    2.6856
   38.265    2.6224
   38.280    2.6751
   38.295    2.4961
   38.310    2.5171
   38.325    2.7172
   38.340    2.5382
   38.355    2.4539
   38.370    2.4223
   38.385    2.5908
   38.400    2.4013
   38.415    2.5908
   38.430    2.3907
   38.445    2.5487
   38.460    2.1064
   38.475    2.3591
   38.490    2.5487
   38.505    2.7067
   38.520    2.4223
   38.535    2.5908
   38.550    2.6962
   38.565    2.7909
   38.580    2.5698
   38.595    2.5171
   38.610    2.7172
   38.625    2.7909
   38.640    2.5698
   38.655    2.2749
   38.670    2.5487
   38.685    2.5803
   38.700    2.7172
   38.715    2.7383
   38.730    2.7699
   38.745    2.6224
   38.760    2.6751
   38.775    2.3591
   38.790    2.6330
   38.805    2.4961
   38.820    2.3802
   38.835    2.3802
   38.850    2.4645
   38.865    2.2643
   38.880    2.5066
   38.895    2.7172
   38.910    2.6962
   38.925    2.6856
   38.940    2.4645
   38.955    2.3486
   38.970    2.4223
   38.985    2.4223
   39.000    2.3907
   39.015    2.6646
   39.030    2.6014
   39.045    2.5592
   39.060    2.4855
   39.075    2.6119
   39.090    2.6119
   39.105    2.5698
   39.120    2.5171
   39.135    2.5382
   39.150    2.5698
   39.165    2.6330
   39.180    2.5276
   39.195    2.5066
   39.210    2.5592
   39.225    2.6224
   39.240    2.6751
   39.255    2.5066
   39.270    2.5276
   39.285    2.7699
   39.300    2.6856
   39.315    2.5592
   39.330    2.5382
   39.345    2.4855
   39.360    2.6646
   39.375    2.7172
   39.390    2.5171
   39.405    2.5908
   39.420    2.3170
   39.435    2.4223
   39.450    2.5171
   39.465    2.6014
   39.480    2.3065
   39.495    2.5171
   39.510    2.4750
   39.525    2.4434
   39.540    2.5803
   39.555    2.4645
   39.570    2.7488
   39.585    2.4539
   39.600    2.7383
   39.615    2.6014
   39.630    2.5908
   39.645    2.4539
   39.660    2.4329
   39.675    2.6014
   39.690    2.5592
   39.705    2.5487
   39.720    2.5803
   39.735    2.6014
   39.750    2.6856
   39.765    2.5592
   39.780    2.4750
   39.795    2.3275
   39.810    2.3170
   39.825    2.5698
   39.840    2.3170
   39.855    2.2222
   39.870    2.6856
   39.885    2.5382
   39.900    2.8541
   39.915    2.7067
   39.930    2.5382
   39.945    2.4645
   39.960    2.6330
   39.975    2.6856
   39.990    2.8225
