    1.500   21.2217
    1.515   21.2919
    1.530   21.1515
    1.545   20.0632
    1.560   19.6244
    1.575   19.6068
    1.590   19.0276
    1.605   18.8345
    1.620   17.7988
    1.635   17.6935
    1.650   17.4829
    1.665   17.8164
    1.680   17.3600
    1.695   17.6409
    1.710   16.4648
    1.725   16.8861
    1.740   15.6925
    1.755   15.4994
    1.770   14.6393
    1.785   15.0255
    1.800   15.1483
    1.815   14.1478
    1.830   14.9903
    1.845   14.5164
    1.860   13.6212
    1.875   13.8669
    1.890   13.6212
    1.905   13.5861
    1.920   13.1999
    1.935   12.9191
    1.950   13.6739
    1.965   13.2350
    1.980   12.0239
    1.995   11.9537
    2.010   12.2521
    2.025   12.7260
    2.040   12.1994
    2.055   11.4797
    2.070   10.9180
    2.085   11.1111
    2.100   11.1638
    2.115   10.5845
    2.130   11.4095
    2.145   11.0760
    2.160   11.1989
    2.175   10.8654
    2.190   10.7600
    2.205   10.3388
    2.220   10.4616
    2.235   10.4265
    2.250    9.9702
    2.265   10.7600
    2.280   10.4441
    2.295   10.6021
    2.310   10.2861
    2.325    9.7069
    2.340    9.0047
    2.355    9.5840
    2.370    9.6191
    2.385    9.5840
    2.400    9.6191
    2.415    9.8999
    2.430    9.9351
    2.445   10.2159
    2.460    9.6191
    2.475    9.3558
    2.490    8.7765
    2.505    8.5133
    2.520    9.2856
    2.535    8.6186
    2.550    8.8819
    2.565    8.7239
    2.580    8.9170
    2.595    8.1973
    2.610    8.9696
    2.625    8.7063
    2.640    8.5659
    2.655    8.5659
    2.670    8.8292
    2.685    8.7414
    2.700    8.9696
    2.715    8.8994
    2.730    8.6712
    2.745    8.6888
    2.760    9.0925
    2.775    8.6712
    2.790    8.5484
    2.805    8.2675
    2.820    8.0042
    2.835    8.2675
    2.850    8.5659
    2.865    8.0218
    2.880    8.3026
    2.895    8.1446
    2.910    8.3904
    2.925    8.8643
    2.940    8.0744
    2.955    7.8287
    2.970    8.0920
    2.985    8.5133
    3.000    8.2500
    3.015    8.1973
    3.030    8.7063
    3.045    8.4957
    3.060    8.4606
    3.075    7.8111
    3.090    8.1095
    3.105    7.7936
    3.120    8.6010
    3.135    9.0574
    3.150    9.1978
    3.165    9.2680
    3.180    8.6361
    3.195    9.0047
    3.210    9.1978
    3.225    9.2856
    3.240    9.4787
    3.255    9.7595
    3.270    9.3909
    3.285    9.6893
    3.300    9.8999
    3.315   10.7249
    3.330   10.7249
    3.345   10.2159
    3.360   10.3739
    3.375   11.2866
    3.390   12.0239
    3.405   11.8132
    3.420   11.8834
    3.435   12.3749
    3.450   12.5154
    3.465   13.0244
    3.480   13.9372
    3.495   13.9723
    3.510   14.3760
    3.525   14.9728
    3.540   15.3590
    3.555   15.8856
    3.570   16.3419
    3.585   17.7988
    3.600   18.3956
    3.615   20.2563
    3.630   21.6605
    3.645   21.9940
    3.660   23.5738
    3.675   24.8201
    3.690   26.4174
    3.705   28.6818
    3.720   30.6653
    3.735   32.4381
    3.750   34.8253
    3.765   37.1073
    3.780   41.8641
    3.795   46.0593
    3.810   48.3588
    3.825   52.4136
    3.840   54.2391
    3.855   53.9407
    3.870   48.4290
    3.885   43.2333
    3.900   37.2652
    3.915   30.1738
    3.930   24.0477
    3.945   20.0983
    3.960   16.4824
    3.975   14.1829
    3.990   13.0595
    4.005   11.8834
    4.020   10.7952
    4.035    9.8297
    4.050   10.1106
    4.065    9.4787
    4.080    9.3382
    4.095    9.4787
    4.110    9.0925
    4.125    8.6361
    4.140    8.2324
    4.155    7.8813
    4.170    7.9164
    4.185    8.1271
    4.200    8.8819
    4.215    8.2851
    4.230    7.6707
    4.245    7.4601
    4.260    7.5478
    4.275    7.3547
    4.290    7.3196
    4.305    7.2845
    4.320    7.3021
    4.335    7.4250
    4.350    7.3723
    4.365    7.0915
    4.380    7.7585
    4.395    6.8633
    4.410    7.0388
    4.425    6.4420
    4.440    6.8106
    4.455    6.9335
    4.470    7.3021
    4.485    6.9861
    4.500    7.2319
    4.515    6.8106
    4.530    7.2670
    4.545    7.3899
    4.560    7.0388
    4.575    6.9159
    4.590    6.6877
    4.605    6.5473
    4.620    7.2494
    4.635    7.0212
    4.650    6.7053
    4.665    6.8457
    4.680    6.8984
    4.695    6.6000
    4.710    6.7930
    4.725    6.8457
    4.740    6.4069
    4.755    6.3542
    4.770    6.8457
    4.785    6.6702
    4.800    6.4244
    4.815    6.8808
    4.830    6.5298
    4.845    7.1792
    4.860    7.0563
    4.875    6.5473
    4.890    6.9861
    4.905    6.7579
    4.920    6.6877
    4.935    6.5824
    4.950    6.8808
    4.965    7.0037
    4.980    7.1441
    4.995    6.6877
    5.010    6.8282
    5.025    7.3021
    5.040    7.0563
    5.055    7.1968
    5.070    6.7930
    5.085    6.9510
    5.100    7.3547
    5.115    7.8638
    5.130    7.7058
    5.145    8.1973
    5.160    8.4781
    5.175    8.5835
    5.190    8.6361
    5.205    8.7941
    5.220    9.5489
    5.235    9.5138
    5.250    9.8122
    5.265    9.9877
    5.280   10.9005
    5.295   11.5324
    5.310   11.6202
    5.325   12.5680
    5.340   12.2696
    5.355   12.6031
    5.370   14.4111
    5.385   15.6749
    5.400   16.9914
    5.415   18.0797
    5.430   17.5707
    5.445   18.7467
    5.460   20.3265
    5.475   21.6430
    5.490   19.7648
    5.505   18.2201
    5.520   16.8334
    5.535   14.1478
    5.550   11.9712
    5.565   12.0414
    5.580   10.4441
    5.595    8.7239
    5.610    7.7936
    5.625    7.3547
    5.640    7.2494
    5.655    7.5127
    5.670    7.3196
    5.685    7.2143
    5.700    6.7228
    5.715    6.7404
    5.730    6.9335
    5.745    6.8984
    5.760    6.7930
    5.775    6.3542
    5.790    6.8457
    5.805    6.3367
    5.820    6.6351
    5.835    6.4244
    5.850    6.4595
    5.865    7.1441
    5.880    6.3542
    5.895    6.0558
    5.910    6.2840
    5.925    6.7930
    5.940    6.9335
    5.955    6.7228
    5.970    6.3718
    5.985    6.3367
    6.000    5.9329
    6.015    6.6526
    6.030    6.8106
    6.045    6.4244
    6.060    6.2665
    6.075    6.4771
    6.090    6.6351
    6.105    6.3367
    6.120    7.1090
    6.135    6.5298
    6.150    6.3016
    6.165    6.6351
    6.180    6.6877
    6.195    6.6877
    6.210    6.7930
    6.225    6.2138
    6.240    6.6877
    6.255    6.4595
    6.270    6.2840
    6.285    6.8282
    6.300    6.0032
    6.315    6.3542
    6.330    6.3191
    6.345    6.7930
    6.360    6.5473
    6.375    6.9335
    6.390    6.7404
    6.405    6.5649
    6.420    6.6702
    6.435    6.8106
    6.450    6.9159
    6.465    7.3547
    6.480    6.8457
    6.495    7.1617
    6.510    7.6005
    6.525    7.8111
    6.540    7.4250
    6.555    7.4425
    6.570    7.7760
    6.585    7.9867
    6.600    8.1446
    6.615    8.0569
    6.630    8.5308
    6.645    9.1627
    6.660    8.9872
    6.675    9.4085
    6.690    9.7771
    6.705   10.1457
    6.720   10.4441
    6.735   10.1106
    6.750   10.3037
    6.765    9.9702
    6.780    8.9345
    6.795    8.0569
    6.810    7.6180
    6.825    7.6883
    6.840    7.5478
    6.855    7.0212
    6.870    6.3367
    6.885    6.5298
    6.900    6.4771
    6.915    6.9686
    6.930    7.2494
    6.945    6.6702
    6.960    6.7579
    6.975    6.1611
    6.990    6.5298
    7.005    6.2313
    7.020    6.0734
    7.035    6.5649
    7.050    6.9335
    7.065    6.4244
    7.080    6.8282
    7.095    6.8633
    7.110    6.4244
    7.125    6.6175
    7.140    6.4069
    7.155    6.4946
    7.170    6.7579
    7.185    6.3542
    7.200    6.6175
    7.215    6.8633
    7.230    6.5473
    7.245    6.6000
    7.260    7.0212
    7.275    6.6526
    7.290    6.5298
    7.305    6.4595
    7.320    6.4420
    7.335    6.2138
    7.350    6.2665
    7.365    5.8803
    7.380    6.0032
    7.395    6.4595
    7.410    6.8282
    7.425    6.6877
    7.440    6.3893
    7.455    6.6877
    7.470    6.8457
    7.485    6.8984
    7.500    6.8282
    7.515    6.8106
    7.530    6.8808
    7.545    7.0563
    7.560    6.7404
    7.575    7.2494
    7.590    6.7053
    7.605    6.9335
    7.620    7.1617
    7.635    7.5303
    7.650    7.6883
    7.665    6.9510
    7.680    7.3021
    7.695    7.6883
    7.710    8.6186
    7.725    9.1803
    7.740    8.9872
    7.755    8.8292
    7.770    8.5133
    7.785    9.1276
    7.800    8.9170
    7.815    8.7941
    7.830    7.9340
    7.845    7.3547
    7.860    6.9510
    7.875    7.2845
    7.890    7.1441
    7.905    6.8808
    7.920    6.9159
    7.935    7.2143
    7.950    6.7930
    7.965    6.4595
    7.980    6.4420
    7.995    6.6000
    8.010    7.1968
    8.025    6.9510
    8.040    6.9510
    8.055    6.5298
    8.070    6.3542
    8.085    6.7228
    8.100    6.7755
    8.115    6.9159
    8.130    7.1968
    8.145    6.7755
    8.160    6.7053
    8.175    6.8457
    8.190    6.6702
    8.205    6.7930
    8.220    7.3196
    8.235    7.0212
    8.250    6.3718
    8.265    7.0915
    8.280    6.5824
    8.295    6.6877
    8.310    6.6000
    8.325    6.7404
    8.340    6.9861
    8.355    6.6702
    8.370    7.0212
    8.385    6.8633
    8.400    6.4595
    8.415    6.7755
    8.430    6.8282
    8.445    7.1266
    8.460    6.9510
    8.475    6.7579
    8.490    7.2494
    8.505    7.0915
    8.520    7.3196
    8.535    7.2670
    8.550    6.9335
    8.565    7.2670
    8.580    6.8282
    8.595    7.1266
    8.610    6.6351
    8.625    7.1441
    8.640    6.7930
    8.655    7.8989
    8.670    7.7409
    8.685    7.8462
    8.700    7.3899
    8.715    6.8808
    8.730    7.0739
    8.745    7.3021
    8.760    7.0037
    8.775    6.7053
    8.790    7.2670
    8.805    6.7053
    8.820    6.6000
    8.835    6.9510
    8.850    6.9335
    8.865    7.3723
    8.880    7.3372
    8.895    6.9861
    8.910    6.5649
    8.925    6.8282
    8.940    6.9159
    8.955    7.1090
    8.970    7.3372
    8.985    7.2143
    9.000    6.9861
    9.015    7.0212
    9.030    6.8457
    9.045    7.1090
    9.060    7.2143
    9.075    7.3723
    9.090    7.0563
    9.105    6.5824
    9.120    6.6000
    9.135    7.4250
    9.150    7.0563
    9.165    7.6707
    9.180    7.3723
    9.195    7.1968
    9.210    7.0563
    9.225    7.6707
    9.240    7.3196
    9.255    7.0915
    9.270    7.2143
    9.285    7.3021
    9.300    7.9867
    9.315    7.3196
    9.330    7.6883
    9.345    8.3026
    9.360    8.1095
    9.375    8.1622
    9.390    8.7941
    9.405    8.3202
    9.420    8.9696
    9.435    9.0925
    9.450    8.9170
    9.465    9.4085
    9.480    9.9351
    9.495   10.9531
    9.510   11.7255
    9.525   11.6377
    9.540   11.5850
    9.555   11.2691
    9.570   11.5499
    9.585   10.8303
    9.600   10.1106
    9.615    9.7771
    9.630    9.2856
    9.645    8.7765
    9.660    8.1446
    9.675    7.7234
    9.690    7.2319
    9.705    7.1441
    9.720    6.7930
    9.735    7.2845
    9.750    7.4074
    9.765    7.4776
    9.780    7.0212
    9.795    7.1090
    9.810    7.2845
    9.825    7.4250
    9.840    7.5478
    9.855    7.4074
    9.870    7.9164
    9.885    7.6005
    9.900    7.3723
    9.915    7.0388
    9.930    6.8633
    9.945    6.5649
    9.960    7.1792
    9.975    7.5654
    9.990    7.1266
   10.005    7.2143
   10.020    7.1968
   10.035    7.3021
   10.050    6.9861
   10.065    7.1441
   10.080    7.1441
   10.095    7.9164
   10.110    8.0042
   10.125    7.3021
   10.140    7.9340
   10.155    7.5303
   10.170    7.4952
   10.185    8.2324
   10.200    8.4781
   10.215    8.2851
   10.230    8.3026
   10.245    8.8994
   10.260    8.3904
   10.275    8.3728
   10.290    8.7765
   10.305    9.3382
   10.320    9.4962
   10.335    8.9345
   10.350    8.9521
   10.365    8.4079
   10.380    8.1622
   10.395    7.7234
   10.410    7.7585
   10.425    7.5127
   10.440    7.4425
   10.455    7.6532
   10.470    7.2319
   10.485    7.3372
   10.500    7.1968
   10.515    7.0739
   10.530    6.6526
   10.545    7.3899
   10.560    7.2319
   10.575    7.3899
   10.590    7.2494
   10.605    6.7053
   10.620    6.7755
   10.635    6.6526
   10.650    6.6351
   10.665    6.8633
   10.680    6.5649
   10.695    7.2670
   10.710    7.7936
   10.725    7.8813
   10.740    7.1090
   10.755    7.2143
   10.770    6.6351
   10.785    7.2319
   10.800    7.3547
   10.815    7.0563
   10.830    7.1090
   10.845    7.4074
   10.860    7.3723
   10.875    6.7930
   10.890    6.6877
   10.905    6.8984
   10.920    6.4420
   10.935    7.1266
   10.950    7.5478
   10.965    7.8111
   10.980    8.0393
   10.995    7.8989
   11.010    8.4781
   11.025    8.4430
   11.040    8.3728
   11.055    8.0920
   11.070    7.7409
   11.085    7.9691
   11.100    7.7760
   11.115    7.0915
   11.130    6.7228
   11.145    7.0739
   11.160    6.9335
   11.175    6.6351
   11.190    6.6877
   11.205    6.6000
   11.220    6.8984
   11.235    6.6877
   11.250    6.1436
   11.265    6.5298
   11.280    6.3191
   11.295    6.5473
   11.310    6.1260
   11.325    6.3893
   11.340    6.3893
   11.355    5.8803
   11.370    6.6351
   11.385    6.8457
   11.400    6.2313
   11.415    6.8808
   11.430    6.5122
   11.445    6.5824
   11.460    6.7228
   11.475    7.0739
   11.490    6.6526
   11.505    6.7404
   11.520    6.9861
   11.535    6.2665
   11.550    6.7579
   11.565    6.9159
   11.580    6.7930
   11.595    7.0037
   11.610    7.7234
   11.625    7.3372
   11.640    7.4952
   11.655    7.4601
   11.670    7.9340
   11.685    7.5127
   11.700    7.6005
   11.715    7.7585
   11.730    7.8462
   11.745    7.2670
   11.760    7.3372
   11.775    7.8638
   11.790    7.2845
   11.805    6.7404
   11.820    6.7404
   11.835    6.6000
   11.850    6.8808
   11.865    6.6175
   11.880    6.1436
   11.895    6.3893
   11.910    6.2138
   11.925    6.4244
   11.940    6.1611
   11.955    6.0207
   11.970    6.2840
   11.985    6.2489
   12.000    6.4420
   12.015    6.0909
   12.030    5.9505
   12.045    6.0207
   12.060    6.3718
   12.075    5.6345
   12.090    5.9505
   12.105    6.2840
   12.120    5.9505
   12.135    6.1787
   12.150    6.3718
   12.165    6.4244
   12.180    5.9505
   12.195    6.3191
   12.210    5.8978
   12.225    5.5819
   12.240    5.9681
   12.255    6.0207
   12.270    5.9681
   12.285    6.6351
   12.300    6.5473
   12.315    6.7404
   12.330    6.2665
   12.345    6.5824
   12.360    6.5122
   12.375    6.2138
   12.390    6.4069
   12.405    6.4595
   12.420    6.0383
   12.435    6.3191
   12.450    5.8452
   12.465    6.0734
   12.480    5.8978
   12.495    6.3367
   12.510    6.0734
   12.525    6.3367
   12.540    6.1260
   12.555    6.3542
   12.570    6.3016
   12.585    6.3016
   12.600    6.3016
   12.615    6.0734
   12.630    6.3016
   12.645    6.2840
   12.660    5.5994
   12.675    6.3016
   12.690    6.0734
   12.705    6.2489
   12.720    6.3191
   12.735    5.9505
   12.750    5.9329
   12.765    6.1436
   12.780    6.3718
   12.795    6.3191
   12.810    6.3893
   12.825    6.3367
   12.840    5.9681
   12.855    6.0909
   12.870    6.0032
   12.885    6.3016
   12.900    6.8282
   12.915    6.2489
   12.930    6.2138
   12.945    6.5298
   12.960    6.9861
   12.975    7.4250
   12.990    7.0212
   13.005    7.1090
   13.020    7.0563
   13.035    6.6000
   13.050    7.0037
   13.065    6.5473
   13.080    6.0207
   13.095    5.9154
   13.110    6.0383
   13.125    5.7223
   13.140    6.1787
   13.155    5.9681
   13.170    5.5468
   13.185    6.1611
   13.200    6.3893
   13.215    5.8803
   13.230    6.0207
   13.245    5.9681
   13.260    5.8978
   13.275    5.7399
   13.290    5.5643
   13.305    5.9856
   13.320    5.7750
   13.335    5.8276
   13.350    5.7399
   13.365    5.8803
   13.380    5.9681
   13.395    6.1962
   13.410    6.5473
   13.425    5.9505
   13.440    6.1962
   13.455    6.6351
   13.470    6.0558
   13.485    6.0909
   13.500    6.3016
   13.515    6.5298
   13.530    6.2840
   13.545    6.0558
   13.560    6.6526
   13.575    6.0909
   13.590    6.1787
   13.605    6.1962
   13.620    6.4244
   13.635    6.1962
   13.650    6.1787
   13.665    6.0558
   13.680    5.7574
   13.695    5.6697
   13.710    5.4590
   13.725    5.5994
   13.740    5.3186
   13.755    5.7048
   13.770    6.3191
   13.785    5.9681
   13.800    5.5994
   13.815    5.9681
   13.830    5.7399
   13.845    6.1085
   13.860    5.6170
   13.875    5.7925
   13.890    6.1611
   13.905    6.0558
   13.920    6.0383
   13.935    6.0032
   13.950    6.5122
   13.965    6.3191
   13.980    6.2138
   13.995    6.3542
   14.010    6.1085
   14.025    6.1085
   14.040    6.5298
   14.055    6.4946
   14.070    6.6351
   14.085    6.9861
   14.100    6.8282
   14.115    6.5824
   14.130    6.3893
   14.145    6.3718
   14.160    6.4946
   14.175    6.3542
   14.190    6.3718
   14.205    6.3367
   14.220    6.4244
   14.235    6.0383
   14.250    6.9510
   14.265    5.8452
   14.280    6.1787
   14.295    5.6697
   14.310    5.7399
   14.325    5.7048
   14.340    5.5117
   14.355    5.6521
   14.370    5.6697
   14.385    5.6345
   14.400    5.5468
   14.415    5.7574
   14.430    5.9681
   14.445    5.5468
   14.460    5.2484
   14.475    6.1436
   14.490    5.6345
   14.505    6.0383
   14.520    5.9681
   14.535    5.8101
   14.550    6.2313
   14.565    6.2665
   14.580    6.0383
   14.595    5.8803
   14.610    5.7925
   14.625    5.5292
   14.640    5.9681
   14.655    5.8276
   14.670    5.4766
   14.685    5.8276
   14.700    6.1962
   14.715    5.9154
   14.730    5.9329
   14.745    5.8452
   14.760    5.3361
   14.775    5.6872
   14.790    6.0909
   14.805    6.0207
   14.820    5.5643
   14.835    5.3361
   14.850    5.6521
   14.865    6.3718
   14.880    5.9329
   14.895    5.8978
   14.910    5.6170
   14.925    5.7925
   14.940    5.8452
   14.955    5.6521
   14.970    6.1085
   14.985    5.9154
   15.000    5.7223
   15.015    5.8452
   15.030    5.5468
   15.045    5.8978
   15.060    6.2313
   15.075    6.1436
   15.090    5.7574
   15.105    6.0032
   15.120    6.4595
   15.135    6.1436
   15.150    6.0558
   15.165    6.0032
   15.180    6.3718
   15.195    5.8276
   15.210    5.5643
   15.225    5.7925
   15.240    5.6872
   15.255    5.9329
   15.270    5.9154
   15.285    5.6521
   15.300    5.8452
   15.315    6.0909
   15.330    6.0207
   15.345    5.8276
   15.360    5.9856
   15.375    6.2138
   15.390    6.1787
   15.405    5.8803
   15.420    5.6872
   15.435    6.1962
   15.450    5.8452
   15.465    5.9505
   15.480    5.9856
   15.495    5.7223
   15.510    5.6345
   15.525    5.8452
   15.540    6.4946
   15.555    6.0207
   15.570    5.7048
   15.585    5.4064
   15.600    5.7574
   15.615    5.8101
   15.630    5.4239
   15.645    5.8101
   15.660    6.1787
   15.675    5.8452
   15.690    5.8101
   15.705    5.6521
   15.720    5.7223
   15.735    5.9505
   15.750    5.6872
   15.765    5.6170
   15.780    5.6697
   15.795    5.5292
   15.810    5.7399
   15.825    5.6872
   15.840    5.6872
   15.855    5.6872
   15.870    5.8101
   15.885    5.5468
   15.900    6.2313
   15.915    5.4590
   15.930    6.1436
   15.945    6.1260
   15.960    5.5292
   15.975    5.9856
   15.990    5.7574
   16.005    5.9856
   16.020    5.6872
   16.035    6.3542
   16.050    6.4069
   16.065    5.7574
   16.080    6.1085
   16.095    6.2313
   16.110    6.2840
   16.125    6.5122
   16.140    6.0734
   16.155    5.3361
   16.170    5.9505
   16.185    6.1436
   16.200    5.8276
   16.215    6.5122
   16.230    6.0734
   16.245    5.9154
   16.260    5.8452
   16.275    5.9505
   16.290    5.7399
   16.305    6.3191
   16.320    6.0558
   16.335    6.0383
   16.350    6.3893
   16.365    5.0904
   16.380    5.8276
   16.395    6.2665
   16.410    5.7574
   16.425    5.4064
   16.440    5.7925
   16.455    5.9856
   16.470    5.8452
   16.485    5.7048
   16.500    5.9681
   16.515    5.7399
   16.530    5.6170
   16.545    5.9505
   16.560    5.7574
   16.575    6.1260
   16.590    5.5819
   16.605    5.8276
   16.620    6.4595
   16.635    6.4069
   16.650    6.4420
   16.665    5.8978
   16.680    6.6526
   16.695    6.5649
   16.710    6.0558
   16.725    6.1611
   16.740    5.6345
   16.755    5.9681
   16.770    5.6170
   16.785    5.7399
   16.800    5.8978
   16.815    6.1085
   16.830    5.7574
   16.845    5.6697
   16.860    6.0383
   16.875    5.8978
   16.890    5.9505
   16.905    6.1787
   16.920    5.6521
   16.935    5.5468
   16.950    5.8803
   16.965    6.0032
   16.980    5.7750
   16.995    5.9856
   17.010    6.2489
   17.025    5.8978
   17.040    6.1085
   17.055    5.8978
   17.070    6.7053
   17.085    6.7755
   17.100    6.3367
   17.115    6.4595
   17.130    6.0558
   17.145    6.2665
   17.160    5.9154
   17.175    6.1611
   17.190    6.0383
   17.205    6.0032
   17.220    6.0558
   17.235    5.9856
   17.250    5.5643
   17.265    5.6872
   17.280    6.0032
   17.295    5.7048
   17.310    5.9329
   17.325    5.8627
   17.340    5.9329
   17.355    5.4590
   17.370    5.7223
   17.385    5.7574
   17.400    5.8803
   17.415    5.8101
   17.430    6.3191
   17.445    6.1085
   17.460    6.0383
   17.475    5.5643
   17.490    6.1611
   17.505    6.7053
   17.520    5.9681
   17.535    6.3367
   17.550    6.1611
   17.565    6.4595
   17.580    5.9856
   17.595    5.7223
   17.610    5.7399
   17.625    5.8627
   17.640    6.3016
   17.655    6.3367
   17.670    5.8627
   17.685    5.4590
   17.700    6.0734
   17.715    6.0207
   17.730    5.9154
   17.745    5.9505
   17.760    5.3888
   17.775    5.5292
   17.790    5.8803
   17.805    5.7048
   17.820    6.1962
   17.835    5.9329
   17.850    5.9154
   17.865    6.3016
   17.880    5.8978
   17.895    5.9505
   17.910    5.7048
   17.925    5.6872
   17.940    5.5994
   17.955    5.8452
   17.970    5.9681
   17.985    5.9154
   18.000    6.0909
   18.015    6.1962
   18.030    6.3016
   18.045    6.1436
   18.060    5.9154
   18.075    5.7223
   18.090    6.2665
   18.105    6.0734
   18.120    6.3718
   18.135    6.0909
   18.150    5.7399
   18.165    5.8101
   18.180    5.8276
   18.195    5.5819
   18.210    5.9154
   18.225    5.7048
   18.240    5.7223
   18.255    5.7925
   18.270    5.3361
   18.285    5.7048
   18.300    5.7574
   18.315    5.5643
   18.330    5.8978
   18.345    6.2313
   18.360    6.1962
   18.375    5.5819
   18.390    5.9154
   18.405    6.1787
   18.420    5.7925
   18.435    5.7925
   18.450    5.4941
   18.465    5.9154
   18.480    5.6170
   18.495    5.4941
   18.510    5.6872
   18.525    6.0734
   18.540    5.9681
   18.555    6.0207
   18.570    6.1787
   18.585    6.4595
   18.600    6.1436
   18.615    6.2138
   18.630    5.4590
   18.645    5.8978
   18.660    6.0207
   18.675    5.5468
   18.690    6.1436
   18.705    5.7750
   18.720    5.8978
   18.735    5.9329
   18.750    6.1085
   18.765    5.9154
   18.780    6.0207
   18.795    6.0383
   18.810    6.1436
   18.825    6.0558
   18.840    5.6872
   18.855    6.1260
   18.870    6.1611
   18.885    6.3367
   18.900    6.2840
   18.915    6.1085
   18.930    6.4595
   18.945    6.6351
   18.960    6.8282
   18.975    6.1611
   18.990    6.4244
   19.005    6.2665
   19.020    6.5298
   19.035    5.5994
   19.050    5.8978
   19.065    6.1962
   19.080    6.0734
   19.095    5.7750
   19.110    5.4590
   19.125    5.5643
   19.140    5.5468
   19.155    5.7223
   19.170    6.0734
   19.185    6.5649
   19.200    6.0207
   19.215    5.8978
   19.230    6.3016
   19.245    6.0207
   19.260    5.5819
   19.275    5.8101
   19.290    5.7223
   19.305    6.0383
   19.320    5.9505
   19.335    5.8978
   19.350    6.1085
   19.365    5.7399
   19.380    5.7399
   19.395    5.9856
   19.410    5.7925
   19.425    5.5819
   19.440    6.1085
   19.455    5.8803
   19.470    5.7574
   19.485    6.4420
   19.500    5.7223
   19.515    5.6697
   19.530    5.9681
   19.545    6.0734
   19.560    6.1787
   19.575    6.3893
   19.590    6.8984
   19.605    6.5473
   19.620    6.2138
   19.635    6.1611
   19.650    6.2840
   19.665    6.5649
   19.680    6.4069
   19.695    5.7574
   19.710    5.9154
   19.725    5.7399
   19.740    6.1611
   19.755    6.1962
   19.770    6.2313
   19.785    5.2484
   19.800    5.8101
   19.815    5.7574
   19.830    5.2133
   19.845    5.7574
   19.860    6.1085
   19.875    5.7223
   19.890    5.7048
   19.905    6.1611
   19.920    5.5468
   19.935    6.2138
   19.950    5.8101
   19.965    5.9154
   19.980    6.4420
   19.995    5.9681
   20.010    5.7399
   20.025    6.0734
   20.040    6.3542
   20.055    5.8627
   20.070    5.9681
   20.085    5.8978
   20.100    6.0558
   20.115    5.8978
   20.130    6.3367
   20.145    6.2665
   20.160    5.7223
   20.175    5.4239
   20.190    5.9329
   20.205    5.5994
   20.220    5.9154
   20.235    5.8978
   20.250    5.8627
   20.265    6.0207
   20.280    6.2138
   20.295    6.3893
   20.310    6.1260
   20.325    5.8101
   20.340    6.6526
   20.355    7.0915
   20.370    6.3367
   20.385    6.4946
   20.400    6.3718
   20.415    6.7404
   20.430    6.8282
   20.445    6.7404
   20.460    6.1436
   20.475    6.1436
   20.490    6.1611
   20.505    6.1787
   20.520    6.6877
   20.535    6.0032
   20.550    6.1962
   20.565    5.8978
   20.580    6.5649
   20.595    6.3367
   20.610    5.6521
   20.625    5.6170
   20.640    6.1260
   20.655    6.6175
   20.670    6.0383
   20.685    6.0734
   20.700    6.4420
   20.715    6.0909
   20.730    6.0383
   20.745    5.8627
   20.760    5.7925
   20.775    5.7399
   20.790    5.7399
   20.805    6.1962
   20.820    6.4595
   20.835    6.0383
   20.850    6.1611
   20.865    6.1611
   20.880    5.4415
   20.895    5.8276
   20.910    6.0909
   20.925    5.8627
   20.940    6.0207
   20.955    6.2665
   20.970    6.2313
   20.985    5.7750
   21.000    6.0207
   21.015    5.8627
   21.030    5.8452
   21.045    6.1085
   21.060    6.1611
   21.075    5.8101
   21.090    6.0558
   21.105    6.0383
   21.120    6.0909
   21.135    5.6345
   21.150    5.8978
   21.165    5.9681
   21.180    6.3718
   21.195    6.0909
   21.210    6.0207
   21.225    5.6521
   21.240    5.6170
   21.255    5.4590
   21.270    5.8803
   21.285    6.1436
   21.300    5.3888
   21.315    5.7750
   21.330    6.2665
   21.345    5.8627
   21.360    6.0207
   21.375    5.7925
   21.390    5.8627
   21.405    5.8803
   21.420    5.9856
   21.435    6.0909
   21.450    6.0207
   21.465    5.8978
   21.480    6.3191
   21.495    6.2840
   21.510    5.9154
   21.525    6.1260
   21.540    6.4946
   21.555    6.1436
   21.570    5.7925
   21.585    6.3893
   21.600    6.0383
   21.615    5.7925
   21.630    6.0909
   21.645    6.0207
   21.660    6.1085
   21.675    6.4420
   21.690    6.3718
   21.705    6.4771
   21.720    6.1085
   21.735    5.5468
   21.750    5.8978
   21.765    6.1962
   21.780    6.2313
   21.795    6.1436
   21.810    6.5649
   21.825    6.1611
   21.840    6.4946
   21.855    6.2489
   21.870    6.5122
   21.885    6.4244
   21.900    6.3367
   21.915    5.9505
   21.930    6.2840
   21.945    6.0909
   21.960    5.8978
   21.975    6.4069
   21.990    6.2138
   22.005    6.4069
   22.020    6.2138
   22.035    6.2138
   22.050    6.0734
   22.065    6.3191
   22.080    6.3893
   22.095    6.1611
   22.110    5.7399
   22.125    5.4064
   22.140    5.8803
   22.155    6.1260
   22.170    6.0207
   22.185    5.7574
   22.200    5.6697
   22.215    6.4069
   22.230    6.6351
   22.245    6.2138
   22.260    5.9329
   22.275    5.8803
   22.290    6.4595
   22.305    6.2665
   22.320    6.2489
   22.335    5.9681
   22.350    6.2840
   22.365    5.9329
   22.380    6.1962
   22.395    6.1611
   22.410    6.1611
   22.425    6.1436
   22.440    6.0032
   22.455    5.9329
   22.470    7.0037
   22.485    6.6000
   22.500    6.7053
   22.515    6.2489
   22.530    6.4420
   22.545    7.0212
   22.560    6.4595
   22.575    6.3893
   22.590    6.1085
   22.605    6.0734
   22.620    6.8457
   22.635    6.4595
   22.650    6.5122
   22.665    6.6526
   22.680    6.3367
   22.695    6.4069
   22.710    6.3893
   22.725    5.9329
   22.740    5.9505
   22.755    6.3893
   22.770    6.0734
   22.785    6.1436
   22.800    6.2489
   22.815    6.5649
   22.830    6.7228
   22.845    6.6877
   22.860    6.4244
   22.875    6.1962
   22.890    6.5298
   22.905    6.8808
   22.920    6.7228
   22.935    6.4069
   22.950    6.6526
   22.965    6.4069
   22.980    6.4420
   22.995    6.3191
   23.010    6.2489
   23.025    6.4771
   23.040    6.4595
   23.055    6.4771
   23.070    6.1787
   23.085    5.8978
   23.100    6.1436
   23.115    6.2313
   23.130    6.3893
   23.145    5.8452
   23.160    6.6526
   23.175    6.3893
   23.190    6.0032
   23.205    6.3191
   23.220    6.4069
   23.235    6.1962
   23.250    5.7399
   23.265    6.0383
   23.280    6.2313
   23.295    5.9505
   23.310    5.8803
   23.325    6.3016
   23.340    6.2313
   23.355    6.1260
   23.370    6.3367
   23.385    5.8978
   23.400    6.1260
   23.415    6.0032
   23.430    5.7399
   23.445    5.9681
   23.460    6.1085
   23.475    6.1787
   23.490    6.2840
   23.505    5.9329
   23.520    5.8452
   23.535    5.8803
   23.550    5.7750
   23.565    5.6697
   23.580    5.6345
   23.595    6.4069
   23.610    6.6000
   23.625    6.2840
   23.640    6.1436
   23.655    5.9856
   23.670    5.9329
   23.685    5.9329
   23.700    5.9154
   23.715    5.8978
   23.730    5.8803
   23.745    6.3718
   23.760    6.7755
   23.775    6.4069
   23.790    6.2489
   23.805    6.5649
   23.820    6.6000
   23.835    6.1085
   23.850    5.4941
   23.865    6.3542
   23.880    6.3542
   23.895    6.3367
   23.910    6.0558
   23.925    6.2138
   23.940    5.9505
   23.955    6.0734
   23.970    5.9329
   23.985    5.9329
   24.000    6.0032
   24.015    6.4069
   24.030    6.1436
   24.045    6.3542
   24.060    6.4771
   24.075    6.4244
   24.090    6.6351
   24.105    6.2489
   24.120    6.0734
   24.135    5.5819
   24.150    6.1085
   24.165    6.1085
   24.180    5.9329
   24.195    6.2840
   24.210    5.7399
   24.225    5.9154
   24.240    6.0032
   24.255    6.2665
   24.270    5.7925
   24.285    5.7223
   24.300    6.1260
   24.315    6.0032
   24.330    6.0558
   24.345    5.6872
   24.360    5.7223
   24.375    5.9681
   24.390    5.8101
   24.405    5.7750
   24.420    5.7223
   24.435    5.8452
   24.450    6.1962
   24.465    5.7399
   24.480    5.5643
   24.495    5.6697
   24.510    5.9681
   24.525    5.4941
   24.540    5.9505
   24.555    6.3016
   24.570    5.4941
   24.585    6.1260
   24.600    6.5824
   24.615    6.1787
   24.630    6.2313
   24.645    6.2665
   24.660    5.8803
   24.675    5.9329
   24.690    5.6872
   24.705    5.5468
   24.720    6.0032
   24.735    5.9681
   24.750    5.9681
   24.765    6.4244
   24.780    6.3016
   24.795    6.2489
   24.810    6.2313
   24.825    5.6521
   24.840    5.6345
   24.855    5.7399
   24.870    5.5117
   24.885    6.0558
   24.900    5.8452
   24.915    5.2308
   24.930    5.7574
   24.945    6.1436
   24.960    5.8627
   24.975    5.7750
   24.990    6.2313
   25.005    5.8803
   25.020    5.8978
   25.035    5.8101
   25.050    5.7223
   25.065    5.4941
   25.080    5.7574
   25.095    5.7925
   25.110    5.7223
   25.125    5.7223
   25.140    5.6872
   25.155    6.0207
   25.170    6.0558
   25.185    5.9505
   25.200    5.8978
   25.215    5.5117
   25.230    5.8627
   25.245    6.2313
   25.260    5.5468
   25.275    5.4590
   25.290    5.7399
   25.305    5.6697
   25.320    5.9505
   25.335    5.7399
   25.350    5.3888
   25.365    6.0734
   25.380    5.7925
   25.395    6.0909
   25.410    5.8978
   25.425    5.7925
   25.440    5.8276
   25.455    5.5994
   25.470    5.2835
   25.485    5.6521
   25.500    6.0383
   25.515    5.7223
   25.530    6.0558
   25.545    6.1260
   25.560    5.7925
   25.575    6.3893
   25.590    5.5292
   25.605    5.0026
   25.620    5.6345
   25.635    6.0032
   25.650    5.9329
   25.665    5.3712
   25.680    5.5819
   25.695    6.0207
   25.710    6.4771
   25.725    5.9329
   25.740    6.2840
   25.755    6.0032
   25.770    6.3367
   25.785    6.4069
   25.800    6.5824
   25.815    6.3367
   25.830    6.4595
   25.845    5.7223
   25.860    5.8627
   25.875    5.6521
   25.890    6.3191
   25.905    6.5649
   25.920    6.2840
   25.935    6.1787
   25.950    5.7574
   25.965    6.1611
   25.980    6.1085
   25.995    5.7223
   26.010    6.0207
   26.025    6.2489
   26.040    5.9329
   26.055    5.8627
   26.070    5.7574
   26.085    6.3367
   26.100    6.1962
   26.115    6.1260
   26.130    5.7223
   26.145    5.5819
   26.160    5.5643
   26.175    5.4766
   26.190    5.8276
   26.205    5.5292
   26.220    5.7223
   26.235    6.0383
   26.250    5.6697
   26.265    5.5117
   26.280    5.7399
   26.295    5.6872
   26.310    5.6521
   26.325    5.2133
   26.340    5.9856
   26.355    5.9329
   26.370    5.9681
   26.385    6.3191
   26.400    6.0032
   26.415    6.1611
   26.430    6.1085
   26.445    5.2484
   26.460    5.8978
   26.475    5.7399
   26.490    5.7399
   26.505    5.9856
   26.520    5.5117
   26.535    5.6170
   26.550    5.9329
   26.565    6.1436
   26.580    5.9856
   26.595    5.9681
   26.610    6.3016
   26.625    5.8627
   26.640    5.9681
   26.655    5.9681
   26.670    6.3718
   26.685    6.0558
   26.700    5.7925
   26.715    6.0909
   26.730    5.8627
   26.745    5.6697
   26.760    5.4064
   26.775    5.4941
   26.790    5.5468
   26.805    6.3191
   26.820    6.0383
   26.835    6.0207
   26.850    5.8101
   26.865    5.6170
   26.880    5.7925
   26.895    5.5468
   26.910    5.3361
   26.925    5.8101
   26.940    5.5117
   26.955    6.1436
   26.970    5.5292
   26.985    5.6345
   27.000    6.0558
   27.015    5.9505
   27.030    6.3016
   27.045    6.0558
   27.060    6.0558
   27.075    5.7925
   27.090    5.7925
   27.105    5.6345
   27.120    5.7223
   27.135    6.3367
   27.150    6.1962
   27.165    5.7223
   27.180    5.4239
   27.195    5.6170
   27.210    5.6345
   27.225    5.7574
   27.240    5.6697
   27.255    5.9154
   27.270    5.5117
   27.285    5.9329
   27.300    5.5117
   27.315    6.2489
   27.330    5.9681
   27.345    5.4766
   27.360    5.7048
   27.375    5.6521
   27.390    5.8627
   27.405    5.9329
   27.420    5.5819
   27.435    5.5292
   27.450    5.7925
   27.465    5.6521
   27.480    5.1957
   27.495    5.1782
   27.510    5.1255
   27.525    5.4590
   27.540    5.3712
   27.555    6.0207
   27.570    5.8803
   27.585    5.5819
   27.600    5.8627
   27.615    5.9505
   27.630    6.1260
   27.645    5.8101
   27.660    5.7048
   27.675    5.3010
   27.690    5.5117
   27.705    5.3361
   27.720    5.8978
   27.735    5.5819
   27.750    5.8276
   27.765    5.5468
   27.780    5.8803
   27.795    5.7399
   27.810    5.2308
   27.825    5.7750
   27.840    5.8101
   27.855    5.3010
   27.870    5.5468
   27.885    5.7223
   27.900    5.6697
   27.915    5.6345
   27.930    5.6345
   27.945    6.4420
   27.960    5.8978
   27.975    5.8978
   27.990    6.2138
   28.005    5.6697
   28.020    5.2133
   28.035    5.7750
   28.050    5.8101
   28.065    5.5468
   28.080    6.0032
   28.095    6.0558
   28.110    5.5468
   28.125    5.5468
   28.140    5.5819
   28.155    5.8978
   28.170    5.6697
   28.185    6.2138
   28.200    5.9681
   28.215    5.5117
   28.230    5.6170
   28.245    5.5117
   28.260    5.5292
   28.275    5.9329
   28.290    5.8452
   28.305    5.5643
   28.320    5.0904
   28.335    5.4239
   28.350    5.7574
   28.365    5.5292
   28.380    5.9154
   28.395    5.5643
   28.410    5.1431
   28.425    5.5468
   28.440    5.5117
   28.455    5.5643
   28.470    5.6345
   28.485    5.1431
   28.500    5.5292
   28.515    5.8627
   28.530    6.0207
   28.545    5.7048
   28.560    5.5994
   28.575    5.4415
   28.590    5.1957
   28.605    5.2835
   28.620    5.1255
   28.635    5.3537
   28.650    5.4766
   28.665    5.3186
   28.680    5.1957
   28.695    5.8101
   28.710    5.5643
   28.725    6.1260
   28.740    5.7223
   28.755    5.4415
   28.770    5.3537
   28.785    5.2308
   28.800    5.5292
   28.815    5.4239
   28.830    5.3712
   28.845    5.7574
   28.860    5.4415
   28.875    5.5994
   28.890    5.9856
   28.905    5.9329
   28.920    5.2308
   28.935    5.6521
   28.950    6.3367
   28.965    5.7399
   28.980    5.5819
   28.995    5.7574
   29.010    5.6345
   29.025    4.9675
   29.040    5.3712
   29.055    5.6345
   29.070    5.6521
   29.085    5.3010
   29.100    5.4941
   29.115    5.6697
   29.130    5.7750
   29.145    5.7399
   29.160    5.5292
   29.175    6.0383
   29.190    5.2308
   29.205    5.2659
   29.220    5.5819
   29.235    6.1611
   29.250    5.0377
   29.265    5.2484
   29.280    6.0909
   29.295    5.6345
   29.310    5.8452
   29.325    5.5643
   29.340    5.9856
   29.355    5.5292
   29.370    5.3712
   29.385    5.4766
   29.400    5.9856
   29.415    6.0909
   29.430    5.5994
   29.445    5.6872
   29.460    5.8276
   29.475    5.2484
   29.490    5.5292
   29.505    5.4941
   29.520    5.4239
   29.535    5.3537
   29.550    5.0026
   29.565    5.2659
   29.580    5.2484
   29.595    5.7925
   29.610    5.4064
   29.625    5.2133
   29.640    5.0904
   29.655    5.1782
   29.670    5.1782
   29.685    5.7925
   29.700    5.5292
   29.715    4.9149
   29.730    5.5819
   29.745    5.5994
   29.760    5.3361
   29.775    5.3361
   29.790    5.2133
   29.805    5.0904
   29.820    5.5292
   29.835    5.2484
   29.850    5.4239
   29.865    4.9500
   29.880    5.3186
   29.895    5.6697
   29.910    5.5292
   29.925    5.5819
   29.940    5.1606
   29.955    5.4941
   29.970    5.3537
   29.985    5.3537
   30.000    5.3712
   30.015    5.7574
   30.030    5.4064
   30.045    5.2835
   30.060    4.9851
   30.075    5.1431
   30.090    5.0377
   30.105    5.2835
   30.120    5.1255
   30.135    5.3361
   30.150    5.4941
   30.165    5.5643
   30.180    5.4064
   30.195    5.5819
   30.210    5.5468
   30.225    5.4590
   30.240    5.2484
   30.255    5.5643
   30.270    5.2659
   30.285    5.3537
   30.300    5.2659
   30.315    5.2484
   30.330    5.0026
   30.345    5.0202
   30.360    5.2484
   30.375    5.4064
   30.390    5.3010
   30.405    5.3537
   30.420    5.3537
   30.435    5.6521
   30.450    5.6521
   30.465    5.5994
   30.480    5.8276
   30.495    5.5643
   30.510    5.3186
   30.525    5.3888
   30.540    5.6345
   30.555    5.7925
   30.570    5.1957
   30.585    4.9324
   30.600    5.3361
   30.615    5.0904
   30.630    5.2659
   30.645    5.5117
   30.660    5.3712
   30.675    5.2835
   30.690    5.3010
   30.705    5.3537
   30.720    5.1782
   30.735    5.5292
   30.750    5.3186
   30.765    5.2835
   30.780    4.7744
   30.795    5.3712
   30.810    5.7750
   30.825    5.1782
   30.840    4.8622
   30.855    5.0026
   30.870    5.4239
   30.885    5.4766
   30.900    5.1957
   30.915    5.2133
   30.930    5.5292
   30.945    5.4064
   30.960    5.2484
   30.975    5.3888
   30.990    5.2659
   31.005    5.6521
   31.020    5.6872
   31.035    5.4415
   31.050    5.0904
   31.065    5.1080
   31.080    5.4415
   31.095    5.3361
   31.110    4.7393
   31.125    4.9851
   31.140    5.6697
   31.155    5.3888
   31.170    5.2484
   31.185    5.2659
   31.200    5.3888
   31.215    5.1080
   31.230    5.2484
   31.245    5.1782
   31.260    4.7920
   31.275    5.4415
   31.290    4.8798
   31.305    4.9851
   31.320    5.0377
   31.335    5.1255
   31.350    4.8798
   31.365    5.1431
   31.380    5.4415
   31.395    5.1782
   31.410    4.8095
   31.425    5.2308
   31.440    5.1606
   31.455    5.2659
   31.470    4.9324
   31.485    5.1255
   31.500    5.4766
   31.515    5.1431
   31.530    4.7218
   31.545    5.3888
   31.560    5.7399
   31.575    5.6521
   31.590    5.3186
   31.605    5.4766
   31.620    5.4415
   31.635    5.0026
   31.650    5.0728
   31.665    5.0377
   31.680    4.9149
   31.695    4.8271
   31.710    5.0728
   31.725    5.5643
   31.740    5.3537
   31.755    5.6872
   31.770    5.1080
   31.785    5.0553
   31.800    5.6521
   31.815    4.9851
   31.830    4.9500
   31.845    5.1782
   31.860    5.2659
   31.875    5.5117
   31.890    5.5819
   31.905    5.5994
   31.920    5.2659
   31.935    5.0026
   31.950    5.0728
   31.965    5.1957
   31.980    5.3888
   31.995    5.5117
   32.010    5.5468
   32.025    5.8276
   32.040    5.6697
   32.055    5.7048
   32.070    5.9681
   32.085    5.6170
   32.100    5.6697
   32.115    6.0734
   32.130    5.9681
   32.145    5.9329
   32.160    5.9154
   32.175    5.3186
   32.190    5.1782
   32.205    4.9675
   32.220    5.3361
   32.235    5.0377
   32.250    5.0202
   32.265    5.1080
   32.280    4.9149
   32.295    5.2133
   32.310    5.0026
   32.325    4.8973
   32.340    5.2484
   32.355    5.1957
   32.370    5.0026
   32.385    4.7569
   32.400    4.9675
   32.415    5.1782
   32.430    5.6170
   32.445    5.3712
   32.460    4.9324
   32.475    5.0202
   32.490    5.1782
   32.505    5.5117
   32.520    5.7574
   32.535    5.3537
   32.550    4.9851
   32.565    5.1606
   32.580    5.2835
   32.595    5.1957
   32.610    4.9324
   32.625    5.0553
   32.640    5.2133
   32.655    4.7744
   32.670    4.9500
   32.685    4.9851
   32.700    4.8622
   32.715    5.2308
   32.730    5.2835
   32.745    4.7042
   32.760    4.6867
   32.775    5.3010
   32.790    5.4239
   32.805    5.1782
   32.820    4.7569
   32.835    5.0553
   32.850    5.3888
   32.865    5.1431
   32.880    5.3010
   32.895    5.0904
   32.910    5.2659
   32.925    5.0026
   32.940    4.8447
   32.955    5.0904
   32.970    5.2133
   32.985    5.0728
   33.000    4.9851
   33.015    4.8622
   33.030    5.4239
   33.045    4.8622
   33.060    4.6691
   33.075    4.2654
   33.090    4.9324
   33.105    4.8447
   33.120    5.0904
   33.135    4.8622
   33.150    4.8798
   33.165    5.0202
   33.180    4.5463
   33.195    4.7218
   33.210    4.7218
   33.225    5.3888
   33.240    5.0904
   33.255    5.1431
   33.270    5.1782
   33.285    4.6867
   33.300    5.0377
   33.315    4.8271
   33.330    4.7920
   33.345    4.5638
   33.360    5.3010
   33.375    5.0026
   33.390    5.3712
   33.405    4.8622
   33.420    4.8973
   33.435    4.9324
   33.450    4.6691
   33.465    5.2308
   33.480    4.8798
   33.495    4.9675
   33.510    4.7218
   33.525    4.9500
   33.540    5.1255
   33.555    4.6165
   33.570    5.1431
   33.585    4.9149
   33.600    5.1431
   33.615    5.5643
   33.630    4.7920
   33.645    5.0904
   33.660    5.3361
   33.675    4.4760
   33.690    4.8973
   33.705    5.4239
   33.720    5.3712
   33.735    5.3361
   33.750    5.3712
   33.765    5.4239
   33.780    5.2835
   33.795    4.9851
   33.810    5.2659
   33.825    5.4415
   33.840    5.4941
   33.855    4.8622
   33.870    4.9851
   33.885    5.1782
   33.900    4.7393
   33.915    4.9675
   33.930    5.7574
   33.945    5.3186
   33.960    5.0904
   33.975    5.1957
   33.990    5.2484
   34.005    4.7920
   34.020    4.9149
   34.035    5.1431
   34.050    5.2484
   34.065    5.1255
   34.080    5.2835
   34.095    4.7042
   34.110    4.6691
   34.125    5.0904
   34.140    4.7569
   34.155    4.7042
   34.170    4.8095
   34.185    5.3888
   34.200    5.5643
   34.215    4.9675
   34.230    5.2484
   34.245    4.6516
   34.260    4.4760
   34.275    4.6516
   34.290    4.6867
   34.305    5.1080
   34.320    5.0553
   34.335    5.1255
   34.350    4.7744
   34.365    5.0553
   34.380    5.0728
   34.395    5.1957
   34.410    5.2659
   34.425    4.7042
   34.440    4.6516
   34.455    4.6867
   34.470    4.5111
   34.485    4.8622
   34.500    4.8798
   34.515    4.7393
   34.530    4.8973
   34.545    5.0026
   34.560    4.8095
   34.575    4.8798
   34.590    4.7042
   34.605    5.1782
   34.620    4.5287
   34.635    4.8095
   34.650    4.8973
   34.665    4.9851
   34.680    4.7218
   34.695    5.0377
   34.710    4.7393
   34.725    4.4936
   34.740    4.9149
   34.755    5.2835
   34.770    4.9675
   34.785    4.6340
   34.800    4.5463
   34.815    5.1431
   34.830    5.1782
   34.845    5.1255
   34.860    4.9675
   34.875    5.2484
   34.890    4.7393
   34.905    4.9851
   34.920    5.3186
   34.935    4.7920
   34.950    5.2308
   34.965    4.6340
   34.980    4.8798
   34.995    5.2133
   35.010    5.1606
   35.025    5.3010
   35.040    4.8798
   35.055    4.7042
   35.070    4.6340
   35.085    4.4760
   35.100    5.2308
   35.115    4.9851
   35.130    4.6516
   35.145    4.8447
   35.160    5.1255
   35.175    4.5287
   35.190    4.6691
   35.205    4.6516
   35.220    4.9500
   35.235    5.4064
   35.250    4.8798
   35.265    5.0026
   35.280    5.2308
   35.295    4.9149
   35.310    4.8271
   35.325    4.4409
   35.340    4.8447
   35.355    4.6340
   35.370    4.9851
   35.385    4.8622
   35.400    4.8622
   35.415    4.7569
   35.430    4.7920
   35.445    5.2133
   35.460    4.8447
   35.475    4.4585
   35.490    4.5989
   35.505    4.7393
   35.520    4.7218
   35.535    5.1255
   35.550    5.1431
   35.565    5.1606
   35.580    5.0904
   35.595    4.9324
   35.610    4.5989
   35.625    4.5638
   35.640    4.7393
   35.655    5.2308
   35.670    5.3888
   35.685    4.9500
   35.700    5.0553
   35.715    4.6867
   35.730    4.7920
   35.745    5.0904
   35.760    4.9851
   35.775    5.2133
   35.790    5.0904
   35.805    4.6340
   35.820    4.7920
   35.835    5.1431
   35.850    5.0202
   35.865    4.8622
   35.880    5.4064
   35.895    5.3888
   35.910    4.8798
   35.925    4.7393
   35.940    5.0202
   35.955    5.0377
   35.970    5.1431
   35.985    4.9149
   36.000    4.8447
   36.015    4.8095
   36.030    5.2484
   36.045    4.6340
   36.060    4.5638
   36.075    5.0202
   36.090    5.1431
   36.105    5.0728
   36.120    5.0377
   36.135    4.7920
   36.150    5.0904
   36.165    4.4585
   36.180    4.9851
   36.195    5.0202
   36.210    4.9500
   36.225    4.5111
   36.240    4.4936
   36.255    4.8447
   36.270    4.9675
   36.285    4.9851
   36.300    5.0026
   36.315    4.8271
   36.330    5.2133
   36.345    5.1431
   36.360    5.2308
   36.375    4.8973
   36.390    4.4585
   36.405    4.7744
   36.420    4.9149
   36.435    4.8447
   36.450    5.4766
   36.465    4.8622
   36.480    4.8973
   36.495    5.1080
   36.510    4.8622
   36.525    4.8798
   36.540    4.7218
   36.555    4.7569
   36.570    5.1255
   36.585    4.9851
   36.600    4.4409
   36.615    4.8973
   36.630    4.7744
   36.645    4.7744
   36.660    4.9851
   36.675    4.4409
   36.690    4.6340
   36.705    4.6691
   36.720    4.8095
   36.735    4.7218
   36.750    5.0553
   36.765    4.9675
   36.780    4.8271
   36.795    5.0728
   36.810    5.0202
   36.825    4.8095
   36.840    4.7042
   36.855    4.9851
   36.870    4.9851
   36.885    4.7393
   36.900    4.7744
   36.915    4.6165
   36.930    4.7569
   36.945    4.9149
   36.960    4.9324
   36.975    4.9675
   36.990    4.7042
   37.005    4.6165
   37.020    4.6516
   37.035    4.5111
   37.050    4.9675
   37.065    4.7744
   37.080    4.6165
   37.095    4.6867
   37.110    4.6867
   37.125    4.8271
   37.140    5.2308
   37.155    4.8271
   37.170    5.0377
   37.185    4.8798
   37.200    4.8973
   37.215    5.2133
   37.230    4.5287
   37.245    4.5638
   37.260    5.0026
   37.275    4.8271
   37.290    4.6165
   37.305    4.7744
   37.320    4.8447
   37.335    5.1431
   37.350    4.7393
   37.365    4.5463
   37.380    4.2478
   37.395    4.5989
   37.410    4.4409
   37.425    4.5638
   37.440    4.9324
   37.455    4.8095
   37.470    4.8271
   37.485    4.5638
   37.500    4.7393
   37.515    4.5638
   37.530    5.0026
   37.545    4.5287
   37.560    4.6867
   37.575    4.7218
   37.590    4.9851
   37.605    5.0026
   37.620    5.2133
   37.635    4.6867
   37.650    4.2478
   37.665    4.4936
   37.680    4.7920
   37.695    4.9149
   37.710    5.0026
   37.725    4.9675
   37.740    4.8973
   37.755    4.4585
   37.770    4.8095
   37.785    4.5989
   37.800    5.0026
   37.815    5.1080
   37.830    4.9500
   37.845    4.6340
   37.860    4.7042
   37.875    4.7569
   37.890    4.5814
   37.905    4.4585
   37.920    5.0026
   37.935    5.1080
   37.950    5.1782
   37.965    4.6340
   37.980    4.4058
   37.995    4.3356
   38.010    4.8095
   38.025    5.1080
   38.040    4.6691
   38.055    4.8271
   38.070    4.8798
   38.085    4.6340
   38.100    4.8447
   38.115    4.8973
   38.130    4.6165
   38.145    4.8973
   38.160    5.1957
   38.175    5.2484
   38.190    4.8622
   38.205    4.6516
   38.220    4.8271
   38.235    4.8447
   38.250    4.8622
   38.265    4.3883
   38.280    4.9675
   38.295    4.7569
   38.310    4.7218
   38.325    5.0202
   38.340    5.0377
   38.355    4.7393
   38.370    4.9675
   38.385    4.8271
   38.400    4.6165
   38.415    4.5111
   38.430    4.2654
   38.445    4.8622
   38.460    4.6165
   38.475    4.8973
   38.490    4.8798
   38.505    4.7920
   38.520    5.0553
   38.535    4.8271
   38.550    4.3883
   38.565    4.5287
   38.580    5.3537
   38.595    5.1431
   38.610    4.7218
   38.625    5.0728
   38.640    4.7920
   38.655    5.0553
   38.670    4.9324
   38.685    4.7042
   38.700    4.8447
   38.715    5.0904
   38.730    5.0026
   38.745    4.7042
   38.760    5.2484
   38.775    4.9500
   38.790    4.6691
   38.805    4.6691
   38.820    5.0026
   38.835    5.2659
   38.850    4.6691
   38.865    5.1431
   38.880    5.1080
   38.895    4.5638
   38.910    4.7218
   38.925    4.5814
   38.940    5.1080
   38.955    4.8271
   38.970    4.9500
   38.985    4.4058
   39.000    4.4058
   39.015    4.7218
   39.030    4.6165
   39.045    4.5111
   39.060    4.7569
   39.075    5.0377
   39.090    4.8447
   39.105    4.7744
   39.120    4.1952
   39.135    4.4234
   39.150    4.5814
   39.165    4.7569
   39.180    4.8095
   39.195    5.0377
   39.210    4.7042
   39.225    4.6516
   39.240    4.7218
   39.255    4.7042
   39.270    4.5463
   39.285    4.5814
   39.300    4.6691
   39.315    4.9149
   39.330    4.6867
   39.345    4.9500
   39.360    4.5989
   39.375    4.6867
   39.390    5.0026
   39.405    4.6340
   39.420    4.6691
   39.435    4.7393
   39.450    4.9675
   39.465    4.4585
   39.480    4.6340
   39.495    4.9324
   39.510    4.8095
   39.525    4.8095
   39.540    4.6165
   39.555    4.7393
   39.570    5.2308
   39.585    4.6867
   39.600    4.7569
   39.615    4.4585
   39.630    4.5638
   39.645    5.0728
   39.660    5.0202
   39.675    4.6691
   39.690    4.6691
   39.705    4.8095
   39.720    5.2659
   39.735    5.1255
   39.750    4.5638
   39.765    4.5638
   39.780    4.3532
   39.795    4.4760
   39.810    5.1782
   39.825    5.1606
   39.840    4.6867
   39.855    5.0026
   39.870    5.2308
   39.885    4.7744
   39.900    4.8447
   39.915    5.0553
   39.930    4.7569
   39.945    4.4585
   39.960    4.6691
   39.975    4.9149
   39.990    4.9324
