    1.500   12.2696
    1.515   12.4171
    1.530   12.1116
    1.545   12.3328
    1.560   12.4487
    1.575   12.2801
    1.590   12.5645
    1.605   12.3117
    1.620   12.5329
    1.635   12.5750
    1.650   12.1327
    1.665   12.0590
    1.680   12.4592
    1.695   12.3223
    1.710   12.2696
    1.725   12.0695
    1.740   12.2591
    1.755   12.3644
    1.770   11.5640
    1.785   12.4803
    1.800   12.3960
    1.815   11.8273
    1.830   12.6698
    1.845   12.2696
    1.860   12.5750
    1.875   12.8594
    1.890   12.5540
    1.905   12.3749
    1.920   12.1959
    1.935   12.2591
    1.950   12.5329
    1.965   12.5540
    1.980   12.1432
    1.995   13.1122
    2.010   12.4908
    2.025   12.3960
    2.040   12.4381
    2.055   13.2175
    2.070   12.9226
    2.085   12.2170
    2.100   12.7751
    2.115   12.7541
    2.130   12.7225
    2.145   13.3649
    2.160   13.3965
    2.175   13.4071
    2.190   13.1543
    2.205   13.5440
    2.220   13.4597
    2.235   13.6493
    2.250   13.9337
    2.265   14.4602
    2.280   14.3865
    2.295   14.1232
    2.310   14.6603
    2.325   14.7341
    2.340   14.9342
    2.355   15.3028
    2.370   15.3765
    2.385   14.8920
    2.400   15.3660
    2.415   15.7241
    2.430   15.8610
    2.445   16.1875
    2.460   15.5766
    2.475   15.9242
    2.490   16.7983
    2.505   16.7562
    2.520   16.6087
    2.535   17.3776
    2.550   17.9989
    2.565   17.5040
    2.580   17.3670
    2.595   18.1780
    2.610   18.8099
    2.625   19.6103
    2.640   19.8842
    2.655   20.1053
    2.670   19.8104
    2.685   20.8215
    2.700   21.6324
    2.715   21.8641
    2.730   21.5166
    2.745   22.8015
    2.760   22.3802
    2.775   22.9910
    2.790   23.5492
    2.805   24.3813
    2.820   24.7077
    2.835   25.1501
    2.850   25.9505
    2.865   27.2038
    2.880   27.5724
    2.895   28.1938
    2.910   28.8468
    2.925   29.5945
    2.940   31.1006
    2.955   31.1427
    2.970   32.0590
    2.985   32.4803
    3.000   33.3439
    3.015   34.5761
    3.030   36.3454
    3.045   37.9779
    3.060   38.6098
    3.075   40.1369
    3.090   41.9168
    3.105   43.6440
    3.120   43.8547
    3.135   45.9505
    3.150   47.1827
    3.165   49.5208
    3.180   50.9110
    3.195   53.2070
    3.210   55.4081
    3.225   57.8410
    3.240   61.5587
    3.255   64.6656
    3.270   67.5303
    3.285   70.1632
    3.300   74.2601
    3.315   78.8836
    3.330   84.8236
    3.345   88.4571
    3.360   93.7967
    3.375  101.2954
    3.390  108.4781
    3.405  114.2496
    3.420  120.7899
    3.435  125.0448
    3.450  125.1817
    3.465  119.8736
    3.480  109.8894
    3.495  101.2112
    3.510   87.7093
    3.525   73.5334
    3.540   61.9273
    3.555   53.4176
    3.570   46.3297
    3.585   41.9905
    3.600   38.7467
    3.615   36.6614
    3.630   34.6393
    3.645   33.8599
    3.660   32.5329
    3.675   32.2907
    3.690   32.9121
    3.705   32.5434
    3.720   32.5645
    3.735   33.0174
    3.750   33.6809
    3.765   33.6598
    3.780   34.7867
    3.795   35.0395
    3.810   36.5245
    3.825   37.5040
    3.840   37.8515
    3.855   39.6209
    3.870   40.5793
    3.885   41.0005
    3.900   43.0332
    3.915   44.3181
    3.930   45.9610
    3.945   47.5513
    3.960   49.2680
    3.975   50.2159
    3.990   51.1427
    4.005   51.7641
    4.020   53.0174
    4.035   53.0700
    4.050   53.9547
    4.065   54.2601
    4.080   54.2496
    4.095   53.4281
    4.110   52.5013
    4.125   52.4171
    4.140   50.0895
    4.155   48.8889
    4.170   47.0879
    4.185   44.8552
    4.200   42.8752
    4.215   39.6314
    4.230   37.9779
    4.245   34.4813
    4.260   32.9542
    4.275   29.4471
    4.290   27.5303
    4.305   25.1606
    4.320   23.0121
    4.335   20.5161
    4.350   19.2733
    4.365   17.8936
    4.380   16.3349
    4.395   15.5240
    4.410   13.7125
    4.425   12.7330
    4.440   12.4592
    4.455   11.5745
    4.470   10.7320
    4.485   10.2264
    4.500    9.3523
    4.515    9.4471
    4.530    8.7730
    4.545    8.4044
    4.560    8.0674
    4.575    8.3202
    4.590    8.1201
    4.605    7.3828
    4.620    7.7093
    4.635    7.8357
    4.650    7.2038
    4.665    7.1933
    4.680    6.9194
    4.695    6.5298
    4.710    6.3296
    4.725    6.2349
    4.740    6.4771
    4.755    6.5192
    4.770    6.2559
    4.785    5.9400
    4.800    6.0769
    4.815    6.3086
    4.830    6.2559
    4.845    6.4666
    4.860    6.0453
    4.875    5.6661
    4.890    5.8031
    4.905    5.8136
    4.920    5.0869
    4.935    5.6872
    4.950    5.8452
    4.965    5.6977
    4.980    5.6556
    4.995    5.6135
    5.010    5.5714
    5.025    5.5398
    5.040    5.3081
    5.055    5.4660
    5.070    5.5714
    5.085    5.3502
    5.100    5.3397
    5.115    5.5819
    5.130    5.1290
    5.145    5.4239
    5.160    5.2870
    5.175    5.2975
    5.190    5.3712
    5.205    5.4344
    5.220    5.0658
    5.235    5.3502
    5.250    5.1501
    5.265    5.0448
    5.280    5.1395
    5.295    5.0764
    5.310    5.0658
    5.325    5.3607
    5.340    5.2870
    5.355    4.8341
    5.370    4.8868
    5.385    5.3397
    5.400    5.0448
    5.415    5.1080
    5.430    5.2554
    5.445    5.1290
    5.460    5.3186
    5.475    5.0869
    5.490    5.0237
    5.505    5.1501
    5.520    4.8341
    5.535    5.1080
    5.550    4.7604
    5.565    5.1185
    5.580    4.7604
    5.595    5.1185
    5.610    5.2554
    5.625    4.7288
    5.640    5.1185
    5.655    4.8973
    5.670    4.8763
    5.685    4.9289
    5.700    4.6867
    5.715    4.9078
    5.730    4.7920
    5.745    4.9078
    5.760    4.8552
    5.775    4.7077
    5.790    4.8763
    5.805    4.9184
    5.820    5.0026
    5.835    5.0764
    5.850    4.8552
    5.865    4.7709
    5.880    4.7499
    5.895    5.0342
    5.910    4.7393
    5.925    4.9605
    5.940    4.9816
    5.955    4.9184
    5.970    4.6235
    5.985    4.7920
    6.000    4.8868
    6.015    5.0764
    6.030    4.8025
    6.045    4.8973
    6.060    4.9605
    6.075    4.8868
    6.090    4.9816
    6.105    5.3081
    6.120    5.0553
    6.135    4.6551
    6.150    4.4655
    6.165    5.0237
    6.180    4.8657
    6.195    5.0342
    6.210    5.1922
    6.225    4.9710
    6.240    5.1290
    6.255    4.9921
    6.270    5.0658
    6.285    5.1290
    6.300    5.1501
    6.315    5.0026
    6.330    5.0869
    6.345    5.0974
    6.360    5.4766
    6.375    5.4766
    6.390    5.7188
    6.405    5.5082
    6.420    5.4555
    6.435    5.7504
    6.450    5.4976
    6.465    5.4766
    6.480    5.5292
    6.495    5.8031
    6.510    5.8347
    6.525    6.3823
    6.540    6.3086
    6.555    6.0242
    6.570    6.4560
    6.585    6.4139
    6.600    6.4034
    6.615    6.7930
    6.630    6.8457
    6.645    7.0774
    6.660    7.3723
    6.675    7.3512
    6.690    8.0569
    6.705    8.0674
    6.720    8.4887
    6.735    9.0363
    6.750    8.9521
    6.765    9.1522
    6.780    9.6472
    6.795    9.9105
    6.810   10.5424
    6.825   11.7114
    6.840   11.7852
    6.855   12.7857
    6.870   13.1964
    6.885   14.4286
    6.900   15.6609
    6.915   15.5766
    6.930   16.3770
    6.945   16.0084
    6.960   17.1459
    6.975   15.8610
    6.990   14.1759
    7.005   13.6282
    7.020   12.0063
    7.035    9.9631
    7.050    8.7520
    7.065    8.4150
    7.080    7.6145
    7.095    7.0037
    7.110    6.6561
    7.125    6.6245
    7.140    6.2243
    7.155    5.9294
    7.170    5.7504
    7.185    5.7609
    7.200    5.5819
    7.215    5.7609
    7.230    5.7504
    7.245    5.4344
    7.260    4.8763
    7.275    5.4976
    7.290    5.7715
    7.305    5.1395
    7.320    5.1501
    7.335    5.4976
    7.350    5.6345
    7.365    5.3712
    7.380    5.5082
    7.395    5.2870
    7.410    5.1922
    7.425    5.3712
    7.440    5.1711
    7.455    5.4871
    7.470    5.5082
    7.485    5.3607
    7.500    5.3186
    7.515    5.2027
    7.530    5.3291
    7.545    5.5924
    7.560    5.3607
    7.575    5.7609
    7.590    5.2027
    7.605    5.7715
    7.620    5.5292
    7.635    5.5714
    7.650    5.7083
    7.665    6.0032
    7.680    5.8662
    7.695    5.8662
    7.710    5.8768
    7.725    5.9610
    7.740    6.0242
    7.755    6.1927
    7.770    6.5192
    7.785    6.5613
    7.800    6.2454
    7.815    6.1190
    7.830    5.9926
    7.845    6.1822
    7.860    6.6035
    7.875    6.4455
    7.890    6.9089
    7.905    7.2565
    7.920    6.9405
    7.935    6.7720
    7.950    6.9721
    7.965    7.0248
    7.980    7.2775
    7.995    7.7725
    8.010    7.8884
    8.025    8.1306
    8.040    7.9410
    8.055    7.8884
    8.070    7.7304
    8.085    8.5203
    8.100    8.5519
    8.115    8.7204
    8.130    8.6467
    8.145    8.5519
    8.160    8.8152
    8.175    8.6572
    8.190    8.5097
    8.205    8.7098
    8.220    8.8257
    8.235    8.6783
    8.250    8.8994
    8.265    9.0469
    8.280    8.8362
    8.295    8.4887
    8.310    8.9837
    8.325    8.7625
    8.340    8.8152
    8.355    8.5729
    8.370    9.1417
    8.385    8.7941
    8.400    8.5729
    8.415    8.3834
    8.430    8.3307
    8.445    8.1411
    8.460    7.7093
    8.475    7.9200
    8.490    7.8884
    8.505    7.5935
    8.520    7.7936
    8.535    7.5829
    8.550    7.4566
    8.565    7.2038
    8.580    7.1195
    8.595    7.2775
    8.610    6.9616
    8.625    6.5298
    8.640    6.6456
    8.655    6.0348
    8.670    6.1822
    8.685    6.2981
    8.700    6.4982
    8.715    6.1190
    8.730    5.7925
    8.745    5.5503
    8.760    5.5187
    8.775    5.5082
    8.790    5.6029
    8.805    5.6872
    8.820    5.3397
    8.835    5.4344
    8.850    5.0342
    8.865    4.9394
    8.880    5.1395
    8.895    5.0237
    8.910    4.8973
    8.925    5.3712
    8.940    4.8868
    8.955    4.7077
    8.970    4.7499
    8.985    4.7920
    9.000    4.9078
    9.015    4.9184
    9.030    4.8236
    9.045    4.8025
    9.060    4.7288
    9.075    4.3497
    9.090    4.5919
    9.105    4.8341
    9.120    4.6445
    9.135    4.6972
    9.150    4.5498
    9.165    4.6972
    9.180    4.5814
    9.195    4.4444
    9.210    4.6024
    9.225    4.3181
    9.240    4.4760
    9.255    4.5498
    9.270    4.4971
    9.285    4.5498
    9.300    4.5392
    9.315    4.4234
    9.330    4.5182
    9.345    4.8236
    9.360    4.4023
    9.375    4.3286
    9.390    4.3181
    9.405    4.4234
    9.420    4.5076
    9.435    4.4866
    9.450    4.2759
    9.465    4.6656
    9.480    4.7920
    9.495    4.6024
    9.510    4.7604
    9.525    4.5392
    9.540    4.5076
    9.555    4.4023
    9.570    4.5182
    9.585    4.4444
    9.600    4.5814
    9.615    4.4655
    9.630    4.5498
    9.645    4.5076
    9.660    4.7183
    9.675    4.5182
    9.690    4.3918
    9.705    4.4971
    9.720    4.2970
    9.735    4.1285
    9.750    4.0758
    9.765    4.1601
    9.780    4.2865
    9.795    4.1496
    9.810    4.2127
    9.825    4.2022
    9.840    4.6551
    9.855    4.1706
    9.870    4.5919
    9.885    4.4339
    9.900    4.2970
    9.915    4.5919
    9.930    4.5392
    9.945    4.6656
    9.960    4.2338
    9.975    4.2865
    9.990    4.2127
   10.005    4.5603
   10.020    4.6551
   10.035    4.5392
   10.050    4.2759
   10.065    4.2338
   10.080    4.3075
   10.095    4.6235
   10.110    4.7709
   10.125    4.5287
   10.140    4.3602
   10.155    4.7709
   10.170    4.3286
   10.185    4.6340
   10.200    4.5498
   10.215    4.1917
   10.230    4.9078
   10.245    4.4760
   10.260    4.6235
   10.275    4.7183
   10.290    4.4444
   10.305    4.9710
   10.320    4.6445
   10.335    5.2027
   10.350    5.1711
   10.365    5.0764
   10.380    5.2133
   10.395    5.3186
   10.410    5.1185
   10.425    5.1606
   10.440    5.4660
   10.455    5.2027
   10.470    5.1080
   10.485    5.2027
   10.500    5.0342
   10.515    5.0237
   10.530    4.9605
   10.545    4.9605
   10.560    4.8552
   10.575    4.8657
   10.590    4.5287
   10.605    4.2127
   10.620    4.5287
   10.635    4.5392
   10.650    4.7077
   10.665    4.3813
   10.680    4.6445
   10.695    4.4866
   10.710    4.3813
   10.725    4.5814
   10.740    4.4971
   10.755    4.2759
   10.770    4.4550
   10.785    4.1390
   10.800    4.5498
   10.815    4.4760
   10.830    3.9916
   10.845    4.2022
   10.860    4.4234
   10.875    4.4550
   10.890    4.5814
   10.905    4.5287
   10.920    4.3918
   10.935    4.6340
   10.950    4.8552
   10.965    4.4023
   10.980    4.3497
   10.995    4.4971
   11.010    4.4971
   11.025    4.3181
   11.040    4.2654
   11.055    4.3391
   11.070    4.5708
   11.085    4.2759
   11.100    4.0758
   11.115    4.0337
   11.130    4.4234
   11.145    4.2970
   11.160    4.3286
   11.175    4.6656
   11.190    4.5392
   11.205    4.6656
   11.220    4.7077
   11.235    4.4444
   11.250    4.5076
   11.265    4.4655
   11.280    4.1917
   11.295    4.1917
   11.310    4.4128
   11.325    4.5603
   11.340    4.1180
   11.355    4.2022
   11.370    4.6972
   11.385    4.3707
   11.400    4.3918
   11.415    4.2970
   11.430    4.3707
   11.445    4.4550
   11.460    4.7499
   11.475    4.2338
   11.490    4.5814
   11.505    4.3813
   11.520    4.4128
   11.535    4.2443
   11.550    4.2654
   11.565    4.5814
   11.580    4.3286
   11.595    4.4550
   11.610    4.5814
   11.625    4.0442
   11.640    4.4444
   11.655    4.4128
   11.670    4.6024
   11.685    4.5287
   11.700    4.4550
   11.715    4.6867
   11.730    4.4760
   11.745    4.4760
   11.760    4.7604
   11.775    4.1601
   11.790    4.7183
   11.805    4.7604
   11.820    4.6024
   11.835    4.6024
   11.850    4.6761
   11.865    4.6551
   11.880    4.9078
   11.895    4.9500
   11.910    4.6024
   11.925    5.0342
   11.940    4.5708
   11.955    5.0132
   11.970    5.1501
   11.985    4.7709
   12.000    5.0553
   12.015    4.8868
   12.030    4.8025
   12.045    4.9289
   12.060    5.0342
   12.075    5.0132
   12.090    5.0237
   12.105    4.9289
   12.120    5.1185
   12.135    5.2449
   12.150    5.3186
   12.165    4.8025
   12.180    5.2659
   12.195    5.0974
   12.210    5.4450
   12.225    5.1922
   12.240    4.8025
   12.255    5.1817
   12.270    4.8868
   12.285    5.0237
   12.300    5.1817
   12.315    5.2027
   12.330    5.0237
   12.345    4.9921
   12.360    5.0974
   12.375    5.2554
   12.390    5.6556
   12.405    5.5503
   12.420    5.3397
   12.435    5.0553
   12.450    5.2870
   12.465    5.1501
   12.480    5.1185
   12.495    4.8552
   12.510    5.1080
   12.525    5.3186
   12.540    5.4134
   12.555    5.0026
   12.570    5.0026
   12.585    5.0658
   12.600    5.3818
   12.615    5.0764
   12.630    5.1817
   12.645    5.1922
   12.660    4.9921
   12.675    5.4134
   12.690    5.4871
   12.705    5.1606
   12.720    5.1185
   12.735    5.5503
   12.750    5.0658
   12.765    4.9394
   12.780    5.0553
   12.795    4.9078
   12.810    5.1080
   12.825    5.2027
   12.840    4.8763
   12.855    4.8657
   12.870    5.4028
   12.885    4.8763
   12.900    4.8131
   12.915    5.0553
   12.930    4.6867
   12.945    4.6972
   12.960    4.9184
   12.975    4.8236
   12.990    4.7288
   13.005    4.9394
   13.020    4.8763
   13.035    4.9394
   13.050    4.8025
   13.065    5.1817
   13.080    4.8131
   13.095    4.9078
   13.110    5.0553
   13.125    4.8973
   13.140    4.8447
   13.155    5.0448
   13.170    4.9289
   13.185    5.0237
   13.200    4.6656
   13.215    4.7709
   13.230    4.8657
   13.245    4.9500
   13.260    4.8763
   13.275    4.6867
   13.290    4.7920
   13.305    4.6340
   13.320    4.7815
   13.335    4.8341
   13.350    5.0764
   13.365    4.6656
   13.380    4.6867
   13.395    4.6656
   13.410    4.8236
   13.425    4.4550
   13.440    4.6445
   13.455    4.3813
   13.470    4.6867
   13.485    5.0237
   13.500    4.9816
   13.515    4.8341
   13.530    4.8341
   13.545    4.9605
   13.560    4.7920
   13.575    4.9184
   13.590    4.7815
   13.605    4.7709
   13.620    5.2238
   13.635    4.7604
   13.650    4.8341
   13.665    5.0026
   13.680    4.7393
   13.695    4.9078
   13.710    4.7920
   13.725    4.9710
   13.740    4.8973
   13.755    4.8236
   13.770    4.7393
   13.785    5.1817
   13.800    5.2027
   13.815    4.9500
   13.830    4.8763
   13.845    4.6867
   13.860    4.8025
   13.875    4.7288
   13.890    4.7709
   13.905    5.0342
   13.920    4.7499
   13.935    4.6551
   13.950    4.7288
   13.965    4.7920
   13.980    4.9710
   13.995    4.2549
   14.010    4.8025
   14.025    4.7604
   14.040    4.6445
   14.055    4.5287
   14.070    4.3391
   14.085    4.4234
   14.100    4.5076
   14.115    4.5603
   14.130    4.6551
   14.145    4.6551
   14.160    4.4971
   14.175    4.2970
   14.190    4.3918
   14.205    4.6445
   14.220    4.4866
   14.235    5.0658
   14.250    4.5287
   14.265    4.6235
   14.280    4.4866
   14.295    4.3391
   14.310    4.8341
   14.325    4.6024
   14.340    4.6761
   14.355    4.6235
   14.370    4.4866
   14.385    4.4971
   14.400    4.0969
   14.415    4.3075
   14.430    4.5182
   14.445    4.3181
   14.460    4.5182
   14.475    4.4655
   14.490    4.3497
   14.505    4.4550
   14.520    4.4234
   14.535    4.2549
   14.550    4.5287
   14.565    4.7183
   14.580    4.7183
   14.595    4.3918
   14.610    4.3497
   14.625    4.5498
   14.640    4.1496
   14.655    4.2970
   14.670    4.5919
   14.685    4.1601
   14.700    4.2865
   14.715    4.3602
   14.730    4.5603
   14.745    4.3918
   14.760    4.4760
   14.775    4.1706
   14.790    4.2338
   14.805    4.5182
   14.820    4.5603
   14.835    4.3707
   14.850    4.0864
   14.865    4.2233
   14.880    4.4655
   14.895    3.9705
   14.910    4.1390
   14.925    4.5919
   14.940    4.5076
   14.955    4.3918
   14.970    4.3707
   14.985    4.2759
   15.000    4.4655
   15.015    4.6972
   15.030    4.3813
   15.045    4.0653
   15.060    4.4655
   15.075    4.6024
   15.090    4.7393
   15.105    4.5919
   15.120    4.7920
   15.135    4.5392
   15.150    4.6445
   15.165    4.2233
   15.180    4.5076
   15.195    4.2970
   15.210    4.3707
   15.225    4.5182
   15.240    4.6445
   15.255    4.2970
   15.270    4.2970
   15.285    4.4339
   15.300    4.5498
   15.315    4.2759
   15.330    4.4971
   15.345    4.7183
   15.360    4.6656
   15.375    4.6445
   15.390    4.4866
   15.405    4.4128
   15.420    4.6551
   15.435    4.4655
   15.450    4.3813
   15.465    4.8763
   15.480    4.7077
   15.495    4.5603
   15.510    4.7393
   15.525    4.5182
   15.540    4.6761
   15.555    4.6130
   15.570    4.3918
   15.585    4.7183
   15.600    4.4023
   15.615    4.7288
   15.630    4.4655
   15.645    4.3181
   15.660    4.4866
   15.675    4.3918
   15.690    4.4444
   15.705    4.7920
   15.720    4.8552
   15.735    4.7288
   15.750    4.5392
   15.765    4.4234
   15.780    4.5392
   15.795    4.4655
   15.810    4.4444
   15.825    4.5603
   15.840    4.8552
   15.855    4.4655
   15.870    4.4444
   15.885    4.5603
   15.900    4.4655
   15.915    4.3918
   15.930    4.4234
   15.945    4.9394
   15.960    4.6761
   15.975    4.4339
   15.990    4.4760
   16.005    4.4023
   16.020    4.4234
   16.035    4.6340
   16.050    4.4550
   16.065    4.5919
   16.080    4.5498
   16.095    4.6024
   16.110    4.3813
   16.125    4.6761
   16.140    4.6235
   16.155    4.9289
   16.170    4.3391
   16.185    4.4023
   16.200    4.6972
   16.215    4.5392
   16.230    4.3602
   16.245    4.7393
   16.260    4.4866
   16.275    4.2233
   16.290    4.4655
   16.305    4.5708
   16.320    4.4971
   16.335    4.1285
   16.350    4.1390
   16.365    4.4971
   16.380    4.4339
   16.395    4.1390
   16.410    4.6024
   16.425    4.3391
   16.440    4.5392
   16.455    4.2759
   16.470    4.6235
   16.485    4.3813
   16.500    4.4444
   16.515    4.3813
   16.530    4.2127
   16.545    4.2443
   16.560    4.1074
   16.575    4.1285
   16.590    4.0653
   16.605    4.1390
   16.620    4.1390
   16.635    4.2233
   16.650    4.2127
   16.665    4.2970
   16.680    4.5392
   16.695    4.4655
   16.710    4.5603
   16.725    4.5919
   16.740    4.4339
   16.755    4.6761
   16.770    4.7077
   16.785    4.4971
   16.800    4.5708
   16.815    4.4866
   16.830    4.4760
   16.845    4.2654
   16.860    4.2022
   16.875    4.5287
   16.890    4.8763
   16.905    4.3918
   16.920    4.2127
   16.935    4.3391
   16.950    4.2338
   16.965    4.5814
   16.980    4.3181
   16.995    4.2338
   17.010    4.1285
   17.025    4.2549
   17.040    4.3602
   17.055    4.2549
   17.070    4.2233
   17.085    4.4339
   17.100    4.4550
   17.115    4.5076
   17.130    4.3497
   17.145    4.2127
   17.160    4.2654
   17.175    4.2654
   17.190    4.4339
   17.205    4.0758
   17.220    4.1180
   17.235    4.5603
   17.250    4.3075
   17.265    4.4023
   17.280    4.0548
   17.295    4.4444
   17.310    4.5603
   17.325    4.3286
   17.340    4.4971
   17.355    4.5603
   17.370    4.3286
   17.385    4.2233
   17.400    4.4760
   17.415    4.6656
   17.430    4.2970
   17.445    4.5182
   17.460    4.4550
   17.475    4.6340
   17.490    4.7499
   17.505    4.6024
   17.520    4.2443
   17.535    4.4550
   17.550    4.4234
   17.565    4.5708
   17.580    4.7077
   17.595    4.7709
   17.610    4.6551
   17.625    4.5814
   17.640    4.3707
   17.655    4.3813
   17.670    4.5182
   17.685    4.7077
   17.700    4.4971
   17.715    4.2654
   17.730    4.4866
   17.745    4.4234
   17.760    4.5287
   17.775    4.6130
   17.790    4.7499
   17.805    4.3918
   17.820    4.4655
   17.835    4.1180
   17.850    4.3497
   17.865    4.5392
   17.880    4.5708
   17.895    4.5076
   17.910    4.5287
   17.925    4.4550
   17.940    4.1917
   17.955    4.3286
   17.970    4.4023
   17.985    4.5498
   18.000    4.5182
   18.015    4.5814
   18.030    4.5392
   18.045    4.8131
   18.060    4.4760
   18.075    4.3918
   18.090    4.2970
   18.105    4.4339
   18.120    4.8025
   18.135    4.5603
   18.150    4.4866
   18.165    4.7077
   18.180    4.5287
   18.195    4.4550
   18.210    4.5603
   18.225    4.6340
   18.240    4.4655
   18.255    4.4023
   18.270    4.8763
   18.285    4.4023
   18.300    4.4760
   18.315    4.5603
   18.330    4.4128
   18.345    4.4128
   18.360    4.6235
   18.375    4.5287
   18.390    4.7183
   18.405    4.5919
   18.420    4.3497
   18.435    4.6340
   18.450    4.7077
   18.465    4.7288
   18.480    4.5182
   18.495    4.4971
   18.510    4.7499
   18.525    4.5919
   18.540    4.4760
   18.555    4.4550
   18.570    4.4023
   18.585    4.5182
   18.600    4.3286
   18.615    4.4234
   18.630    4.4128
   18.645    4.2970
   18.660    4.3181
   18.675    4.2127
   18.690    4.3286
   18.705    4.4234
   18.720    4.4128
   18.735    4.4971
   18.750    5.1185
   18.765    4.7499
   18.780    4.3075
   18.795    4.4128
   18.810    4.7393
   18.825    5.0974
   18.840    4.5392
   18.855    4.4444
   18.870    4.3286
   18.885    5.1185
   18.900    4.6867
   18.915    4.3497
   18.930    4.4128
   18.945    4.2338
   18.960    4.3707
   18.975    4.5076
   18.990    4.8025
   19.005    4.5182
   19.020    4.6551
   19.035    4.3286
   19.050    4.2338
   19.065    4.2022
   19.080    4.9500
   19.095    4.4339
   19.110    4.5603
   19.125    4.3602
   19.140    4.5708
   19.155    4.5708
   19.170    4.6656
   19.185    4.3602
   19.200    4.4444
   19.215    4.5498
   19.230    4.3918
   19.245    4.4023
   19.260    4.3075
   19.275    4.4971
   19.290    4.6972
   19.305    4.9184
   19.320    4.6024
   19.335    4.7183
   19.350    4.9289
   19.365    5.0764
   19.380    4.7499
   19.395    4.7077
   19.410    4.4444
   19.425    5.0237
   19.440    5.1606
   19.455    5.1395
   19.470    4.9921
   19.485    5.2133
   19.500    4.6340
   19.515    4.8236
   19.530    4.6445
   19.545    5.0132
   19.560    5.2449
   19.575    5.2870
   19.590    5.0132
   19.605    5.0448
   19.620    5.0448
   19.635    5.0764
   19.650    4.8868
   19.665    5.0553
   19.680    5.0553
   19.695    5.1080
   19.710    4.9921
   19.725    4.9710
   19.740    4.8657
   19.755    4.9500
   19.770    5.0974
   19.785    5.0764
   19.800    4.8657
   19.815    4.6867
   19.830    4.9500
   19.845    5.6135
   19.860    5.3923
   19.875    5.1922
   19.890    5.1290
   19.905    5.1185
   19.920    5.0237
   19.935    4.9078
   19.950    5.0237
   19.965    4.9184
   19.980    5.0448
   19.995    5.2343
   20.010    5.2870
   20.025    5.5187
   20.040    5.3502
   20.055    4.8131
   20.070    5.1817
   20.085    5.3291
   20.100    4.6867
   20.115    5.0342
   20.130    5.2554
   20.145    5.2554
   20.160    5.2765
   20.175    5.1922
   20.190    4.9394
   20.205    4.8025
   20.220    5.1711
   20.235    5.0658
   20.250    5.2975
   20.265    5.2133
   20.280    5.0342
   20.295    4.7815
   20.310    4.9078
   20.325    5.3397
   20.340    5.2554
   20.355    4.9078
   20.370    4.6130
   20.385    4.7077
   20.400    5.0342
   20.415    5.0553
   20.430    4.8657
   20.445    5.0658
   20.460    4.8973
   20.475    4.7288
   20.490    5.1395
   20.505    4.5603
   20.520    4.8447
   20.535    5.1711
   20.550    5.0869
   20.565    4.9500
   20.580    4.8973
   20.595    4.6024
   20.610    4.9605
   20.625    4.9605
   20.640    4.6867
   20.655    4.8341
   20.670    5.1817
   20.685    5.0764
   20.700    4.7077
   20.715    4.6235
   20.730    4.8236
   20.745    5.1185
   20.760    4.8236
   20.775    4.7393
   20.790    4.8552
   20.805    5.0869
   20.820    4.7815
   20.835    4.9184
   20.850    5.0132
   20.865    5.1711
   20.880    5.0869
   20.895    5.0658
   20.910    5.0026
   20.925    4.7709
   20.940    4.8236
   20.955    5.1606
   20.970    5.4028
   20.985    5.2449
   21.000    5.0132
   21.015    4.9816
   21.030    5.0658
   21.045    5.2554
   21.060    5.0026
   21.075    4.8763
   21.090    4.7077
   21.105    4.8236
   21.120    4.6235
   21.135    4.7393
   21.150    5.2027
   21.165    5.1080
   21.180    5.2975
   21.195    5.1185
   21.210    4.7709
   21.225    4.6235
   21.240    4.8131
   21.255    4.8552
   21.270    5.1290
   21.285    5.0658
   21.300    4.8973
   21.315    5.0974
   21.330    5.2975
   21.345    4.8657
   21.360    4.9816
   21.375    4.8868
   21.390    4.7815
   21.405    4.7288
   21.420    4.8131
   21.435    5.0658
   21.450    4.9184
   21.465    5.2027
   21.480    4.9078
   21.495    4.8552
   21.510    4.9184
   21.525    5.2238
   21.540    4.9289
   21.555    4.9816
   21.570    4.8657
   21.585    4.9078
   21.600    5.0448
   21.615    4.9816
   21.630    4.8868
   21.645    5.0658
   21.660    4.8868
   21.675    4.9921
   21.690    4.9710
   21.705    5.0869
   21.720    5.2765
   21.735    5.1606
   21.750    5.1290
   21.765    5.0553
   21.780    5.0026
   21.795    4.8763
   21.810    4.9500
   21.825    4.5498
   21.840    4.7183
   21.855    4.8763
   21.870    4.8236
   21.885    5.0869
   21.900    4.9394
   21.915    5.3186
   21.930    4.8868
   21.945    4.9500
   21.960    4.9184
   21.975    4.9816
   21.990    4.9816
   22.005    5.2554
   22.020    5.0974
   22.035    5.0764
   22.050    4.7709
   22.065    5.0553
   22.080    5.1606
   22.095    4.9394
   22.110    4.5919
   22.125    4.8552
   22.140    5.1185
   22.155    5.0553
   22.170    4.9394
   22.185    4.8973
   22.200    5.0869
   22.215    4.9605
   22.230    4.8973
   22.245    4.6972
   22.260    4.5392
   22.275    4.6761
   22.290    5.0342
   22.305    4.8025
   22.320    4.6024
   22.335    4.8025
   22.350    4.7077
   22.365    4.7077
   22.380    5.0237
   22.395    5.0448
   22.410    4.8341
   22.425    4.8657
   22.440    4.9921
   22.455    4.6340
   22.470    4.7604
   22.485    5.0026
   22.500    4.9710
   22.515    4.8868
   22.530    4.7499
   22.545    4.9921
   22.560    5.1185
   22.575    4.9710
   22.590    4.7183
   22.605    4.8341
   22.620    4.8657
   22.635    4.9921
   22.650    4.6972
   22.665    4.6340
   22.680    4.9710
   22.695    5.0132
   22.710    4.6551
   22.725    4.4760
   22.740    4.6761
   22.755    4.8025
   22.770    4.7077
   22.785    4.9500
   22.800    4.5814
   22.815    5.0658
   22.830    4.8763
   22.845    4.7815
   22.860    4.6130
   22.875    4.9710
   22.890    4.9500
   22.905    4.7604
   22.920    4.8552
   22.935    4.6551
   22.950    5.0342
   22.965    4.7393
   22.980    4.6867
   22.995    4.8025
   23.010    4.9710
   23.025    4.9921
   23.040    4.6024
   23.055    4.7288
   23.070    5.2659
   23.085    5.1501
   23.100    4.7709
   23.115    4.6656
   23.130    4.8236
   23.145    4.8973
   23.160    4.4128
   23.175    4.7709
   23.190    4.5498
   23.205    4.6656
   23.220    4.8341
   23.235    4.7709
   23.250    4.6445
   23.265    4.8657
   23.280    4.9184
   23.295    4.8973
   23.310    4.9289
   23.325    4.8447
   23.340    4.7920
   23.355    4.9710
   23.370    4.8447
   23.385    4.6656
   23.400    4.5287
   23.415    4.6551
   23.430    4.9605
   23.445    4.7815
   23.460    4.8657
   23.475    5.0448
   23.490    4.9816
   23.505    4.9394
   23.520    4.8868
   23.535    4.8025
   23.550    4.8763
   23.565    4.7604
   23.580    4.2654
   23.595    4.7709
   23.610    4.7077
   23.625    4.5708
   23.640    4.4339
   23.655    4.6551
   23.670    4.5182
   23.685    4.8341
   23.700    4.3497
   23.715    4.4234
   23.730    4.7183
   23.745    4.9184
   23.760    4.9078
   23.775    4.4339
   23.790    4.6024
   23.805    4.8868
   23.820    4.8868
   23.835    4.6867
   23.850    4.5603
   23.865    4.6656
   23.880    4.7077
   23.895    4.6972
   23.910    4.3602
   23.925    4.7288
   23.940    4.6972
   23.955    4.4971
   23.970    4.4023
   23.985    4.2443
   24.000    4.4971
   24.015    4.8025
   24.030    4.7077
   24.045    4.8025
   24.060    4.8341
   24.075    4.5076
   24.090    4.9184
   24.105    4.7183
   24.120    4.3497
   24.135    4.4234
   24.150    4.7183
   24.165    4.8657
   24.180    4.7815
   24.195    4.4971
   24.210    4.6445
   24.225    4.6551
   24.240    4.3497
   24.255    4.4760
   24.270    4.5708
   24.285    4.7183
   24.300    4.5287
   24.315    5.0026
   24.330    4.8868
   24.345    4.5182
   24.360    4.3075
   24.375    4.5919
   24.390    4.6551
   24.405    4.4655
   24.420    4.6551
   24.435    4.5076
   24.450    4.4655
   24.465    4.4128
   24.480    4.6761
   24.495    4.5498
   24.510    4.8341
   24.525    4.6445
   24.540    4.7499
   24.555    4.9816
   24.570    4.7499
   24.585    4.8341
   24.600    4.8131
   24.615    5.1080
   24.630    4.9816
   24.645    4.6340
   24.660    4.8341
   24.675    4.4655
   24.690    4.8552
   24.705    4.5708
   24.720    4.2338
   24.735    4.5498
   24.750    4.5919
   24.765    4.8657
   24.780    4.6761
   24.795    4.4444
   24.810    4.5392
   24.825    4.7815
   24.840    4.6445
   24.855    4.5287
   24.870    4.4128
   24.885    4.5919
   24.900    4.6445
   24.915    4.2759
   24.930    4.5708
   24.945    4.4023
   24.960    4.2654
   24.975    4.2759
   24.990    4.2443
   25.005    4.2759
   25.020    4.4550
   25.035    4.0548
   25.050    4.4655
   25.065    4.4339
   25.080    4.3813
   25.095    4.4444
   25.110    4.2022
   25.125    4.4550
   25.140    4.5708
   25.155    4.3918
   25.170    4.4760
   25.185    4.3075
   25.200    4.4339
   25.215    4.5182
   25.230    4.6867
   25.245    4.0653
   25.260    4.7183
   25.275    4.4971
   25.290    4.4234
   25.305    4.2022
   25.320    4.2127
   25.335    4.2549
   25.350    4.2654
   25.365    4.4128
   25.380    4.6130
   25.395    4.1390
   25.410    4.4128
   25.425    4.6972
   25.440    4.5182
   25.455    4.2127
   25.470    4.3813
   25.485    4.3707
   25.500    4.4023
   25.515    4.6761
   25.530    4.4550
   25.545    4.4550
   25.560    4.7183
   25.575    4.5287
   25.590    4.4023
   25.605    4.6551
   25.620    4.1706
   25.635    4.3707
   25.650    4.0442
   25.665    4.2549
   25.680    4.3602
   25.695    4.6761
   25.710    4.5182
   25.725    4.5392
   25.740    4.4655
   25.755    4.4128
   25.770    4.3918
   25.785    4.0232
   25.800    4.2970
   25.815    4.2970
   25.830    4.4023
   25.845    4.4234
   25.860    4.1917
   25.875    4.3602
   25.890    4.5814
   25.905    4.3918
   25.920    4.3918
   25.935    4.2865
   25.950    4.3181
   25.965    4.5498
   25.980    4.2759
   25.995    4.0969
   26.010    4.2022
   26.025    4.1285
   26.040    4.1496
   26.055    4.1285
   26.070    4.0758
   26.085    4.0337
   26.100    3.8757
   26.115    4.4866
   26.130    4.2443
   26.145    4.0126
   26.160    4.3181
   26.175    4.2759
   26.190    4.3391
   26.205    4.4023
   26.220    4.2443
   26.235    4.4760
   26.250    4.2338
   26.265    4.0758
   26.280    3.9810
   26.295    3.9600
   26.310    4.3497
   26.325    4.0969
   26.340    3.8441
   26.355    4.1601
   26.370    4.2127
   26.385    4.1180
   26.400    4.1601
   26.415    4.0126
   26.430    3.8547
   26.445    4.2654
   26.460    4.1074
   26.475    4.1390
   26.490    4.3497
   26.505    4.0653
   26.520    4.1811
   26.535    3.9810
   26.550    3.9600
   26.565    3.9600
   26.580    4.1390
   26.595    4.0653
   26.610    4.2022
   26.625    4.1917
   26.640    4.2022
   26.655    4.2759
   26.670    3.9705
   26.685    4.1285
   26.700    4.2759
   26.715    4.3075
   26.730    4.1285
   26.745    4.1601
   26.760    4.2233
   26.775    4.2338
   26.790    4.0969
   26.805    4.3707
   26.820    3.9810
   26.835    3.8863
   26.850    3.8547
   26.865    4.0337
   26.880    4.3497
   26.895    4.2127
   26.910    4.4550
   26.925    4.3707
   26.940    4.1601
   26.955    3.9810
   26.970    4.1811
   26.985    4.0548
   27.000    4.1706
   27.015    3.9179
   27.030    3.9494
   27.045    4.0232
   27.060    3.7283
   27.075    4.2022
   27.090    4.1917
   27.105    4.0864
   27.120    4.3602
   27.135    4.1390
   27.150    4.0442
   27.165    4.2022
   27.180    4.1180
   27.195    4.1496
   27.210    4.1496
   27.225    4.1706
   27.240    4.0442
   27.255    4.0758
   27.270    4.0653
   27.285    4.0758
   27.300    4.3602
   27.315    4.0758
   27.330    4.1706
   27.345    4.1180
   27.360    4.0548
   27.375    4.0969
   27.390    3.7493
   27.405    3.9494
   27.420    4.1601
   27.435    3.8968
   27.450    4.0021
   27.465    4.1496
   27.480    3.9179
   27.495    3.9073
   27.510    3.8652
   27.525    3.8231
   27.540    3.8863
   27.555    4.1285
   27.570    4.2654
   27.585    4.3181
   27.600    4.1180
   27.615    4.1180
   27.630    4.3181
   27.645    4.3075
   27.660    3.8336
   27.675    3.8231
   27.690    3.9600
   27.705    4.1285
   27.720    4.0232
   27.735    4.1496
   27.750    4.0548
   27.765    3.9494
   27.780    3.9284
   27.795    3.9916
   27.810    4.0969
   27.825    4.2233
   27.840    4.2443
   27.855    4.0021
   27.870    4.1074
   27.885    4.0126
   27.900    3.8020
   27.915    3.7704
   27.930    4.1180
   27.945    4.4444
   27.960    4.0653
   27.975    3.9705
   27.990    4.0758
   28.005    4.2970
   28.020    3.9810
   28.035    4.1811
   28.050    4.0021
   28.065    4.2549
   28.080    4.2654
   28.095    4.3391
   28.110    4.4023
   28.125    4.4234
   28.140    4.6551
   28.155    4.6445
   28.170    4.4550
   28.185    4.3602
   28.200    4.0758
   28.215    4.2865
   28.230    4.2127
   28.245    4.4866
   28.260    4.8552
   28.275    4.6235
   28.290    4.4444
   28.305    4.0864
   28.320    4.0864
   28.335    4.0442
   28.350    4.3075
   28.365    4.5182
   28.380    4.1601
   28.395    3.9494
   28.410    3.5914
   28.425    4.0337
   28.440    4.2443
   28.455    4.2127
   28.470    4.1074
   28.485    4.4550
   28.500    4.1706
   28.515    3.8547
   28.530    4.1706
   28.545    3.9284
   28.560    4.1285
   28.575    4.1074
   28.590    4.2338
   28.605    4.1601
   28.620    4.2233
   28.635    3.8336
   28.650    4.0442
   28.665    4.0548
   28.680    4.0758
   28.695    4.3286
   28.710    4.0864
   28.725    4.0864
   28.740    4.2233
   28.755    3.9284
   28.770    4.0969
   28.785    4.3497
   28.800    4.2549
   28.815    3.9705
   28.830    4.2443
   28.845    4.0864
   28.860    3.9284
   28.875    3.8441
   28.890    3.8020
   28.905    3.9179
   28.920    3.8757
   28.935    3.6230
   28.950    3.8968
   28.965    3.6335
   28.980    3.7072
   28.995    4.0126
   29.010    4.1601
   29.025    3.8125
   29.040    4.0969
   29.055    3.9179
   29.070    3.8020
   29.085    3.8125
   29.100    3.7915
   29.115    3.6756
   29.130    4.0232
   29.145    3.9810
   29.160    3.8863
   29.175    4.0232
   29.190    4.0442
   29.205    3.7915
   29.220    4.1180
   29.235    4.0969
   29.250    4.1917
   29.265    4.1390
   29.280    4.1390
   29.295    3.8441
   29.310    3.8441
   29.325    3.8336
   29.340    3.8863
   29.355    4.0021
   29.370    3.8863
   29.385    3.8968
   29.400    4.0021
   29.415    4.0758
   29.430    3.8968
   29.445    3.8863
   29.460    3.8968
   29.475    4.0548
   29.490    3.9705
   29.505    3.8652
   29.520    3.8863
   29.535    3.6230
   29.550    3.6756
   29.565    3.7704
   29.580    3.9705
   29.595    3.7599
   29.610    3.7493
   29.625    3.7072
   29.640    3.6756
   29.655    3.9179
   29.670    4.2127
   29.685    3.9810
   29.700    3.6335
   29.715    3.8757
   29.730    3.9179
   29.745    4.1074
   29.760    4.0653
   29.775    3.9810
   29.790    3.8020
   29.805    3.8125
   29.820    3.6756
   29.835    3.9600
   29.850    3.8547
   29.865    3.8020
   29.880    3.7704
   29.895    3.6335
   29.910    3.7177
   29.925    3.9284
   29.940    3.8125
   29.955    3.5808
   29.970    3.9284
   29.985    3.8020
   30.000    3.8336
   30.015    3.9073
   30.030    3.8441
   30.045    3.5808
   30.060    3.6862
   30.075    3.7388
   30.090    3.9916
   30.105    3.8441
   30.120    3.8547
   30.135    3.7704
   30.150    3.7915
   30.165    3.5387
   30.180    3.5387
   30.195    3.8336
   30.210    3.5914
   30.225    3.8231
   30.240    3.6967
   30.255    3.6440
   30.270    3.7809
   30.285    4.1811
   30.300    3.8757
   30.315    3.7388
   30.330    3.5071
   30.345    3.7072
   30.360    3.8020
   30.375    3.9810
   30.390    3.8863
   30.405    3.6651
   30.420    3.8547
   30.435    4.1390
   30.450    3.7809
   30.465    3.8231
   30.480    3.7283
   30.495    3.4544
   30.510    3.5808
   30.525    3.8441
   30.540    3.8863
   30.555    3.7915
   30.570    3.5703
   30.585    3.4650
   30.600    3.5176
   30.615    3.8231
   30.630    3.8231
   30.645    4.0021
   30.660    4.0758
   30.675    3.5492
   30.690    3.9179
   30.705    4.0232
   30.720    3.7599
   30.735    3.8547
   30.750    3.9494
   30.765    3.7809
   30.780    3.8231
   30.795    3.9179
   30.810    3.7704
   30.825    3.9600
   30.840    3.8020
   30.855    3.5914
   30.870    3.6019
   30.885    3.4650
   30.900    3.7493
   30.915    3.8863
   30.930    3.6862
   30.945    3.6862
   30.960    3.7388
   30.975    3.7283
   30.990    3.5387
   31.005    3.7599
   31.020    4.0337
   31.035    3.9179
   31.050    3.5703
   31.065    3.7283
   31.080    3.6230
   31.095    3.8125
   31.110    3.7704
   31.125    3.3913
   31.140    3.4018
   31.155    3.7283
   31.170    3.8863
   31.185    4.0653
   31.200    3.7493
   31.215    3.6019
   31.230    3.5808
   31.245    3.6756
   31.260    3.9494
   31.275    3.8020
   31.290    3.6335
   31.305    3.7493
   31.320    3.5914
   31.335    3.7177
   31.350    3.7599
   31.365    3.6967
   31.380    3.5176
   31.395    3.8231
   31.410    3.4755
   31.425    3.5071
   31.440    3.9810
   31.455    3.8441
   31.470    3.5282
   31.485    3.4755
   31.500    3.4334
   31.515    3.6019
   31.530    3.7388
   31.545    3.8968
   31.560    3.6335
   31.575    3.6124
   31.590    3.7599
   31.605    3.6230
   31.620    3.6124
   31.635    3.6967
   31.650    3.7388
   31.665    3.7915
   31.680    3.8863
   31.695    3.3597
   31.710    3.7072
   31.725    3.8863
   31.740    3.7915
   31.755    4.0021
   31.770    3.5703
   31.785    3.7493
   31.800    3.8757
   31.815    3.7177
   31.830    3.7704
   31.845    3.9494
   31.860    3.5808
   31.875    3.5387
   31.890    4.0126
   31.905    3.7809
   31.920    3.5492
   31.935    3.7283
   31.950    3.8757
   31.965    3.7283
   31.980    3.6019
   31.995    3.8125
   32.010    3.7283
   32.025    3.8020
   32.040    3.7388
   32.055    3.7072
   32.070    3.9705
   32.085    3.8863
   32.100    3.4018
   32.115    3.9494
   32.130    3.6967
   32.145    3.7493
   32.160    3.6862
   32.175    3.6546
   32.190    3.7915
   32.205    3.7493
   32.220    3.3913
   32.235    3.5071
   32.250    3.8968
   32.265    3.4123
   32.280    3.7388
   32.295    3.9810
   32.310    3.7388
   32.325    3.7177
   32.340    3.6335
   32.355    3.7283
   32.370    3.7177
   32.385    3.7388
   32.400    3.7915
   32.415    3.5492
   32.430    3.5387
   32.445    3.5387
   32.460    3.6651
   32.475    3.6124
   32.490    3.5176
   32.505    3.5492
   32.520    3.6756
   32.535    3.6335
   32.550    3.7388
   32.565    3.4966
   32.580    3.6230
   32.595    3.5808
   32.610    3.7599
   32.625    3.8125
   32.640    3.6967
   32.655    3.5914
   32.670    3.4966
   32.685    3.5914
   32.700    3.5387
   32.715    3.3597
   32.730    3.6335
   32.745    3.6335
   32.760    3.5598
   32.775    3.5492
   32.790    3.5492
   32.805    3.5282
   32.820    3.3597
   32.835    3.3807
   32.850    3.4966
   32.865    3.4334
   32.880    3.5492
   32.895    3.6230
   32.910    3.4123
   32.925    3.4650
   32.940    3.4966
   32.955    3.5071
   32.970    3.6124
   32.985    3.4334
   33.000    3.3807
   33.015    3.3491
   33.030    3.4650
   33.045    3.5914
   33.060    3.6862
   33.075    3.4018
   33.090    3.2122
   33.105    3.3491
   33.120    3.3281
   33.135    3.5492
   33.150    3.6546
   33.165    3.5282
   33.180    3.4123
   33.195    3.2965
   33.210    3.2543
   33.225    3.1280
   33.240    3.2543
   33.255    3.3913
   33.270    3.3070
   33.285    3.2859
   33.300    3.3913
   33.315    3.0332
   33.330    3.0121
   33.345    3.5387
   33.360    3.6756
   33.375    3.1806
   33.390    3.2543
   33.405    3.3702
   33.420    3.4966
   33.435    3.1806
   33.450    3.3597
   33.465    3.4229
   33.480    3.4544
   33.495    3.4229
   33.510    3.4650
   33.525    3.2227
   33.540    3.2965
   33.555    3.3281
   33.570    3.4123
   33.585    3.4018
   33.600    3.4018
   33.615    3.1701
   33.630    3.2122
   33.645    3.3597
   33.660    3.2649
   33.675    3.2333
   33.690    3.5176
   33.705    3.3702
   33.720    3.3070
   33.735    3.1385
   33.750    3.4123
   33.765    3.4229
   33.780    3.3913
   33.795    3.1490
   33.810    3.1069
   33.825    3.1069
   33.840    3.2859
   33.855    3.4650
   33.870    3.0016
   33.885    3.1701
   33.900    3.1701
   33.915    3.4544
   33.930    3.4123
   33.945    3.1280
   33.960    3.0121
   33.975    3.3175
   33.990    3.2965
   34.005    3.4229
   34.020    3.3597
   34.035    3.2754
   34.050    3.3070
   34.065    3.6019
   34.080    3.4544
   34.095    3.1069
   34.110    3.2543
   34.125    3.5808
   34.140    3.3281
   34.155    3.0226
   34.170    3.1912
   34.185    3.2017
   34.200    3.3281
   34.215    3.4439
   34.230    3.5387
   34.245    3.4439
   34.260    3.6651
   34.275    3.2649
   34.290    3.3597
   34.305    3.0648
   34.320    3.0542
   34.335    3.1280
   34.350    3.1490
   34.365    3.2017
   34.380    2.9384
   34.395    3.2965
   34.410    3.0753
   34.425    3.1596
   34.440    3.3807
   34.455    3.5282
   34.470    3.3702
   34.485    3.2438
   34.500    3.2543
   34.515    3.2649
   34.530    3.5071
   34.545    3.2333
   34.560    2.9384
   34.575    3.0964
   34.590    2.9805
   34.605    3.2965
   34.620    3.1806
   34.635    3.1280
   34.650    3.3281
   34.665    2.9805
   34.680    3.0648
   34.695    3.2438
   34.710    3.0858
   34.725    3.2859
   34.740    3.2227
   34.755    3.3597
   34.770    3.3386
   34.785    3.2965
   34.800    3.3386
   34.815    3.3807
   34.830    3.1490
   34.845    3.1596
   34.860    3.0121
   34.875    2.9805
   34.890    3.0332
   34.905    3.1069
   34.920    3.0753
   34.935    3.1280
   34.950    3.2965
   34.965    3.0858
   34.980    2.9805
   34.995    3.1806
   35.010    3.2965
   35.025    3.4439
   35.040    3.3597
   35.055    3.2122
   35.070    3.1280
   35.085    3.2543
   35.100    3.1912
   35.115    2.8541
   35.130    3.3281
   35.145    3.3597
   35.160    3.1701
   35.175    3.0858
   35.190    3.2543
   35.205    3.2543
   35.220    2.9489
   35.235    3.1069
   35.250    3.3386
   35.265    2.9910
   35.280    3.2227
   35.295    3.3913
   35.310    3.3807
   35.325    3.1596
   35.340    3.0542
   35.355    3.4755
   35.370    3.4650
   35.385    3.1069
   35.400    3.0858
   35.415    3.2754
   35.430    3.3702
   35.445    3.2965
   35.460    3.2017
   35.475    3.2543
   35.490    3.3281
   35.505    3.2122
   35.520    3.0542
   35.535    3.5282
   35.550    3.1596
   35.565    3.2333
   35.580    3.1069
   35.595    2.9279
   35.610    3.2333
   35.625    3.1490
   35.640    3.0858
   35.655    3.2017
   35.670    3.2227
   35.685    3.1596
   35.700    3.0858
   35.715    3.1490
   35.730    3.1701
   35.745    2.8963
   35.760    3.1174
   35.775    2.8541
   35.790    3.0753
   35.805    3.0016
   35.820    3.1174
   35.835    2.9595
   35.850    2.8225
   35.865    3.0121
   35.880    2.7804
   35.895    2.8436
   35.910    2.9700
   35.925    3.2227
   35.940    3.1912
   35.955    3.2649
   35.970    2.8963
   35.985    3.1280
   36.000    2.9384
   36.015    2.9384
   36.030    3.0226
   36.045    2.9700
   36.060    2.8857
   36.075    3.0121
   36.090    2.9700
   36.105    2.8752
   36.120    3.1280
   36.135    3.1069
   36.150    3.3386
   36.165    3.0858
   36.180    2.7804
   36.195    3.0648
   36.210    2.9805
   36.225    3.1069
   36.240    2.9595
   36.255    2.9489
   36.270    2.9805
   36.285    2.8225
   36.300    2.8015
   36.315    3.1280
   36.330    2.8963
   36.345    2.7909
   36.360    2.7804
   36.375    2.9910
   36.390    2.8963
   36.405    3.2122
   36.420    3.1596
   36.435    2.8436
   36.450    2.7699
   36.465    2.9489
   36.480    2.8436
   36.495    3.0226
   36.510    2.8541
   36.525    3.1069
   36.540    2.9805
   36.555    2.8857
   36.570    3.0437
   36.585    2.9805
   36.600    2.8647
   36.615    2.9279
   36.630    3.0226
   36.645    2.7383
   36.660    2.7804
   36.675    2.8120
   36.690    2.7804
   36.705    2.6751
   36.720    2.8331
   36.735    3.0226
   36.750    2.7699
   36.765    2.9910
   36.780    3.1069
   36.795    2.7699
   36.810    2.7804
   36.825    3.1912
   36.840    2.9805
   36.855    2.7488
   36.870    2.6224
   36.885    2.9068
   36.900    2.9068
   36.915    2.9384
   36.930    3.2017
   36.945    3.0437
   36.960    2.7172
   36.975    2.6962
   36.990    2.6646
   37.005    2.7383
   37.020    2.9700
   37.035    3.2438
   37.050    2.8752
   37.065    2.9910
   37.080    3.2017
   37.095    3.0542
   37.110    3.2122
   37.125    2.9173
   37.140    3.0121
   37.155    2.5803
   37.170    2.7804
   37.185    2.9700
   37.200    2.6540
   37.215    2.8120
   37.230    3.0016
   37.245    2.8963
   37.260    2.6435
   37.275    2.8752
   37.290    2.8225
   37.305    2.8541
   37.320    3.3386
   37.335    2.9805
   37.350    2.8752
   37.365    2.8331
   37.380    2.9489
   37.395    2.7488
   37.410    2.8015
   37.425    2.8647
   37.440    2.8647
   37.455    2.6856
   37.470    2.5066
   37.485    2.7067
   37.500    3.1280
   37.515    3.0753
   37.530    2.7067
   37.545    2.8857
   37.560    2.7804
   37.575    2.9173
   37.590    2.8647
   37.605    2.6119
   37.620    2.9700
   37.635    2.9805
   37.650    2.9173
   37.665    2.9279
   37.680    2.9805
   37.695    2.8647
   37.710    2.6540
   37.725    2.8647
   37.740    3.3175
   37.755    2.7593
   37.770    2.8436
   37.785    2.7699
   37.800    2.9595
   37.815    2.9173
   37.830    2.6856
   37.845    2.6435
   37.860    2.7699
   37.875    2.7278
   37.890    2.8541
   37.905    2.4855
   37.920    2.7488
   37.935    2.8436
   37.950    2.7383
   37.965    2.9068
   37.980    2.8963
   37.995    2.7804
   38.010    3.1069
   38.025    2.8857
   38.040    2.6540
   38.055    2.8225
   38.070    2.8541
   38.085    2.9700
   38.100    2.7804
   38.115    2.9068
   38.130    2.8752
   38.145    3.0121
   38.160    3.0332
   38.175    2.7383
   38.190    2.8015
   38.205    2.8963
   38.220    2.8331
   38.235    2.8857
   38.250    3.1490
   38.265    2.9595
   38.280    2.8015
   38.295    2.8541
   38.310    2.5698
   38.325    2.7172
   38.340    2.7909
   38.355    2.7909
   38.370    2.7593
   38.385    2.8015
   38.400    2.7804
   38.415    2.8225
   38.430    3.0648
   38.445    2.6646
   38.460    2.8120
   38.475    2.8857
   38.490    2.9700
   38.505    3.1385
   38.520    2.8436
   38.535    2.6962
   38.550    2.7278
   38.565    2.7699
   38.580    2.6435
   38.595    2.7172
   38.610    2.8857
   38.625    2.8120
   38.640    2.9910
   38.655    2.7278
   38.670    2.5171
   38.685    2.5382
   38.700    3.0121
   38.715    2.9910
   38.730    3.0858
   38.745    2.9489
   38.760    2.8752
   38.775    2.8647
   38.790    2.8225
   38.805    2.9489
   38.820    2.8331
   38.835    2.7593
   38.850    3.0226
   38.865    3.0226
   38.880    3.0226
   38.895    2.8436
   38.910    2.8541
   38.925    2.8015
   38.940    2.7172
   38.955    2.7488
   38.970    2.7172
   38.985    2.5592
   39.000    2.7699
   39.015    2.7909
   39.030    2.7593
   39.045    2.7383
   39.060    2.7593
   39.075    2.8647
   39.090    2.8541
   39.105    2.7278
   39.120    2.9279
   39.135    2.9384
   39.150    3.0016
   39.165    2.8225
   39.180    2.7278
   39.195    2.7067
   39.210    2.6856
   39.225    2.6751
   39.240    2.8752
   39.255    2.8963
   39.270    2.8331
   39.285    2.8647
   39.300    2.9805
   39.315    2.7488
   39.330    3.0226
   39.345    2.8647
   39.360    2.6014
   39.375    2.5066
   39.390    2.8120
   39.405    2.8752
   39.420    2.6856
   39.435    2.9384
   39.450    3.2438
   39.465    2.9384
   39.480    3.0016
   39.495    2.8331
   39.510    2.8647
   39.525    2.8541
   39.540    2.5908
   39.555    2.5171
   39.570    2.6856
   39.585    2.6540
   39.600    2.5803
   39.615    2.9805
   39.630    2.8331
   39.645    2.7804
   39.660    2.5908
   39.675    2.9595
   39.690    2.9068
   39.705    2.5698
   39.720    2.7909
   39.735    2.7593
   39.750    2.6119
   39.765    2.5382
   39.780    2.8120
   39.795    2.6856
   39.810    2.8963
   39.825    2.8752
   39.840    2.8015
   39.855    2.7278
   39.870    2.8963
   39.885    2.9700
   39.900    2.7488
   39.915    2.6962
   39.930    2.8120
   39.945    2.6751
   39.960    2.5908
   39.975    2.5066
   39.990    2.7383
