    1.500   19.2522
    1.515   19.2101
    1.530   19.3049
    1.545   19.1680
    1.560   18.6203
    1.575   18.5887
    1.590   17.1037
    1.605   16.9774
    1.620   17.5355
    1.635   16.8826
    1.650   17.5145
    1.665   16.4192
    1.680   16.2401
    1.695   16.7246
    1.710   15.7135
    1.725   15.5345
    1.740   15.4292
    1.755   15.0922
    1.770   15.4186
    1.785   15.1237
    1.800   15.2080
    1.815   14.9974
    1.830   15.1343
    1.845   14.2917
    1.860   13.4597
    1.875   13.6493
    1.890   13.3649
    1.905   13.7335
    1.920   14.1864
    1.935   13.4702
    1.950   12.4065
    1.965   12.7225
    1.980   12.7962
    1.995   12.6172
    2.010   12.3960
    2.025   11.8378
    2.040   12.6277
    2.055   12.3328
    2.070   12.3539
    2.085   11.7852
    2.100   11.8378
    2.115   11.7536
    2.130   11.7641
    2.145   11.8694
    2.160   12.3539
    2.175   11.4060
    2.190   11.7746
    2.205   11.6272
    2.220   11.1743
    2.235   10.9005
    2.250   11.1111
    2.265   10.8057
    2.280   11.1954
    2.295   11.2059
    2.310   11.2691
    2.325   11.0479
    2.340   11.3007
    2.355   10.8162
    2.370   10.8478
    2.385   10.9215
    2.400   10.4371
    2.415   10.4581
    2.430   10.7004
    2.445   10.8794
    2.460   10.5740
    2.475   10.6056
    2.490   10.3528
    2.505   10.8689
    2.520   10.9531
    2.535   10.8057
    2.550   10.7741
    2.565   10.9637
    2.580   10.7530
    2.595   10.8794
    2.610   10.3844
    2.625   10.9953
    2.640   11.5324
    2.655   11.1848
    2.670   11.3955
    2.685   10.9742
    2.700   11.6166
    2.715   11.5113
    2.730   11.8905
    2.745   11.7114
    2.760   11.7641
    2.775   12.5856
    2.790   12.9963
    2.805   13.1227
    2.820   13.3649
    2.835   13.3649
    2.850   14.2601
    2.865   14.1654
    2.880   13.9968
    2.895   14.8078
    2.910   15.1343
    2.925   15.2607
    2.940   16.9142
    2.955   16.7351
    2.970   17.7883
    2.985   17.9463
    3.000   18.4834
    3.015   19.5893
    3.030   20.4739
    3.045   21.0743
    3.060   21.5798
    3.075   22.7804
    3.090   24.2338
    3.105   24.9816
    3.120   26.0032
    3.135   26.8773
    3.150   29.1522
    3.165   29.9737
    3.180   32.1643
    3.195   33.5650
    3.210   36.1664
    3.225   38.2201
    3.240   40.0421
    3.255   42.6646
    3.270   46.0979
    3.285   49.2680
    3.300   51.2270
    3.315   55.2712
    3.330   60.0316
    3.345   65.3713
    3.360   70.3212
    3.375   76.7351
    3.390   82.1590
    3.405   88.4992
    3.420   93.5756
    3.435   96.2191
    3.450   93.7230
    3.465   88.9521
    3.480   81.7062
    3.495   72.8173
    3.510   63.2122
    3.525   54.8921
    3.540   47.9516
    3.555   44.7183
    3.570   40.7478
    3.585   39.0943
    3.600   37.2723
    3.615   37.1353
    3.630   36.3244
    3.645   37.8304
    3.660   39.3892
    3.675   40.1580
    3.690   41.4323
    3.705   44.6024
    3.720   46.6561
    3.735   49.3944
    3.750   52.6277
    3.765   57.1248
    3.780   62.8647
    3.795   69.3523
    3.810   78.6730
    3.825   90.0685
    3.840   98.2307
    3.855   99.8104
    3.870   96.3455
    3.885   87.4566
    3.900   71.6482
    3.915   53.7125
    3.930   43.0964
    3.945   38.6203
    3.960   37.9463
    3.975   37.4829
    3.990   36.3033
    4.005   37.7883
    4.020   38.1253
    4.035   37.5355
    4.050   37.8199
    4.065   37.2407
    4.080   36.1032
    4.095   35.3976
    4.110   34.9447
    4.125   33.1859
    4.140   32.7330
    4.155   31.6482
    4.170   29.7736
    4.185   27.9516
    4.200   26.6456
    4.215   24.7077
    4.230   23.8863
    4.245   22.0326
    4.260   20.0421
    4.275   19.2522
    4.290   17.7883
    4.305   16.7246
    4.320   15.4186
    4.335   14.3971
    4.350   13.0174
    4.365   12.1116
    4.380   11.3428
    4.395   11.1848
    4.410   10.6056
    4.425    9.9631
    4.440    9.5103
    4.455    9.3102
    4.470    9.0785
    4.485    8.8889
    4.500    8.1201
    4.515    8.0569
    4.530    7.8252
    4.545    7.6356
    4.560    7.5935
    4.575    7.6567
    4.590    7.2670
    4.605    6.9826
    4.620    6.5403
    4.635    6.5403
    4.650    6.6877
    4.665    6.0242
    4.680    6.1295
    4.695    5.9400
    4.710    5.7293
    4.725    6.1295
    4.740    5.8873
    4.755    5.7925
    4.770    5.8136
    4.785    5.9294
    4.800    5.8662
    4.815    5.8136
    4.830    5.4871
    4.845    5.6029
    4.860    5.9926
    4.875    5.7293
    4.890    5.6977
    4.905    5.3712
    4.920    6.0874
    4.935    5.4976
    4.950    5.7293
    4.965    5.5714
    4.980    5.4871
    4.995    5.4450
    5.010    5.7609
    5.025    5.9400
    5.040    5.6556
    5.055    5.5819
    5.070    5.6029
    5.085    5.4028
    5.100    5.5398
    5.115    5.6872
    5.130    5.6872
    5.145    5.6029
    5.160    5.7715
    5.175    5.7609
    5.190    5.9610
    5.205    5.9716
    5.220    5.8662
    5.235    6.2665
    5.250    6.4666
    5.265    6.8352
    5.280    6.7299
    5.295    6.6877
    5.310    7.1617
    5.325    7.7936
    5.340    7.6251
    5.355    7.8884
    5.370    8.3939
    5.385    9.3102
    5.400    9.3734
    5.415   10.6898
    5.430   12.2064
    5.445   13.7967
    5.460   14.8499
    5.475   14.6603
    5.490   14.2601
    5.505   13.1543
    5.520   10.6266
    5.535    8.2780
    5.550    6.5719
    5.565    5.7504
    5.580    5.0026
    5.595    5.1606
    5.610    4.9921
    5.625    5.0869
    5.640    4.9289
    5.655    4.6867
    5.670    4.3707
    5.685    4.9605
    5.700    4.5603
    5.715    4.2759
    5.730    4.2022
    5.745    4.5182
    5.760    4.7183
    5.775    4.4339
    5.790    4.6972
    5.805    4.6340
    5.820    4.7815
    5.835    4.8025
    5.850    4.5287
    5.865    4.8236
    5.880    4.3918
    5.895    4.3707
    5.910    4.3918
    5.925    4.5076
    5.940    4.2970
    5.955    3.9705
    5.970    4.7815
    5.985    4.3707
    6.000    4.0758
    6.015    4.0969
    6.030    4.3707
    6.045    4.2022
    6.060    4.4023
    6.075    4.2970
    6.090    4.6024
    6.105    4.4866
    6.120    4.3497
    6.135    4.5076
    6.150    4.6235
    6.165    4.5708
    6.180    4.6445
    6.195    4.8025
    6.210    4.5603
    6.225    4.2759
    6.240    4.1601
    6.255    4.4655
    6.270    4.2443
    6.285    4.2443
    6.300    4.2549
    6.315    4.4760
    6.330    4.3813
    6.345    4.3707
    6.360    4.2127
    6.375    4.4339
    6.390    4.4550
    6.405    4.1601
    6.420    4.2865
    6.435    4.7499
    6.450    4.5182
    6.465    4.7604
    6.480    4.7499
    6.495    4.5498
    6.510    4.6972
    6.525    4.7709
    6.540    4.6340
    6.555    4.9500
    6.570    4.6867
    6.585    4.7815
    6.600    4.9078
    6.615    5.2659
    6.630    5.7399
    6.645    5.9400
    6.660    6.0979
    6.675    6.4876
    6.690    6.8141
    6.705    7.2143
    6.720    7.1617
    6.735    7.2775
    6.750    7.0458
    6.765    7.1406
    6.780    6.9405
    6.795    7.1617
    6.810    8.0885
    6.825    8.1411
    6.840    8.7941
    6.855    8.9837
    6.870    9.8368
    6.885   10.7004
    6.900   10.9637
    6.915   11.0900
    6.930   11.6693
    6.945   12.0590
    6.960   11.4587
    6.975   11.0479
    6.990   10.0790
    7.005    9.7525
    7.020    9.0363
    7.035    7.9094
    7.050    7.7725
    7.065    6.8562
    7.080    6.4560
    7.095    5.8978
    7.110    5.8136
    7.125    5.1606
    7.140    5.4134
    7.155    5.5082
    7.170    5.1711
    7.185    5.0764
    7.200    5.1290
    7.215    4.9605
    7.230    4.8973
    7.245    4.6340
    7.260    4.9816
    7.275    4.8763
    7.290    4.8341
    7.305    4.5708
    7.320    4.8868
    7.335    4.8552
    7.350    4.6656
    7.365    4.7604
    7.380    4.5287
    7.395    4.5603
    7.410    4.5498
    7.425    4.1496
    7.440    4.8763
    7.455    4.9289
    7.470    4.9605
    7.485    4.8025
    7.500    4.8973
    7.515    4.8552
    7.530    5.0658
    7.545    5.0132
    7.560    5.2554
    7.575    4.9710
    7.590    4.9710
    7.605    5.1185
    7.620    5.2975
    7.635    5.2975
    7.650    5.3818
    7.665    5.7399
    7.680    6.0348
    7.695    6.2349
    7.710    6.3928
    7.725    6.7088
    7.740    7.6251
    7.755    7.7409
    7.770    7.9937
    7.785    7.2986
    7.800    7.6883
    7.815    7.1617
    7.830    6.6561
    7.845    6.1085
    7.860    5.4766
    7.875    5.5398
    7.890    6.0979
    7.905    6.3296
    7.920    5.9400
    7.935    5.4344
    7.950    5.8557
    7.965    5.6135
    7.980    5.6661
    7.995    6.0453
    8.010    6.1822
    8.025    5.9821
    8.040    5.9294
    8.055    6.0874
    8.070    5.8978
    8.085    6.0979
    8.100    6.1927
    8.115    6.4034
    8.130    6.6877
    8.145    6.3928
    8.160    6.2981
    8.175    6.6561
    8.190    6.3507
    8.205    5.9821
    8.220    6.2875
    8.235    5.6977
    8.250    6.3507
    8.265    6.2138
    8.280    6.2981
    8.295    5.9294
    8.310    6.2033
    8.325    6.3296
    8.340    6.3507
    8.355    5.7925
    8.370    5.9716
    8.385    5.9294
    8.400    6.0453
    8.415    6.1401
    8.430    6.3086
    8.445    6.1401
    8.460    6.2033
    8.475    5.7609
    8.490    5.7188
    8.505    5.4028
    8.520    5.5503
    8.535    5.6872
    8.550    5.5924
    8.565    5.4660
    8.580    5.4028
    8.595    5.2238
    8.610    5.3712
    8.625    5.3186
    8.640    5.4239
    8.655    5.2870
    8.670    5.5187
    8.685    5.3397
    8.700    5.2659
    8.715    5.2449
    8.730    5.3607
    8.745    5.0448
    8.760    5.1290
    8.775    4.9184
    8.790    4.5287
    8.805    4.5603
    8.820    4.8973
    8.835    4.7604
    8.850    4.7183
    8.865    4.6340
    8.880    4.8657
    8.895    4.5076
    8.910    4.4866
    8.925    4.5076
    8.940    4.3813
    8.955    4.2338
    8.970    4.2970
    8.985    4.4655
    9.000    4.5076
    9.015    4.4023
    9.030    4.0442
    9.045    4.1285
    9.060    3.9600
    9.075    4.1811
    9.090    4.0021
    9.105    4.3497
    9.120    4.4339
    9.135    4.4444
    9.150    4.4655
    9.165    4.3813
    9.180    4.2022
    9.195    4.2549
    9.210    4.2338
    9.225    4.1706
    9.240    3.9810
    9.255    4.1811
    9.270    3.9284
    9.285    4.4550
    9.300    4.3497
    9.315    4.4550
    9.330    4.5392
    9.345    4.3602
    9.360    4.6656
    9.375    4.8973
    9.390    4.9710
    9.405    5.0448
    9.420    5.3712
    9.435    5.7293
    9.450    5.9821
    9.465    6.2454
    9.480    6.8878
    9.495    8.0990
    9.510    8.8362
    9.525    9.1101
    9.540    9.2575
    9.555    8.6361
    9.570    7.9621
    9.585    6.9300
    9.600    5.6345
    9.615    4.6130
    9.630    4.5814
    9.645    4.0969
    9.660    3.9494
    9.675    4.1390
    9.690    4.2127
    9.705    4.4128
    9.720    4.2233
    9.735    4.0021
    9.750    4.2759
    9.765    4.3602
    9.780    4.5498
    9.795    4.0021
    9.810    3.8020
    9.825    4.2865
    9.840    4.2338
    9.855    4.2654
    9.870    4.0021
    9.885    4.1390
    9.900    4.2549
    9.915    3.9916
    9.930    3.9916
    9.945    3.8231
    9.960    3.8757
    9.975    4.0653
    9.990    4.0548
   10.005    3.9600
   10.020    4.1390
   10.035    3.8336
   10.050    4.1180
   10.065    4.0969
   10.080    4.0126
   10.095    3.9284
   10.110    4.0653
   10.125    4.1917
   10.140    4.2549
   10.155    4.2865
   10.170    4.0864
   10.185    4.1390
   10.200    4.5392
   10.215    4.8657
   10.230    4.9078
   10.245    5.2975
   10.260    5.3397
   10.275    5.6240
   10.290    5.8768
   10.305    6.2033
   10.320    5.8978
   10.335    5.8031
   10.350    5.7820
   10.365    5.1922
   10.380    4.8025
   10.395    5.1711
   10.410    4.5287
   10.425    4.4339
   10.440    4.6656
   10.455    4.4971
   10.470    4.7288
   10.485    4.3813
   10.500    4.4444
   10.515    4.5814
   10.530    4.2443
   10.545    4.2127
   10.560    4.4971
   10.575    4.3286
   10.590    4.5603
   10.605    4.3181
   10.620    4.0969
   10.635    3.8547
   10.650    3.9494
   10.665    4.0548
   10.680    4.3075
   10.695    4.3813
   10.710    4.1074
   10.725    4.2654
   10.740    4.1390
   10.755    4.1601
   10.770    4.0969
   10.785    4.1706
   10.800    3.7177
   10.815    3.8863
   10.830    4.1285
   10.845    4.1390
   10.860    4.0232
   10.875    4.2127
   10.890    4.0126
   10.905    4.0864
   10.920    4.4655
   10.935    4.7604
   10.950    4.6867
   10.965    4.6130
   10.980    5.2659
   10.995    5.1395
   11.010    5.2870
   11.025    4.9394
   11.040    5.0869
   11.055    4.9605
   11.070    5.1395
   11.085    4.5076
   11.100    4.2865
   11.115    4.0232
   11.130    4.0758
   11.145    4.4971
   11.160    4.1706
   11.175    4.1390
   11.190    3.7809
   11.205    3.8547
   11.220    4.1390
   11.235    4.1811
   11.250    4.2549
   11.265    4.0337
   11.280    4.3497
   11.295    3.9494
   11.310    4.1706
   11.325    3.8863
   11.340    4.0653
   11.355    3.9705
   11.370    3.8863
   11.385    4.2127
   11.400    4.2233
   11.415    3.8757
   11.430    4.0548
   11.445    3.9073
   11.460    4.3286
   11.475    3.9810
   11.490    3.9389
   11.505    4.0969
   11.520    4.1706
   11.535    4.0337
   11.550    4.0864
   11.565    3.9179
   11.580    4.2654
   11.595    4.3391
   11.610    4.4550
   11.625    4.7077
   11.640    4.9710
   11.655    4.7920
   11.670    4.9184
   11.685    5.3397
   11.700    5.1711
   11.715    5.2765
   11.730    5.0764
   11.745    4.8657
   11.760    4.5182
   11.775    4.4760
   11.790    3.9810
   11.805    3.7809
   11.820    3.8441
   11.835    3.9810
   11.850    3.9600
   11.865    3.9389
   11.880    3.8863
   11.895    3.7704
   11.910    4.1496
   11.925    4.6656
   11.940    4.2654
   11.955    4.0864
   11.970    4.0969
   11.985    4.0653
   12.000    4.0442
   12.015    4.0969
   12.030    4.1601
   12.045    4.2865
   12.060    4.0337
   12.075    4.1390
   12.090    4.3286
   12.105    4.1917
   12.120    4.3075
   12.135    4.2654
   12.150    4.1706
   12.165    4.2865
   12.180    4.2759
   12.195    4.3391
   12.210    4.1496
   12.225    4.2970
   12.240    4.6235
   12.255    4.5392
   12.270    4.3813
   12.285    4.2759
   12.300    4.4128
   12.315    4.1390
   12.330    4.4760
   12.345    4.4550
   12.360    4.2654
   12.375    4.1390
   12.390    4.0548
   12.405    4.1917
   12.420    4.1811
   12.435    4.1601
   12.450    4.2549
   12.465    4.5076
   12.480    4.3391
   12.495    4.0232
   12.510    4.2654
   12.525    4.2022
   12.540    4.0337
   12.555    4.1917
   12.570    4.4339
   12.585    4.4234
   12.600    4.1496
   12.615    3.9494
   12.630    4.0548
   12.645    4.0548
   12.660    3.8757
   12.675    4.0758
   12.690    4.1180
   12.705    4.0758
   12.720    4.2127
   12.735    4.1496
   12.750    4.0548
   12.765    4.2443
   12.780    4.3497
   12.795    4.0969
   12.810    4.6024
   12.825    4.3286
   12.840    4.3181
   12.855    4.2127
   12.870    4.4234
   12.885    4.2759
   12.900    4.9289
   12.915    5.3923
   12.930    5.3397
   12.945    5.4134
   12.960    4.9394
   12.975    5.1711
   12.990    4.8552
   13.005    4.2233
   13.020    4.2338
   13.035    4.2127
   13.050    4.1390
   13.065    3.9073
   13.080    4.0653
   13.095    3.8020
   13.110    3.9810
   13.125    3.7599
   13.140    4.2338
   13.155    4.1285
   13.170    4.0548
   13.185    4.0337
   13.200    4.0758
   13.215    3.9179
   13.230    3.9389
   13.245    3.8336
   13.260    4.0758
   13.275    4.2022
   13.290    4.3602
   13.305    4.3497
   13.320    4.4866
   13.335    4.0758
   13.350    3.7915
   13.365    3.8020
   13.380    4.0021
   13.395    4.1706
   13.410    4.0232
   13.425    4.2127
   13.440    4.4339
   13.455    4.4760
   13.470    4.7709
   13.485    4.6972
   13.500    4.4866
   13.515    4.9605
   13.530    4.9710
   13.545    4.8552
   13.560    4.9394
   13.575    4.6867
   13.590    4.1601
   13.605    4.3075
   13.620    4.0232
   13.635    3.9916
   13.650    3.7915
   13.665    3.8968
   13.680    3.9284
   13.695    4.0337
   13.710    3.9705
   13.725    3.8968
   13.740    3.7599
   13.755    3.9073
   13.770    4.2127
   13.785    4.0864
   13.800    4.1706
   13.815    3.9705
   13.830    3.8125
   13.845    4.0864
   13.860    4.0548
   13.875    4.0126
   13.890    3.7177
   13.905    3.8968
   13.920    3.8125
   13.935    3.6967
   13.950    4.0548
   13.965    4.2022
   13.980    4.4866
   13.995    4.2759
   14.010    4.1074
   14.025    4.1496
   14.040    4.4550
   14.055    4.6024
   14.070    4.5603
   14.085    4.7183
   14.100    4.8025
   14.115    4.2549
   14.130    4.3497
   14.145    4.1496
   14.160    4.3181
   14.175    4.1180
   14.190    3.9705
   14.205    4.1390
   14.220    3.7809
   14.235    3.7599
   14.250    3.8125
   14.265    3.9916
   14.280    4.0653
   14.295    3.8020
   14.310    3.8968
   14.325    4.1706
   14.340    3.8231
   14.355    3.9179
   14.370    4.0442
   14.385    3.7809
   14.400    4.0548
   14.415    3.7704
   14.430    3.9389
   14.445    3.8020
   14.460    3.9916
   14.475    3.8547
   14.490    4.0653
   14.505    4.0232
   14.520    3.9494
   14.535    3.9916
   14.550    3.8757
   14.565    3.6967
   14.580    3.7072
   14.595    3.8125
   14.610    3.9179
   14.625    3.8547
   14.640    3.6124
   14.655    3.6862
   14.670    3.8125
   14.685    3.9073
   14.700    4.0021
   14.715    3.7915
   14.730    3.8336
   14.745    3.9494
   14.760    3.9600
   14.775    3.8757
   14.790    4.1811
   14.805    3.9810
   14.820    4.0126
   14.835    4.2127
   14.850    3.5598
   14.865    3.5598
   14.880    3.8125
   14.895    3.7809
   14.910    3.8441
   14.925    3.5808
   14.940    4.0337
   14.955    3.7388
   14.970    3.7388
   14.985    3.7704
   15.000    3.8757
   15.015    3.9810
   15.030    3.8125
   15.045    3.9810
   15.060    3.8863
   15.075    3.8441
   15.090    4.1285
   15.105    3.9916
   15.120    3.9179
   15.135    3.8547
   15.150    3.8336
   15.165    4.1390
   15.180    3.9916
   15.195    3.9494
   15.210    3.8757
   15.225    3.8020
   15.240    3.5914
   15.255    3.6651
   15.270    3.8125
   15.285    3.8652
   15.300    3.8547
   15.315    3.7599
   15.330    3.8020
   15.345    3.5071
   15.360    3.7915
   15.375    3.9179
   15.390    3.8336
   15.405    3.5808
   15.420    3.6546
   15.435    3.6230
   15.450    3.8020
   15.465    4.0337
   15.480    4.0232
   15.495    3.7177
   15.510    3.7704
   15.525    4.0232
   15.540    4.3075
   15.555    4.1180
   15.570    4.2654
   15.585    3.8020
   15.600    3.9284
   15.615    3.8231
   15.630    4.0548
   15.645    3.9179
   15.660    3.6546
   15.675    3.7915
   15.690    3.7493
   15.705    3.8652
   15.720    3.8441
   15.735    3.7283
   15.750    3.6651
   15.765    3.7915
   15.780    4.0021
   15.795    3.7704
   15.810    3.9284
   15.825    3.9389
   15.840    3.8020
   15.855    3.8863
   15.870    3.8336
   15.885    4.2654
   15.900    4.0126
   15.915    3.7493
   15.930    3.9494
   15.945    4.0126
   15.960    4.0337
   15.975    4.0758
   15.990    3.8757
   16.005    4.0758
   16.020    3.7388
   16.035    4.0548
   16.050    3.8863
   16.065    4.1390
   16.080    4.3707
   16.095    4.4128
   16.110    4.1285
   16.125    4.0126
   16.140    4.0232
   16.155    4.0653
   16.170    3.9284
   16.185    3.8125
   16.200    3.9284
   16.215    4.0126
   16.230    3.8441
   16.245    3.8336
   16.260    3.8020
   16.275    3.8547
   16.290    4.0969
   16.305    3.9284
   16.320    3.6756
   16.335    3.9494
   16.350    4.1285
   16.365    3.6651
   16.380    3.9073
   16.395    3.8863
   16.410    3.6651
   16.425    3.7072
   16.440    3.7388
   16.455    3.8863
   16.470    3.5492
   16.485    3.7809
   16.500    4.0548
   16.515    3.9073
   16.530    4.0969
   16.545    4.2549
   16.560    4.3602
   16.575    4.1811
   16.590    4.2759
   16.605    4.4128
   16.620    4.0232
   16.635    4.0864
   16.650    4.0864
   16.665    4.0126
   16.680    3.9810
   16.695    4.0337
   16.710    3.7177
   16.725    3.5282
   16.740    4.0548
   16.755    3.6651
   16.770    3.8336
   16.785    4.0021
   16.800    4.1285
   16.815    3.8125
   16.830    3.7388
   16.845    4.0337
   16.860    4.0021
   16.875    3.8652
   16.890    4.0758
   16.905    3.8968
   16.920    3.8968
   16.935    3.9389
   16.950    3.8336
   16.965    3.5914
   16.980    4.1601
   16.995    4.4234
   17.010    4.3918
   17.025    4.6761
   17.040    4.6130
   17.055    4.6867
   17.070    4.6024
   17.085    4.7288
   17.100    4.6235
   17.115    4.3918
   17.130    3.9389
   17.145    3.9810
   17.160    4.0864
   17.175    3.9705
   17.190    3.9810
   17.205    4.0864
   17.220    4.0548
   17.235    4.0021
   17.250    4.1917
   17.265    3.9810
   17.280    3.8757
   17.295    3.5703
   17.310    3.6756
   17.325    3.7177
   17.340    3.7072
   17.355    3.4334
   17.370    3.6440
   17.385    3.8652
   17.400    3.8547
   17.415    3.7493
   17.430    3.7177
   17.445    3.8441
   17.460    4.1390
   17.475    4.0442
   17.490    4.0969
   17.505    3.9179
   17.520    3.6756
   17.535    3.7072
   17.550    3.8757
   17.565    3.8968
   17.580    4.5498
   17.595    3.8652
   17.610    3.7493
   17.625    3.6019
   17.640    3.7388
   17.655    3.9600
   17.670    3.7283
   17.685    3.6124
   17.700    3.5598
   17.715    3.6230
   17.730    3.9073
   17.745    3.8125
   17.760    3.8863
   17.775    3.9916
   17.790    4.0337
   17.805    3.4439
   17.820    3.7072
   17.835    3.8336
   17.850    3.6651
   17.865    3.8547
   17.880    4.0758
   17.895    3.8863
   17.910    4.2127
   17.925    3.8863
   17.940    4.2127
   17.955    4.2865
   17.970    3.9705
   17.985    4.0126
   18.000    3.7915
   18.015    3.9810
   18.030    3.9810
   18.045    4.0232
   18.060    3.7915
   18.075    4.0337
   18.090    3.7915
   18.105    3.7388
   18.120    3.7915
   18.135    3.8441
   18.150    3.8968
   18.165    3.7599
   18.180    3.9389
   18.195    3.9073
   18.210    3.9494
   18.225    3.7072
   18.240    4.0548
   18.255    3.9494
   18.270    3.7177
   18.285    3.6967
   18.300    4.0969
   18.315    4.0021
   18.330    4.0126
   18.345    4.2127
   18.360    4.3602
   18.375    4.0758
   18.390    4.2970
   18.405    4.2022
   18.420    4.2549
   18.435    4.0021
   18.450    3.8441
   18.465    3.8125
   18.480    4.2127
   18.495    3.7809
   18.510    3.7493
   18.525    4.1285
   18.540    3.8020
   18.555    3.6862
   18.570    4.2865
   18.585    3.9705
   18.600    3.9810
   18.615    4.0864
   18.630    3.9705
   18.645    3.8231
   18.660    3.7915
   18.675    3.7809
   18.690    3.6862
   18.705    4.0021
   18.720    4.0337
   18.735    3.9810
   18.750    3.8652
   18.765    3.7388
   18.780    3.8441
   18.795    4.0126
   18.810    3.9284
   18.825    3.6651
   18.840    4.2865
   18.855    4.0653
   18.870    3.8968
   18.885    3.8020
   18.900    3.9179
   18.915    3.9389
   18.930    4.1390
   18.945    4.0126
   18.960    3.9600
   18.975    3.8547
   18.990    3.6967
   19.005    4.0232
   19.020    3.9389
   19.035    3.8547
   19.050    3.5914
   19.065    3.7072
   19.080    4.0021
   19.095    3.9705
   19.110    3.8336
   19.125    3.6967
   19.140    3.9284
   19.155    4.1285
   19.170    3.7177
   19.185    3.9073
   19.200    3.7915
   19.215    4.1496
   19.230    4.3286
   19.245    3.9494
   19.260    4.0758
   19.275    4.0442
   19.290    3.9810
   19.305    3.8968
   19.320    4.0337
   19.335    4.0653
   19.350    3.7809
   19.365    4.0653
   19.380    4.0969
   19.395    4.1496
   19.410    4.0864
   19.425    4.0548
   19.440    4.1285
   19.455    4.0232
   19.470    4.1601
   19.485    4.2970
   19.500    3.7177
   19.515    4.1811
   19.530    4.5392
   19.545    4.2443
   19.560    4.2654
   19.575    4.2338
   19.590    4.2759
   19.605    4.4234
   19.620    4.8236
   19.635    4.5182
   19.650    4.2970
   19.665    4.3391
   19.680    4.5814
   19.695    4.3918
   19.710    4.0021
   19.725    3.9600
   19.740    3.9494
   19.755    4.0864
   19.770    4.1180
   19.785    4.5498
   19.800    4.4550
   19.815    4.3286
   19.830    4.1601
   19.845    4.0864
   19.860    4.0442
   19.875    4.2654
   19.890    4.1706
   19.905    4.3286
   19.920    4.4550
   19.935    4.1180
   19.950    4.0021
   19.965    4.1706
   19.980    4.2759
   19.995    4.5287
   20.010    4.5182
   20.025    4.1601
   20.040    4.2127
   20.055    4.1706
   20.070    4.3707
   20.085    4.1917
   20.100    4.4339
   20.115    4.0337
   20.130    4.2338
   20.145    4.1811
   20.160    3.9916
   20.175    3.8757
   20.190    4.0653
   20.205    4.2127
   20.220    4.2127
   20.235    4.2549
   20.250    4.1706
   20.265    4.3391
   20.280    4.5287
   20.295    4.5287
   20.310    4.3391
   20.325    4.7709
   20.340    4.5603
   20.355    4.8973
   20.370    5.0553
   20.385    4.6551
   20.400    4.8552
   20.415    4.4971
   20.430    4.3918
   20.445    4.5287
   20.460    4.5392
   20.475    4.1390
   20.490    4.3286
   20.505    4.2022
   20.520    4.4234
   20.535    4.3181
   20.550    4.2338
   20.565    4.1706
   20.580    4.4128
   20.595    4.2759
   20.610    4.4655
   20.625    4.1601
   20.640    4.3286
   20.655    4.4866
   20.670    4.2127
   20.685    4.2338
   20.700    4.2338
   20.715    4.4655
   20.730    4.4866
   20.745    4.1496
   20.760    4.3497
   20.775    4.2443
   20.790    4.0969
   20.805    4.3181
   20.820    4.1601
   20.835    4.5287
   20.850    4.3391
   20.865    4.2443
   20.880    3.9494
   20.895    4.3075
   20.910    4.3181
   20.925    4.0653
   20.940    3.8757
   20.955    4.3707
   20.970    4.4339
   20.985    4.6130
   21.000    4.3286
   21.015    4.4023
   21.030    4.2865
   21.045    4.2865
   21.060    4.4234
   21.075    4.2233
   21.090    3.8757
   21.105    4.1811
   21.120    4.4444
   21.135    4.2865
   21.150    4.0864
   21.165    4.1285
   21.180    4.1811
   21.195    4.1811
   21.210    4.2338
   21.225    3.9073
   21.240    3.8336
   21.255    4.0337
   21.270    4.3707
   21.285    4.2338
   21.300    3.9179
   21.315    4.0864
   21.330    4.3602
   21.345    4.4550
   21.360    4.1390
   21.375    4.1496
   21.390    4.0442
   21.405    4.3602
   21.420    4.5182
   21.435    4.1074
   21.450    3.9916
   21.465    4.0442
   21.480    4.2970
   21.495    4.1180
   21.510    4.1074
   21.525    3.9705
   21.540    4.1496
   21.555    4.2233
   21.570    4.0864
   21.585    3.9179
   21.600    4.1074
   21.615    4.2443
   21.630    3.8757
   21.645    3.8547
   21.660    4.0969
   21.675    4.2549
   21.690    4.3286
   21.705    4.1601
   21.720    4.1706
   21.735    4.0969
   21.750    4.5287
   21.765    4.3602
   21.780    4.4866
   21.795    4.4339
   21.810    4.1074
   21.825    4.1601
   21.840    4.6656
   21.855    4.5708
   21.870    4.4339
   21.885    4.2654
   21.900    4.5919
   21.915    4.5287
   21.930    4.4234
   21.945    4.2865
   21.960    4.3075
   21.975    4.2549
   21.990    4.2338
   22.005    4.0232
   22.020    4.1706
   22.035    3.9810
   22.050    4.1601
   22.065    4.3602
   22.080    4.3602
   22.095    4.3497
   22.110    4.3181
   22.125    4.3497
   22.140    4.2970
   22.155    4.1390
   22.170    4.2865
   22.185    4.2127
   22.200    4.2654
   22.215    4.3707
   22.230    4.1601
   22.245    4.3391
   22.260    4.5603
   22.275    4.4971
   22.290    4.3391
   22.305    4.1285
   22.320    4.4023
   22.335    4.1601
   22.350    4.0969
   22.365    4.1706
   22.380    4.1390
   22.395    4.2338
   22.410    4.2865
   22.425    4.2127
   22.440    4.5919
   22.455    4.5392
   22.470    4.5603
   22.485    4.8868
   22.500    4.5603
   22.515    4.3707
   22.530    4.5392
   22.545    4.6867
   22.560    4.7920
   22.575    4.8763
   22.590    4.8973
   22.605    4.8763
   22.620    4.7815
   22.635    4.6551
   22.650    4.2443
   22.665    4.2127
   22.680    4.1496
   22.695    4.2970
   22.710    4.1811
   22.725    4.2233
   22.740    4.0442
   22.755    4.2759
   22.770    4.4234
   22.785    4.3602
   22.800    4.3181
   22.815    4.3813
   22.830    4.5708
   22.845    4.4971
   22.860    4.6130
   22.875    4.5287
   22.890    4.7499
   22.905    5.1606
   22.920    4.9710
   22.935    5.1817
   22.950    4.8131
   22.965    4.5919
   22.980    4.6972
   22.995    4.3813
   23.010    4.2549
   23.025    4.3391
   23.040    4.1811
   23.055    4.0548
   23.070    3.9600
   23.085    4.0126
   23.100    4.3181
   23.115    4.1074
   23.130    4.4339
   23.145    3.9600
   23.160    4.1074
   23.175    4.4128
   23.190    4.3181
   23.205    4.2970
   23.220    4.5076
   23.235    4.3181
   23.250    4.2022
   23.265    4.3181
   23.280    4.3391
   23.295    4.5076
   23.310    4.2549
   23.325    4.4234
   23.340    4.2338
   23.355    4.2233
   23.370    4.0442
   23.385    4.2233
   23.400    4.0021
   23.415    3.8125
   23.430    3.8441
   23.445    4.0969
   23.460    4.3497
   23.475    4.2127
   23.490    4.1706
   23.505    3.9494
   23.520    4.3918
   23.535    4.2127
   23.550    3.8547
   23.565    4.1706
   23.580    4.2233
   23.595    4.0337
   23.610    4.1180
   23.625    3.8336
   23.640    4.3075
   23.655    4.3707
   23.670    4.1496
   23.685    3.9705
   23.700    3.6230
   23.715    3.9600
   23.730    3.6967
   23.745    3.9810
   23.760    4.3286
   23.775    4.1811
   23.790    4.0126
   23.805    4.0232
   23.820    4.2338
   23.835    4.1285
   23.850    4.1180
   23.865    4.2233
   23.880    4.2022
   23.895    4.0337
   23.910    4.2233
   23.925    4.2127
   23.940    4.0337
   23.955    4.1074
   23.970    4.4866
   23.985    4.0021
   24.000    3.8757
   24.015    3.9600
   24.030    3.7599
   24.045    3.9916
   24.060    4.0969
   24.075    4.3707
   24.090    3.9073
   24.105    4.1390
   24.120    4.0758
   24.135    4.0337
   24.150    4.0969
   24.165    3.7599
   24.180    3.8125
   24.195    4.1180
   24.210    3.9494
   24.225    4.0021
   24.240    4.2654
   24.255    4.0232
   24.270    4.0864
   24.285    4.2338
   24.300    4.0653
   24.315    3.8441
   24.330    3.8231
   24.345    3.9810
   24.360    4.0758
   24.375    3.9073
   24.390    3.8547
   24.405    4.1390
   24.420    4.0969
   24.435    4.0232
   24.450    4.0232
   24.465    3.8863
   24.480    3.9284
   24.495    3.9284
   24.510    4.1706
   24.525    3.8652
   24.540    3.7493
   24.555    3.8441
   24.570    3.8757
   24.585    4.1074
   24.600    4.1496
   24.615    4.0548
   24.630    4.0653
   24.645    4.2233
   24.660    3.8652
   24.675    3.9179
   24.690    4.2127
   24.705    4.2443
   24.720    4.1496
   24.735    3.8652
   24.750    3.9916
   24.765    3.6651
   24.780    3.6651
   24.795    4.4655
   24.810    4.2233
   24.825    3.8231
   24.840    3.7809
   24.855    3.8968
   24.870    4.1496
   24.885    3.8547
   24.900    3.8125
   24.915    3.8547
   24.930    4.0758
   24.945    3.6967
   24.960    3.6967
   24.975    4.1811
   24.990    4.1390
   25.005    4.1496
   25.020    3.9494
   25.035    3.9389
   25.050    4.0548
   25.065    4.0021
   25.080    3.6019
   25.095    3.7283
   25.110    3.8757
   25.125    3.8652
   25.140    3.7704
   25.155    3.6651
   25.170    3.7599
   25.185    4.2443
   25.200    4.3391
   25.215    3.8968
   25.230    3.9073
   25.245    3.9073
   25.260    3.9705
   25.275    3.8125
   25.290    3.6967
   25.305    3.8336
   25.320    3.7283
   25.335    3.7809
   25.350    3.6967
   25.365    3.6546
   25.380    3.7809
   25.395    4.2022
   25.410    3.6546
   25.425    3.6440
   25.440    3.7915
   25.455    3.7493
   25.470    4.1706
   25.485    4.0126
   25.500    3.7388
   25.515    3.7283
   25.530    3.9494
   25.545    4.0442
   25.560    3.9810
   25.575    4.1601
   25.590    4.2338
   25.605    3.8968
   25.620    4.0864
   25.635    3.8020
   25.650    3.7915
   25.665    3.8547
   25.680    3.7704
   25.695    3.6440
   25.710    3.7072
   25.725    4.1811
   25.740    3.8336
   25.755    4.0969
   25.770    3.9916
   25.785    4.1074
   25.800    4.5814
   25.815    4.2127
   25.830    4.3918
   25.845    4.3075
   25.860    4.2127
   25.875    4.2022
   25.890    4.0969
   25.905    3.8547
   25.920    3.8020
   25.935    3.8652
   25.950    3.5387
   25.965    3.7809
   25.980    3.8441
   25.995    3.5387
   26.010    3.9916
   26.025    3.9284
   26.040    3.8020
   26.055    3.7388
   26.070    3.8020
   26.085    3.8020
   26.100    3.6756
   26.115    3.6967
   26.130    3.3807
   26.145    3.7493
   26.160    3.9073
   26.175    3.7704
   26.190    3.9705
   26.205    3.8336
   26.220    3.8863
   26.235    3.4439
   26.250    3.5598
   26.265    3.7704
   26.280    3.8652
   26.295    3.7704
   26.310    3.4018
   26.325    3.7599
   26.340    3.7915
   26.355    3.8547
   26.370    3.7915
   26.385    3.7704
   26.400    3.7493
   26.415    3.8441
   26.430    3.9284
   26.445    3.8968
   26.460    4.0758
   26.475    3.8231
   26.490    3.6756
   26.505    3.9073
   26.520    3.9916
   26.535    3.9600
   26.550    3.6546
   26.565    3.6230
   26.580    3.7283
   26.595    3.8863
   26.610    3.8547
   26.625    3.7283
   26.640    3.6335
   26.655    3.6862
   26.670    3.3702
   26.685    3.8547
   26.700    3.7072
   26.715    3.6335
   26.730    3.5492
   26.745    3.3807
   26.760    3.8441
   26.775    3.6546
   26.790    3.8125
   26.805    3.7915
   26.820    3.5282
   26.835    3.3913
   26.850    3.6967
   26.865    3.7072
   26.880    3.8547
   26.895    3.7283
   26.910    3.8125
   26.925    4.0021
   26.940    3.8863
   26.955    3.7915
   26.970    3.9810
   26.985    3.9600
   27.000    3.7177
   27.015    3.4966
   27.030    3.8968
   27.045    3.8757
   27.060    3.8441
   27.075    3.6967
   27.090    3.7704
   27.105    3.4860
   27.120    3.4755
   27.135    3.4966
   27.150    3.7388
   27.165    3.4860
   27.180    3.5387
   27.195    3.5176
   27.210    3.4229
   27.225    3.8020
   27.240    3.4755
   27.255    3.5387
   27.270    3.6230
   27.285    3.4755
   27.300    3.5176
   27.315    3.7599
   27.330    3.4544
   27.345    3.6756
   27.360    3.6967
   27.375    3.6967
   27.390    3.5387
   27.405    3.5071
   27.420    3.6124
   27.435    3.6019
   27.450    3.5598
   27.465    3.5282
   27.480    3.5387
   27.495    3.8336
   27.510    3.7283
   27.525    3.6230
   27.540    4.0442
   27.555    3.6440
   27.570    3.6967
   27.585    3.4966
   27.600    3.5387
   27.615    3.8231
   27.630    3.7809
   27.645    3.7072
   27.660    3.8020
   27.675    3.7704
   27.690    3.4018
   27.705    3.5703
   27.720    3.5282
   27.735    3.4229
   27.750    3.3913
   27.765    3.7283
   27.780    3.4650
   27.795    3.6019
   27.810    3.6019
   27.825    3.6651
   27.840    3.7915
   27.855    3.7493
   27.870    3.5914
   27.885    3.4966
   27.900    3.6546
   27.915    3.5492
   27.930    3.7915
   27.945    3.7809
   27.960    3.7493
   27.975    3.8231
   27.990    3.7599
   28.005    3.5492
   28.020    3.6756
   28.035    3.4966
   28.050    3.7599
   28.065    3.8652
   28.080    3.7388
   28.095    3.6651
   28.110    3.8125
   28.125    3.7915
   28.140    3.9494
   28.155    3.6967
   28.170    3.6862
   28.185    3.9916
   28.200    4.1180
   28.215    3.7915
   28.230    3.5176
   28.245    3.5703
   28.260    3.8020
   28.275    3.7915
   28.290    3.7072
   28.305    3.5387
   28.320    3.4860
   28.335    3.5387
   28.350    3.6756
   28.365    3.7177
   28.380    3.8336
   28.395    3.6862
   28.410    3.6019
   28.425    3.4123
   28.440    3.6124
   28.455    3.7493
   28.470    3.5492
   28.485    3.6756
   28.500    3.8336
   28.515    3.7388
   28.530    3.3807
   28.545    3.8020
   28.560    3.6756
   28.575    3.4439
   28.590    3.7177
   28.605    3.6651
   28.620    3.3702
   28.635    3.6756
   28.650    3.8441
   28.665    3.4860
   28.680    3.8547
   28.695    3.6440
   28.710    3.7072
   28.725    3.4650
   28.740    3.5282
   28.755    3.4755
   28.770    3.5914
   28.785    3.4544
   28.800    3.5387
   28.815    3.4860
   28.830    3.8336
   28.845    3.5492
   28.860    3.5598
   28.875    3.3807
   28.890    3.5703
   28.905    3.2754
   28.920    3.4123
   28.935    3.5282
   28.950    3.6019
   28.965    3.5387
   28.980    3.4439
   28.995    3.6651
   29.010    3.8336
   29.025    3.9389
   29.040    3.9179
   29.055    3.6124
   29.070    3.4334
   29.085    3.2543
   29.100    3.4229
   29.115    3.3702
   29.130    3.4229
   29.145    3.5071
   29.160    3.3281
   29.175    3.4439
   29.190    3.3386
   29.205    3.3281
   29.220    3.4966
   29.235    3.4650
   29.250    3.6019
   29.265    3.3913
   29.280    3.5282
   29.295    3.3807
   29.310    3.5598
   29.325    3.4966
   29.340    3.5492
   29.355    3.6546
   29.370    3.4123
   29.385    3.5703
   29.400    3.5492
   29.415    3.2438
   29.430    3.6335
   29.445    3.6124
   29.460    3.1806
   29.475    3.3175
   29.490    3.3175
   29.505    3.2859
   29.520    3.4755
   29.535    3.4544
   29.550    3.6440
   29.565    3.5176
   29.580    3.1806
   29.595    3.2543
   29.610    3.7177
   29.625    3.3702
   29.640    3.3386
   29.655    3.1806
   29.670    3.3702
   29.685    3.4860
   29.700    3.4544
   29.715    3.4860
   29.730    3.4755
   29.745    3.6230
   29.760    3.4860
   29.775    3.5914
   29.790    3.5071
   29.805    3.5598
   29.820    3.2965
   29.835    3.2754
   29.850    3.1806
   29.865    3.4966
   29.880    3.5282
   29.895    3.3913
   29.910    3.4018
   29.925    3.4018
   29.940    3.4755
   29.955    3.4018
   29.970    3.5282
   29.985    3.4334
   30.000    3.5071
   30.015    3.3702
   30.030    3.6019
   30.045    3.4439
   30.060    3.2227
   30.075    3.1490
   30.090    3.6230
   30.105    3.7177
   30.120    3.6862
   30.135    3.8125
   30.150    3.4966
   30.165    3.3913
   30.180    3.3175
   30.195    3.4334
   30.210    3.2543
   30.225    3.4544
   30.240    3.6440
   30.255    3.5914
   30.270    3.3702
   30.285    3.3807
   30.300    3.0332
   30.315    3.3175
   30.330    3.2438
   30.345    3.1806
   30.360    3.3491
   30.375    3.3702
   30.390    3.3491
   30.405    3.5703
   30.420    3.4544
   30.435    3.6230
   30.450    3.3913
   30.465    3.5914
   30.480    3.8336
   30.495    3.3913
   30.510    3.1490
   30.525    3.4544
   30.540    3.4966
   30.555    3.6230
   30.570    3.4650
   30.585    3.3597
   30.600    3.2649
   30.615    3.3807
   30.630    3.4650
   30.645    3.4018
   30.660    3.4018
   30.675    3.4860
   30.690    3.1174
   30.705    3.2965
   30.720    3.4334
   30.735    3.7493
   30.750    3.4755
   30.765    3.2438
   30.780    3.2017
   30.795    2.9700
   30.810    3.2649
   30.825    3.4439
   30.840    3.2227
   30.855    3.3386
   30.870    3.3281
   30.885    3.3702
   30.900    3.0648
   30.915    3.6230
   30.930    3.4650
   30.945    3.1912
   30.960    3.4650
   30.975    3.5598
   30.990    3.5071
   31.005    3.3702
   31.020    3.4334
   31.035    3.2333
   31.050    3.1174
   31.065    2.9805
   31.080    3.4229
   31.095    3.3070
   31.110    3.3175
   31.125    3.5598
   31.140    3.4860
   31.155    3.4018
   31.170    3.3702
   31.185    3.2122
   31.200    3.3597
   31.215    3.1069
   31.230    3.2122
   31.245    3.2965
   31.260    3.4018
   31.275    3.4650
   31.290    3.4439
   31.305    3.0542
   31.320    3.3702
   31.335    3.2859
   31.350    3.0121
   31.365    3.5071
   31.380    3.3070
   31.395    3.3702
   31.410    3.2333
   31.425    3.1701
   31.440    3.2754
   31.455    3.3386
   31.470    3.3597
   31.485    3.4123
   31.500    3.6124
   31.515    3.3070
   31.530    3.1701
   31.545    3.3807
   31.560    3.6230
   31.575    3.3175
   31.590    3.3386
   31.605    3.4650
   31.620    3.2859
   31.635    3.4755
   31.650    3.1596
   31.665    2.9384
   31.680    3.0964
   31.695    3.2859
   31.710    3.6756
   31.725    3.4860
   31.740    3.5703
   31.755    3.4439
   31.770    3.8441
   31.785    3.6440
   31.800    3.4966
   31.815    3.5282
   31.830    3.1912
   31.845    3.4544
   31.860    3.2859
   31.875    3.3175
   31.890    3.4123
   31.905    3.3491
   31.920    3.1490
   31.935    3.0437
   31.950    3.1385
   31.965    3.2122
   31.980    3.2122
   31.995    3.2859
   32.010    3.3702
   32.025    3.2227
   32.040    2.9068
   32.055    3.1174
   32.070    3.2754
   32.085    3.1069
   32.100    3.5492
   32.115    3.2754
   32.130    3.1912
   32.145    3.0542
   32.160    3.4123
   32.175    3.4229
   32.190    3.4334
   32.205    3.4860
   32.220    3.3807
   32.235    3.2438
   32.250    3.2859
   32.265    3.3386
   32.280    3.2754
   32.295    3.3702
   32.310    3.6124
   32.325    3.4229
   32.340    3.2543
   32.355    3.5176
   32.370    3.5071
   32.385    3.4229
   32.400    3.2333
   32.415    3.1069
   32.430    3.2227
   32.445    2.9489
   32.460    3.2649
   32.475    3.2543
   32.490    3.3281
   32.505    3.1385
   32.520    3.3175
   32.535    3.2859
   32.550    3.2859
   32.565    3.3281
   32.580    3.2754
   32.595    3.4334
   32.610    3.1806
   32.625    3.1596
   32.640    3.0226
   32.655    3.0753
   32.670    3.2859
   32.685    3.0858
   32.700    3.2333
   32.715    3.4018
   32.730    3.3702
   32.745    3.1912
   32.760    3.3807
   32.775    3.2227
   32.790    3.4229
   32.805    3.2438
   32.820    3.3491
   32.835    3.2438
   32.850    3.2754
   32.865    3.2122
   32.880    3.4650
   32.895    3.4860
   32.910    3.2227
   32.925    3.1174
   32.940    3.1806
   32.955    3.3491
   32.970    3.3597
   32.985    3.3702
   33.000    3.2543
   33.015    3.1912
   33.030    3.3175
   33.045    3.3175
   33.060    3.1806
   33.075    3.0332
   33.090    2.9910
   33.105    3.3070
   33.120    3.2859
   33.135    3.1701
   33.150    3.2859
   33.165    3.0542
   33.180    2.9489
   33.195    3.1490
   33.210    3.0648
   33.225    3.1385
   33.240    3.3281
   33.255    3.0648
   33.270    2.9910
   33.285    2.9384
   33.300    3.0226
   33.315    3.1385
   33.330    3.1806
   33.345    3.1806
   33.360    3.1806
   33.375    3.3702
   33.390    3.2754
   33.405    3.0964
   33.420    3.0542
   33.435    3.0437
   33.450    2.9910
   33.465    2.9595
   33.480    2.9068
   33.495    3.3175
   33.510    3.0753
   33.525    3.2438
   33.540    3.0964
   33.555    2.8541
   33.570    3.0964
   33.585    3.1490
   33.600    3.0964
   33.615    3.0121
   33.630    3.0226
   33.645    3.4229
   33.660    3.2543
   33.675    3.0964
   33.690    3.0016
   33.705    3.2859
   33.720    3.0437
   33.735    3.2122
   33.750    3.2859
   33.765    3.0964
   33.780    3.0437
   33.795    3.0858
   33.810    3.3807
   33.825    3.4018
   33.840    3.0753
   33.855    2.9700
   33.870    3.1596
   33.885    3.0332
   33.900    2.9700
   33.915    3.0121
   33.930    2.9700
   33.945    3.0226
   33.960    3.0016
   33.975    3.1174
   33.990    3.1701
   34.005    3.2438
   34.020    2.9384
   34.035    2.8120
   34.050    2.8541
   34.065    3.0016
   34.080    3.2227
   34.095    3.1174
   34.110    2.8541
   34.125    3.2649
   34.140    3.0437
   34.155    3.1174
   34.170    2.9279
   34.185    3.0753
   34.200    3.2227
   34.215    3.3702
   34.230    3.1069
   34.245    3.0016
   34.260    2.9489
   34.275    3.1806
   34.290    3.0332
   34.305    3.1069
   34.320    2.9384
   34.335    3.1280
   34.350    3.2859
   34.365    2.9595
   34.380    3.0858
   34.395    3.2227
   34.410    3.0016
   34.425    2.9279
   34.440    2.9384
   34.455    2.8647
   34.470    3.0437
   34.485    3.0858
   34.500    3.0648
   34.515    3.3386
   34.530    3.0858
   34.545    2.9384
   34.560    3.2227
   34.575    2.9700
   34.590    3.0753
   34.605    3.0121
   34.620    2.8857
   34.635    2.9279
   34.650    2.9700
   34.665    3.0542
   34.680    2.8647
   34.695    2.9595
   34.710    2.9595
   34.725    3.2649
   34.740    3.0016
   34.755    2.8752
   34.770    3.3175
   34.785    3.2017
   34.800    2.9384
   34.815    2.9068
   34.830    3.0121
   34.845    3.3807
   34.860    3.1280
   34.875    2.7488
   34.890    3.1701
   34.905    3.1174
   34.920    2.9700
   34.935    3.1174
   34.950    2.9173
   34.965    2.8752
   34.980    3.1806
   34.995    3.0648
   35.010    2.7067
   35.025    2.9489
   35.040    3.0332
   35.055    3.0121
   35.070    3.0964
   35.085    2.9173
   35.100    3.1596
   35.115    3.1701
   35.130    3.1174
   35.145    3.3491
   35.160    3.2543
   35.175    3.0753
   35.190    2.8752
   35.205    2.8436
   35.220    2.9384
   35.235    3.0016
   35.250    3.2122
   35.265    3.1069
   35.280    3.1385
   35.295    3.2017
   35.310    2.9595
   35.325    3.0648
   35.340    3.1174
   35.355    3.2965
   35.370    3.2333
   35.385    3.0437
   35.400    3.0437
   35.415    3.1069
   35.430    3.1385
   35.445    3.1596
   35.460    3.2333
   35.475    3.1385
   35.490    2.9068
   35.505    2.9489
   35.520    2.8963
   35.535    2.8752
   35.550    2.9068
   35.565    3.0226
   35.580    3.1490
   35.595    2.7593
   35.610    2.9910
   35.625    3.2438
   35.640    2.8752
   35.655    2.9068
   35.670    3.0437
   35.685    2.8225
   35.700    3.0753
   35.715    3.0226
   35.730    3.0648
   35.745    2.8225
   35.760    2.7804
   35.775    3.0121
   35.790    2.9595
   35.805    2.7804
   35.820    2.9068
   35.835    3.3491
   35.850    3.1174
   35.865    2.8647
   35.880    3.0858
   35.895    3.0648
   35.910    3.0437
   35.925    3.4229
   35.940    3.0858
   35.955    3.0964
   35.970    2.7383
   35.985    2.8963
   36.000    2.7593
   36.015    2.9279
   36.030    2.9173
   36.045    2.8541
   36.060    2.9910
   36.075    3.1701
   36.090    2.9384
   36.105    2.9068
   36.120    2.9910
   36.135    3.0437
   36.150    2.9173
   36.165    3.0437
   36.180    2.9805
   36.195    2.9173
   36.210    2.7909
   36.225    3.0648
   36.240    2.9805
   36.255    3.0016
   36.270    3.1701
   36.285    2.9910
   36.300    2.7383
   36.315    2.9068
   36.330    2.7699
   36.345    2.7067
   36.360    2.8963
   36.375    3.0964
   36.390    3.2017
   36.405    2.8857
   36.420    3.0016
   36.435    2.9910
   36.450    2.9910
   36.465    3.0016
   36.480    2.7593
   36.495    2.8541
   36.510    2.9489
   36.525    3.0753
   36.540    3.0016
   36.555    3.0016
   36.570    3.0437
   36.585    2.9173
   36.600    3.1069
   36.615    3.1806
   36.630    2.9805
   36.645    2.9068
   36.660    3.0226
   36.675    3.3807
   36.690    3.0858
   36.705    2.9384
   36.720    3.0437
   36.735    2.8857
   36.750    2.6435
   36.765    2.9068
   36.780    3.0437
   36.795    2.8225
   36.810    2.9595
   36.825    2.7804
   36.840    2.9910
   36.855    3.0016
   36.870    2.9068
   36.885    2.8331
   36.900    2.8015
   36.915    2.8752
   36.930    3.1069
   36.945    3.1912
   36.960    2.8857
   36.975    2.8120
   36.990    2.5803
   37.005    2.8752
   37.020    2.9173
   37.035    2.8541
   37.050    3.2227
   37.065    2.9068
   37.080    2.8752
   37.095    2.7909
   37.110    3.1596
   37.125    2.8752
   37.140    3.1069
   37.155    3.0437
   37.170    2.8015
   37.185    2.8436
   37.200    2.7804
   37.215    3.1490
   37.230    2.8436
   37.245    3.0648
   37.260    2.9384
   37.275    2.8647
   37.290    3.0226
   37.305    2.9910
   37.320    3.0964
   37.335    3.0016
   37.350    2.8436
   37.365    2.9384
   37.380    3.0858
   37.395    2.9700
   37.410    3.0964
   37.425    2.8541
   37.440    2.8015
   37.455    2.7593
   37.470    2.9279
   37.485    2.9384
   37.500    3.0226
   37.515    2.8225
   37.530    2.9068
   37.545    2.9489
   37.560    3.0753
   37.575    3.0121
   37.590    2.9489
   37.605    2.8436
   37.620    2.9279
   37.635    2.7804
   37.650    2.6119
   37.665    2.7278
   37.680    2.9068
   37.695    2.8647
   37.710    2.8963
   37.725    3.0016
   37.740    2.9279
   37.755    2.8963
   37.770    2.7699
   37.785    2.9489
   37.800    2.8541
   37.815    2.8752
   37.830    2.8647
   37.845    2.9173
   37.860    2.8752
   37.875    2.7593
   37.890    2.7067
   37.905    2.9384
   37.920    2.8752
   37.935    3.0437
   37.950    3.0753
   37.965    3.1280
   37.980    2.9173
   37.995    2.8963
   38.010    2.9279
   38.025    2.7699
   38.040    2.9173
   38.055    3.0016
   38.070    3.0016
   38.085    2.8752
   38.100    3.0332
   38.115    3.0226
   38.130    2.8015
   38.145    2.7488
   38.160    2.6856
   38.175    2.9173
   38.190    2.8120
   38.205    2.8015
   38.220    2.8857
   38.235    2.8541
   38.250    3.1912
   38.265    3.2859
   38.280    2.9279
   38.295    2.7593
   38.310    2.8331
   38.325    2.9068
   38.340    2.8963
   38.355    2.9805
   38.370    2.9489
   38.385    2.8647
   38.400    2.9805
   38.415    2.9384
   38.430    2.8436
   38.445    2.9805
   38.460    3.0437
   38.475    2.6962
   38.490    2.8963
   38.505    2.6751
   38.520    2.7699
   38.535    2.8541
   38.550    2.8436
   38.565    2.7909
   38.580    2.7278
   38.595    2.8752
   38.610    2.9068
   38.625    2.8015
   38.640    2.7383
   38.655    2.9595
   38.670    2.8963
   38.685    2.7278
   38.700    2.9384
   38.715    2.9910
   38.730    2.8647
   38.745    2.8963
   38.760    2.9489
   38.775    2.8015
   38.790    2.9384
   38.805    2.5908
   38.820    2.7488
   38.835    2.8436
   38.850    2.9595
   38.865    2.9068
   38.880    2.8857
   38.895    2.9805
   38.910    3.0437
   38.925    2.8120
   38.940    2.6856
   38.955    2.8541
   38.970    2.9805
   38.985    2.8120
   39.000    2.6646
   39.015    2.7067
   39.030    2.9384
   39.045    2.7383
   39.060    2.9068
   39.075    3.0437
   39.090    2.9279
   39.105    2.7593
   39.120    2.7699
   39.135    2.8541
   39.150    2.6856
   39.165    2.8541
   39.180    2.9068
   39.195    2.9384
   39.210    2.7593
   39.225    2.9384
   39.240    2.8752
   39.255    2.7593
   39.270    2.9068
   39.285    2.9700
   39.300    2.8436
   39.315    2.7909
   39.330    2.8120
   39.345    2.8541
   39.360    2.9489
   39.375    2.8857
   39.390    2.9700
   39.405    3.0332
   39.420    2.7383
   39.435    2.8225
   39.450    2.8752
   39.465    2.6646
   39.480    2.7488
   39.495    2.6962
   39.510    2.9805
   39.525    2.7488
   39.540    2.6962
   39.555    2.7909
   39.570    2.8015
   39.585    2.9700
   39.600    3.0858
   39.615    3.1174
   39.630    2.9700
   39.645    2.9384
   39.660    2.8436
   39.675    2.8120
   39.690    2.6646
   39.705    2.5803
   39.720    2.7172
   39.735    2.9068
   39.750    2.7804
   39.765    2.9805
   39.780    3.2122
   39.795    3.0542
   39.810    2.6540
   39.825    3.0016
   39.840    2.7278
   39.855    2.5698
   39.870    2.8225
   39.885    2.8331
   39.900    2.9279
   39.915    2.9805
   39.930    2.7804
   39.945    2.6540
   39.960    2.7067
   39.975    2.6119
   39.990    2.6856
