    1.500    3.3526
    1.515    3.3175
    1.530    3.4053
    1.545    3.0718
    1.560    3.2122
    1.575    3.0016
    1.590    3.0016
    1.605    2.8612
    1.620    2.9489
    1.635    2.9138
    1.650    2.6505
    1.665    2.8787
    1.680    2.4223
    1.695    2.7734
    1.710    2.8787
    1.725    3.0367
    1.740    2.6154
    1.755    2.5979
    1.770    2.6681
    1.785    2.6505
    1.800    2.7207
    1.815    2.4925
    1.830    2.6154
    1.845    2.7383
    1.860    2.7734
    1.875    2.7909
    1.890    2.8085
    1.905    2.9840
    1.920    2.7032
    1.935    2.5101
    1.950    2.4399
    1.965    2.4750
    1.980    2.5452
    1.995    2.3170
    2.010    2.1415
    2.025    2.2468
    2.040    2.5979
    2.055    2.4223
    2.070    2.5276
    2.085    2.5803
    2.100    2.4399
    2.115    2.5276
    2.130    2.5628
    2.145    2.6154
    2.160    2.4750
    2.175    2.5452
    2.190    2.3521
    2.205    2.3521
    2.220    2.5101
    2.235    2.3521
    2.250    2.3346
    2.265    2.4399
    2.280    2.4048
    2.295    2.1064
    2.310    2.5101
    2.325    2.6505
    2.340    2.4574
    2.355    2.4048
    2.370    2.5979
    2.385    2.3346
    2.400    2.2995
    2.415    2.3521
    2.430    2.1590
    2.445    2.2643
    2.460    2.2468
    2.475    2.1941
    2.490    2.1239
    2.505    2.1766
    2.520    2.1415
    2.535    2.3697
    2.550    2.3170
    2.565    2.1064
    2.580    2.2292
    2.595    2.4223
    2.610    2.1415
    2.625    2.2117
    2.640    2.4048
    2.655    2.2292
    2.670    2.1941
    2.685    1.9308
    2.700    2.0186
    2.715    2.1415
    2.730    2.0537
    2.745    2.2995
    2.760    2.4048
    2.775    2.3521
    2.790    2.1064
    2.805    1.9835
    2.820    2.0186
    2.835    2.1064
    2.850    2.3170
    2.865    2.0888
    2.880    1.8255
    2.895    2.0888
    2.910    2.2292
    2.925    1.9659
    2.940    2.1415
    2.955    2.2468
    2.970    2.3872
    2.985    2.3872
    3.000    2.3170
    3.015    1.8080
    3.030    2.0362
    3.045    2.0888
    3.060    2.1239
    3.075    2.1239
    3.090    2.2292
    3.105    2.2819
    3.120    2.1941
    3.135    1.8782
    3.150    2.0362
    3.165    1.9308
    3.180    2.1415
    3.195    2.0362
    3.210    2.1415
    3.225    2.2643
    3.240    2.1766
    3.255    2.0713
    3.270    2.0362
    3.285    2.1590
    3.300    2.0011
    3.315    1.8606
    3.330    2.2468
    3.345    2.3521
    3.360    1.9835
    3.375    2.1064
    3.390    2.4048
    3.405    2.2995
    3.420    2.1415
    3.435    1.8957
    3.450    2.1941
    3.465    2.2117
    3.480    1.8255
    3.495    2.1064
    3.510    2.1941
    3.525    2.0537
    3.540    2.1590
    3.555    2.2117
    3.570    2.0713
    3.585    1.9835
    3.600    1.8255
    3.615    2.0362
    3.630    2.0011
    3.645    2.1064
    3.660    1.8957
    3.675    2.2117
    3.690    2.2643
    3.705    2.0713
    3.720    2.0011
    3.735    1.9659
    3.750    2.3170
    3.765    2.1941
    3.780    2.1415
    3.795    1.9484
    3.810    2.1766
    3.825    2.2995
    3.840    2.0537
    3.855    2.4223
    3.870    2.0888
    3.885    2.2117
    3.900    2.1941
    3.915    2.2117
    3.930    2.1239
    3.945    1.7904
    3.960    2.0186
    3.975    1.9484
    3.990    2.1064
    4.005    1.8255
    4.020    1.7378
    4.035    1.9835
    4.050    1.9484
    4.065    2.2819
    4.080    2.0362
    4.095    1.9835
    4.110    2.3170
    4.125    2.1941
    4.140    1.8957
    4.155    1.8606
    4.170    1.9133
    4.185    2.0011
    4.200    1.9133
    4.215    2.0011
    4.230    2.1590
    4.245    1.8957
    4.260    1.7904
    4.275    2.3521
    4.290    2.0888
    4.305    2.2117
    4.320    1.9308
    4.335    2.0888
    4.350    2.2117
    4.365    1.9484
    4.380    2.0713
    4.395    2.6154
    4.410    2.1590
    4.425    2.1941
    4.440    2.3170
    4.455    2.1590
    4.470    2.4750
    4.485    2.4223
    4.500    2.5101
    4.515    2.1239
    4.530    2.0362
    4.545    2.3346
    4.560    2.2995
    4.575    2.0888
    4.590    2.0713
    4.605    2.1415
    4.620    1.9659
    4.635    1.9835
    4.650    2.2292
    4.665    2.1415
    4.680    2.0713
    4.695    2.5276
    4.710    2.3170
    4.725    2.0888
    4.740    2.3697
    4.755    2.2643
    4.770    2.3872
    4.785    2.3697
    4.800    2.3346
    4.815    2.1766
    4.830    2.2819
    4.845    2.2819
    4.860    2.1239
    4.875    2.1064
    4.890    2.5979
    4.905    2.4048
    4.920    2.3346
    4.935    2.1766
    4.950    2.2819
    4.965    2.3872
    4.980    2.3346
    4.995    2.6330
    5.010    2.5276
    5.025    2.2995
    5.040    2.4399
    5.055    2.3872
    5.070    2.6330
    5.085    2.3697
    5.100    2.2117
    5.115    2.3872
    5.130    2.5101
    5.145    2.5101
    5.160    2.8085
    5.175    2.5979
    5.190    2.4750
    5.205    2.7207
    5.220    2.5276
    5.235    2.5101
    5.250    2.6505
    5.265    2.9840
    5.280    2.6154
    5.295    2.8436
    5.310    2.7909
    5.325    2.9489
    5.340    3.0542
    5.355    3.0016
    5.370    2.7734
    5.385    2.8787
    5.400    2.8085
    5.415    3.1596
    5.430    3.1245
    5.445    2.7734
    5.460    2.5101
    5.475    2.8612
    5.490    3.0542
    5.505    2.9665
    5.520    3.0367
    5.535    2.8963
    5.550    3.0191
    5.565    2.7909
    5.580    2.5628
    5.595    2.7558
    5.610    2.9314
    5.625    3.0367
    5.640    2.9840
    5.655    2.8085
    5.670    2.6681
    5.685    2.8612
    5.700    2.9138
    5.715    2.5628
    5.730    2.8436
    5.745    2.5628
    5.760    3.0367
    5.775    2.7207
    5.790    2.1064
    5.805    2.0186
    5.820    2.5803
    5.835    2.4223
    5.850    2.5276
    5.865    2.4399
    5.880    2.3521
    5.895    2.3872
    5.910    2.2819
    5.925    2.6681
    5.940    2.4223
    5.955    2.3872
    5.970    2.4750
    5.985    2.1590
    6.000    2.2643
    6.015    2.4399
    6.030    2.5276
    6.045    2.3521
    6.060    2.1766
    6.075    2.1239
    6.090    2.2117
    6.105    2.4750
    6.120    2.1415
    6.135    2.0888
    6.150    2.3521
    6.165    2.2643
    6.180    1.9308
    6.195    2.1766
    6.210    2.0186
    6.225    2.0186
    6.240    2.2292
    6.255    2.0186
    6.270    1.8431
    6.285    2.1064
    6.300    2.2468
    6.315    2.1415
    6.330    1.9308
    6.345    1.9308
    6.360    2.0888
    6.375    2.2117
    6.390    1.8957
    6.405    1.9835
    6.420    1.9835
    6.435    2.0537
    6.450    1.9835
    6.465    1.9133
    6.480    2.1941
    6.495    2.0713
    6.510    1.9133
    6.525    2.1064
    6.540    1.9835
    6.555    1.9484
    6.570    2.2468
    6.585    2.0537
    6.600    2.0537
    6.615    2.0186
    6.630    1.8957
    6.645    1.9308
    6.660    1.9659
    6.675    1.8957
    6.690    1.8782
    6.705    1.8431
    6.720    1.8957
    6.735    1.6324
    6.750    1.6675
    6.765    1.9484
    6.780    2.1064
    6.795    1.9133
    6.810    1.8606
    6.825    1.6500
    6.840    1.6851
    6.855    1.6149
    6.870    1.6851
    6.885    1.9835
    6.900    1.9484
    6.915    1.9835
    6.930    1.5798
    6.945    1.5271
    6.960    1.8957
    6.975    1.6675
    6.990    1.9133
    7.005    1.7553
    7.020    1.5973
    7.035    1.6500
    7.050    1.8255
    7.065    1.8080
    7.080    1.7904
    7.095    1.7378
    7.110    1.9484
    7.125    1.7904
    7.140    1.4745
    7.155    1.7904
    7.170    1.6149
    7.185    1.5447
    7.200    1.5271
    7.215    1.9484
    7.230    1.8782
    7.245    1.5447
    7.260    1.7729
    7.275    1.6149
    7.290    1.3867
    7.305    1.4042
    7.320    1.6324
    7.335    1.6500
    7.350    1.7553
    7.365    1.6851
    7.380    1.5447
    7.395    1.4042
    7.410    1.2638
    7.425    1.6500
    7.440    1.7202
    7.455    1.5798
    7.470    1.5798
    7.485    1.5798
    7.500    1.7027
    7.515    1.4042
    7.530    1.3691
    7.545    1.4745
    7.560    1.3340
    7.575    1.5447
    7.590    1.4745
    7.605    1.5798
    7.620    1.2287
    7.635    1.5271
    7.650    1.4218
    7.665    1.6500
    7.680    1.2989
    7.695    1.0707
    7.710    1.6149
    7.725    1.3165
    7.740    1.4745
    7.755    1.3340
    7.770    1.2287
    7.785    1.0883
    7.800    1.3340
    7.815    1.2112
    7.830    1.1234
    7.845    1.1936
    7.860    1.2287
    7.875    1.4569
    7.890    1.5798
    7.905    1.3340
    7.920    1.3691
    7.935    1.3340
    7.950    1.5622
    7.965    1.4745
    7.980    1.3691
    7.995    1.4218
    8.010    1.3340
    8.025    1.2463
    8.040    1.3691
    8.055    1.3691
    8.070    1.2989
    8.085    1.4394
    8.100    1.2287
    8.115    1.1234
    8.130    1.1234
    8.145    1.1410
    8.160    1.2638
    8.175    1.4394
    8.190    1.6149
    8.205    1.4920
    8.220    1.1234
    8.235    1.3340
    8.250    1.3516
    8.265    1.3691
    8.280    1.2463
    8.295    1.3867
    8.310    1.3691
    8.325    1.3516
    8.340    1.4920
    8.355    1.1410
    8.370    1.3516
    8.385    1.4745
    8.400    1.4745
    8.415    1.4042
    8.430    1.3691
    8.445    1.4745
    8.460    1.1936
    8.475    1.3516
    8.490    1.4042
    8.505    1.3691
    8.520    1.6500
    8.535    1.2287
    8.550    1.1936
    8.565    1.3691
    8.580    1.3867
    8.595    1.3165
    8.610    1.2814
    8.625    1.3165
    8.640    1.0181
    8.655    1.1761
    8.670    1.2638
    8.685    1.1936
    8.700    1.3165
    8.715    1.3165
    8.730    1.2989
    8.745    1.2463
    8.760    1.4218
    8.775    1.4042
    8.790    1.4569
    8.805    1.4218
    8.820    1.1234
    8.835    1.1410
    8.850    1.1936
    8.865    1.2814
    8.880    1.2287
    8.895    1.1410
    8.910    1.2638
    8.925    1.1058
    8.940    1.4218
    8.955    1.2638
    8.970    1.2814
    8.985    1.2814
    9.000    1.1761
    9.015    1.4394
    9.030    1.2989
    9.045    1.1585
    9.060    1.1936
    9.075    1.1058
    9.090    1.3867
    9.105    1.2989
    9.120    1.1058
    9.135    1.1410
    9.150    1.0181
    9.165    1.2989
    9.180    1.5622
    9.195    1.3691
    9.210    1.2287
    9.225    1.2287
    9.240    1.0707
    9.255    1.0181
    9.270    1.1761
    9.285    1.2287
    9.300    1.3165
    9.315    1.0532
    9.330    1.1936
    9.345    1.1585
    9.360    1.1058
    9.375    1.1761
    9.390    1.4745
    9.405    1.3516
    9.420    1.0707
    9.435    1.2463
    9.450    1.1410
    9.465    1.1410
    9.480    0.9830
    9.495    1.0005
    9.510    1.2463
    9.525    1.0181
    9.540    1.1234
    9.555    1.1410
    9.570    1.1761
    9.585    1.1234
    9.600    1.2463
    9.615    1.2112
    9.630    1.1585
    9.645    1.2989
    9.660    1.2989
    9.675    1.1585
    9.690    1.2463
    9.705    1.1410
    9.720    1.2638
    9.735    1.2989
    9.750    1.4920
    9.765    1.2463
    9.780    1.1410
    9.795    1.0883
    9.810    1.0707
    9.825    1.0532
    9.840    1.1585
    9.855    1.4394
    9.870    1.3516
    9.885    1.2463
    9.900    1.1761
    9.915    1.3516
    9.930    1.1410
    9.945    1.1936
    9.960    1.0707
    9.975    1.0707
    9.990    1.2112
   10.005    1.1761
   10.020    1.1585
   10.035    1.1761
   10.050    1.2814
   10.065    1.1234
   10.080    1.1585
   10.095    1.1234
   10.110    1.2463
   10.125    1.1585
   10.140    1.2112
   10.155    1.1234
   10.170    1.2463
   10.185    1.1410
   10.200    1.2112
   10.215    1.0883
   10.230    1.2112
   10.245    1.1234
   10.260    1.2287
   10.275    1.3165
   10.290    1.2989
   10.305    1.0181
   10.320    1.1585
   10.335    1.2638
   10.350    1.1410
   10.365    1.1234
   10.380    1.1761
   10.395    1.3691
   10.410    1.4745
   10.425    1.3165
   10.440    1.3340
   10.455    1.2463
   10.470    1.1761
   10.485    1.1585
   10.500    1.1936
   10.515    1.2112
   10.530    1.3165
   10.545    1.3691
   10.560    1.2638
   10.575    1.2814
   10.590    1.3516
   10.605    1.4569
   10.620    1.4920
   10.635    1.2112
   10.650    1.2814
   10.665    1.3691
   10.680    1.3691
   10.695    1.0883
   10.710    1.1761
   10.725    1.2463
   10.740    1.5096
   10.755    1.3867
   10.770    1.3691
   10.785    1.2989
   10.800    1.3165
   10.815    1.3516
   10.830    1.1761
   10.845    1.1936
   10.860    1.0532
   10.875    1.3691
   10.890    1.2287
   10.905    1.1761
   10.920    1.0532
   10.935    1.2638
   10.950    1.2287
   10.965    1.4218
   10.980    1.1234
   10.995    1.3340
   11.010    1.3867
   11.025    1.4569
   11.040    1.4745
   11.055    1.1936
   11.070    1.2814
   11.085    1.2989
   11.100    1.7202
   11.115    1.3867
   11.130    1.2814
   11.145    1.3867
   11.160    1.3691
   11.175    1.2638
   11.190    1.4920
   11.205    1.4042
   11.220    1.1410
   11.235    1.2463
   11.250    1.2638
   11.265    1.1234
   11.280    1.2814
   11.295    1.4569
   11.310    1.5271
   11.325    1.5096
   11.340    1.3691
   11.355    1.2638
   11.370    1.2463
   11.385    1.2112
   11.400    1.1761
   11.415    1.4042
   11.430    1.3691
   11.445    1.3516
   11.460    1.2989
   11.475    1.2287
   11.490    1.2638
   11.505    1.1936
   11.520    1.0356
   11.535    1.4218
   11.550    1.2112
   11.565    1.3516
   11.580    1.2814
   11.595    1.2112
   11.610    1.2814
   11.625    1.3165
   11.640    1.3516
   11.655    1.1234
   11.670    0.9303
   11.685    1.1936
   11.700    1.2638
   11.715    1.1058
   11.730    1.2638
   11.745    1.4218
   11.760    1.1410
   11.775    1.3691
   11.790    1.1058
   11.805    1.1410
   11.820    1.1936
   11.835    1.2463
   11.850    1.3340
   11.865    1.2989
   11.880    1.3165
   11.895    1.2112
   11.910    1.1410
   11.925    1.2989
   11.940    1.1585
   11.955    1.2112
   11.970    1.4218
   11.985    1.4745
   12.000    1.1936
   12.015    1.2287
   12.030    1.2814
   12.045    1.1410
   12.060    1.4920
   12.075    1.4394
   12.090    1.3165
   12.105    1.2638
   12.120    1.2463
   12.135    1.2463
   12.150    1.3165
   12.165    1.1234
   12.180    1.1936
   12.195    1.1936
   12.210    1.3516
   12.225    1.3340
   12.240    1.3340
   12.255    1.1585
   12.270    1.2989
   12.285    1.4920
   12.300    1.0707
   12.315    1.1936
   12.330    1.1234
   12.345    0.9654
   12.360    1.1058
   12.375    1.0883
   12.390    1.1761
   12.405    1.2463
   12.420    1.1936
   12.435    1.4394
   12.450    1.1761
   12.465    1.3165
   12.480    1.1058
   12.495    1.1058
   12.510    1.1410
   12.525    1.1234
   12.540    1.2463
   12.555    1.2638
   12.570    1.1410
   12.585    1.0707
   12.600    1.1936
   12.615    1.2463
   12.630    1.4394
   12.645    1.1761
   12.660    1.0707
   12.675    1.1936
   12.690    1.0356
   12.705    1.2287
   12.720    1.3340
   12.735    1.4394
   12.750    1.1058
   12.765    1.0005
   12.780    1.3516
   12.795    1.3516
   12.810    1.2112
   12.825    1.2287
   12.840    1.0883
   12.855    1.1936
   12.870    1.1585
   12.885    1.1761
   12.900    1.2814
   12.915    1.2638
   12.930    1.2112
   12.945    1.2287
   12.960    1.3340
   12.975    1.2463
   12.990    1.1936
   13.005    1.1234
   13.020    1.2287
   13.035    1.1058
   13.050    1.0005
   13.065    1.1410
   13.080    1.2287
   13.095    1.2463
   13.110    1.1058
   13.125    1.2287
   13.140    1.4042
   13.155    1.2463
   13.170    1.1234
   13.185    1.1234
   13.200    1.0883
   13.215    1.1410
   13.230    1.1410
   13.245    1.0356
   13.260    1.2287
   13.275    1.1410
   13.290    1.1761
   13.305    1.2989
   13.320    1.2814
   13.335    1.1936
   13.350    0.9830
   13.365    1.2814
   13.380    1.4042
   13.395    1.2814
   13.410    1.1058
   13.425    1.0707
   13.440    1.0181
   13.455    1.1058
   13.470    1.1585
   13.485    1.1234
   13.500    1.2638
   13.515    1.1585
   13.530    1.3516
   13.545    1.3340
   13.560    0.9830
   13.575    1.1410
   13.590    1.2463
   13.605    1.3691
   13.620    1.2112
   13.635    1.2989
   13.650    1.5973
   13.665    1.3165
   13.680    1.3340
   13.695    1.1761
   13.710    1.1410
   13.725    1.1410
   13.740    1.2463
   13.755    1.2463
   13.770    1.2287
   13.785    1.0883
   13.800    1.1058
   13.815    1.1234
   13.830    1.1585
   13.845    1.2814
   13.860    1.5096
   13.875    1.2989
   13.890    1.1410
   13.905    1.5447
   13.920    1.3867
   13.935    1.3691
   13.950    1.1410
   13.965    1.1234
   13.980    1.1410
   13.995    1.1761
   14.010    1.1410
   14.025    1.1585
   14.040    1.1410
   14.055    1.2638
   14.070    1.3516
   14.085    1.2989
   14.100    1.0532
   14.115    1.0532
   14.130    1.0532
   14.145    1.1058
   14.160    1.2814
   14.175    1.2638
   14.190    1.3691
   14.205    1.2463
   14.220    1.3867
   14.235    1.3516
   14.250    1.3691
   14.265    1.3867
   14.280    1.3867
   14.295    1.2638
   14.310    1.3165
   14.325    1.5271
   14.340    1.3867
   14.355    1.5622
   14.370    1.4394
   14.385    1.3516
   14.400    1.3516
   14.415    1.3165
   14.430    1.4218
   14.445    1.2989
   14.460    1.3516
   14.475    1.3691
   14.490    1.4042
   14.505    1.3867
   14.520    1.3691
   14.535    1.4042
   14.550    1.4394
   14.565    1.3516
   14.580    1.3340
   14.595    1.3867
   14.610    1.2638
   14.625    1.0707
   14.640    1.1761
   14.655    1.0883
   14.670    1.1761
   14.685    1.1585
   14.700    1.3165
   14.715    1.3516
   14.730    1.2287
   14.745    1.3340
   14.760    1.3516
   14.775    1.3691
   14.790    1.2287
   14.805    1.3165
   14.820    1.2989
   14.835    1.3165
   14.850    1.2638
   14.865    1.3867
   14.880    1.4218
   14.895    1.4218
   14.910    1.1058
   14.925    1.1936
   14.940    1.3691
   14.955    1.0532
   14.970    1.0707
   14.985    1.1410
   15.000    1.2463
   15.015    1.3165
   15.030    1.1410
   15.045    1.2814
   15.060    1.3516
   15.075    1.3691
   15.090    1.3691
   15.105    1.0883
   15.120    1.1234
   15.135    1.1410
   15.150    1.2463
   15.165    1.1585
   15.180    1.1058
   15.195    1.2463
   15.210    1.0532
   15.225    1.0707
   15.240    1.0883
   15.255    1.0005
   15.270    1.0181
   15.285    1.2112
   15.300    1.4920
   15.315    1.1234
   15.330    1.0005
   15.345    1.2638
   15.360    1.2814
   15.375    1.2638
   15.390    1.1058
   15.405    1.1234
   15.420    1.2989
   15.435    1.1234
   15.450    1.0532
   15.465    1.0005
   15.480    1.0883
   15.495    1.0707
   15.510    1.2814
   15.525    0.9654
   15.540    1.2814
   15.555    1.1058
   15.570    1.1410
   15.585    1.2638
   15.600    1.4218
   15.615    1.1410
   15.630    1.2814
   15.645    1.1585
   15.660    1.1410
   15.675    1.2287
   15.690    1.0883
   15.705    1.2287
   15.720    1.2989
   15.735    1.1761
   15.750    1.3867
   15.765    1.0356
   15.780    1.1761
   15.795    1.1936
   15.810    1.3516
   15.825    1.4394
   15.840    1.0883
   15.855    1.0707
   15.870    1.2814
   15.885    1.2112
   15.900    0.9479
   15.915    1.1234
   15.930    1.1936
   15.945    1.2287
   15.960    1.0883
   15.975    1.1234
   15.990    1.2463
   16.005    1.1410
   16.020    1.0532
   16.035    0.8777
   16.050    1.1410
   16.065    1.0883
   16.080    1.1936
   16.095    1.0707
   16.110    1.1234
   16.125    1.2989
   16.140    1.0707
   16.155    1.0883
   16.170    1.0883
   16.185    1.0181
   16.200    1.2814
   16.215    1.2814
   16.230    1.2463
   16.245    1.0005
   16.260    1.1410
   16.275    1.0883
   16.290    0.9654
   16.305    1.1410
   16.320    1.3165
   16.335    1.2463
   16.350    1.2112
   16.365    1.1936
   16.380    1.1936
   16.395    1.2638
   16.410    1.2638
   16.425    1.3165
   16.440    1.3867
   16.455    1.1234
   16.470    1.2814
   16.485    1.3691
   16.500    1.4042
   16.515    1.2112
   16.530    1.1410
   16.545    1.1761
   16.560    1.1058
   16.575    1.1761
   16.590    1.3340
   16.605    1.2814
   16.620    1.0356
   16.635    1.0707
   16.650    1.2112
   16.665    1.0005
   16.680    1.1761
   16.695    1.2463
   16.710    1.2112
   16.725    1.1936
   16.740    1.1761
   16.755    1.1585
   16.770    1.0883
   16.785    1.1761
   16.800    1.1936
   16.815    1.2463
   16.830    1.1585
   16.845    1.2463
   16.860    1.2638
   16.875    1.3165
   16.890    1.3516
   16.905    1.0532
   16.920    0.9830
   16.935    1.1410
   16.950    1.2814
   16.965    1.2112
   16.980    1.1936
   16.995    1.0707
   17.010    1.1058
   17.025    1.1410
   17.040    1.3340
   17.055    1.2989
   17.070    1.1585
   17.085    1.1761
   17.100    1.2287
   17.115    1.0883
   17.130    1.1410
   17.145    1.3340
   17.160    1.3165
   17.175    1.3691
   17.190    1.1761
   17.205    1.1410
   17.220    1.0883
   17.235    1.1585
   17.250    1.2112
   17.265    1.1761
   17.280    1.2112
   17.295    1.0883
   17.310    1.0181
   17.325    0.9830
   17.340    1.1410
   17.355    1.0356
   17.370    1.1585
   17.385    1.2287
   17.400    1.0883
   17.415    1.1410
   17.430    1.1761
   17.445    1.2463
   17.460    1.2814
   17.475    1.1936
   17.490    1.2287
   17.505    1.1058
   17.520    0.8952
   17.535    1.1058
   17.550    1.1585
   17.565    1.0883
   17.580    1.1058
   17.595    1.2814
   17.610    1.5096
   17.625    1.1936
   17.640    1.1058
   17.655    1.1585
   17.670    1.0181
   17.685    1.1058
   17.700    1.2989
   17.715    1.2112
   17.730    0.9830
   17.745    1.0005
   17.760    1.1234
   17.775    1.2287
   17.790    1.2112
   17.805    0.9479
   17.820    1.0005
   17.835    1.1936
   17.850    0.9830
   17.865    1.0181
   17.880    1.1936
   17.895    1.0005
   17.910    1.0181
   17.925    1.1936
   17.940    1.1410
   17.955    1.0883
   17.970    1.0532
   17.985    1.1410
   18.000    1.2638
   18.015    1.0532
   18.030    0.9654
   18.045    1.3867
   18.060    1.2287
   18.075    0.9654
   18.090    1.0005
   18.105    0.9830
   18.120    1.0532
   18.135    1.1058
   18.150    1.1058
   18.165    1.0532
   18.180    1.1410
   18.195    1.0883
   18.210    0.9654
   18.225    1.0707
   18.240    0.9479
   18.255    0.9479
   18.270    0.9830
   18.285    1.0883
   18.300    1.1936
   18.315    1.1585
   18.330    1.1761
   18.345    1.1585
   18.360    1.1761
   18.375    1.1410
   18.390    1.0883
   18.405    1.1058
   18.420    1.2638
   18.435    1.1761
   18.450    1.1761
   18.465    1.1761
   18.480    1.1234
   18.495    1.0356
   18.510    1.1936
   18.525    1.0005
   18.540    1.1936
   18.555    1.2463
   18.570    1.0181
   18.585    1.0005
   18.600    1.1761
   18.615    1.1234
   18.630    1.1234
   18.645    1.1058
   18.660    1.1585
   18.675    1.0532
   18.690    1.0883
   18.705    1.2287
   18.720    1.2814
   18.735    1.1058
   18.750    0.8074
   18.765    0.9128
   18.780    1.1585
   18.795    1.0707
   18.810    0.8777
   18.825    1.0181
   18.840    1.0883
   18.855    1.1761
   18.870    1.1234
   18.885    1.1761
   18.900    1.2112
   18.915    1.1761
   18.930    1.0883
   18.945    0.8601
   18.960    1.0707
   18.975    1.0532
   18.990    1.0356
   19.005    1.1936
   19.020    1.0181
   19.035    0.9479
   19.050    1.1058
   19.065    1.0181
   19.080    0.9479
   19.095    1.2112
   19.110    1.4218
   19.125    1.2287
   19.140    1.2463
   19.155    1.1585
   19.170    1.0532
   19.185    1.1585
   19.200    1.0181
   19.215    1.1058
   19.230    1.0883
   19.245    0.9479
   19.260    0.9479
   19.275    0.9128
   19.290    1.1058
   19.305    1.2814
   19.320    1.1936
   19.335    1.1058
   19.350    1.1410
   19.365    1.1058
   19.380    1.1234
   19.395    1.1936
   19.410    1.1234
   19.425    0.9830
   19.440    0.9830
   19.455    1.0356
   19.470    1.0005
   19.485    1.1410
   19.500    1.2463
   19.515    0.9479
   19.530    0.9479
   19.545    0.8250
   19.560    0.9830
   19.575    1.0356
   19.590    1.0005
   19.605    1.0707
   19.620    1.1234
   19.635    1.1058
   19.650    0.8777
   19.665    1.1410
   19.680    0.9303
   19.695    0.9303
   19.710    1.0532
   19.725    1.2989
   19.740    0.9830
   19.755    1.2463
   19.770    0.9303
   19.785    0.9654
   19.800    1.2814
   19.815    1.0707
   19.830    0.7021
   19.845    0.9128
   19.860    0.9654
   19.875    1.0707
   19.890    1.1936
   19.905    1.0181
   19.920    1.1058
   19.935    1.1585
   19.950    1.1410
   19.965    1.2463
   19.980    1.0181
   19.995    1.0181
   20.010    1.0356
   20.025    1.0181
   20.040    0.8074
   20.055    1.0356
   20.070    1.0707
   20.085    1.1585
   20.100    1.0356
   20.115    0.9303
   20.130    1.1585
   20.145    1.1761
   20.160    0.9654
   20.175    1.1585
   20.190    1.3340
   20.205    1.1936
   20.220    1.1234
   20.235    1.3165
   20.250    0.9830
   20.265    1.0707
   20.280    1.0181
   20.295    1.0005
   20.310    1.0707
   20.325    1.0356
   20.340    0.9128
   20.355    1.0883
   20.370    1.1234
   20.385    0.9654
   20.400    0.9128
   20.415    0.8074
   20.430    0.8777
   20.445    1.0356
   20.460    1.0181
   20.475    1.0532
   20.490    0.9128
   20.505    1.0005
   20.520    1.0181
   20.535    1.0356
   20.550    1.0356
   20.565    1.0005
   20.580    0.7899
   20.595    0.8601
   20.610    1.1761
   20.625    0.8777
   20.640    0.9128
   20.655    1.0532
   20.670    1.0181
   20.685    0.9830
   20.700    1.0532
   20.715    1.0883
   20.730    1.1410
   20.745    1.0005
   20.760    0.8250
   20.775    1.0181
   20.790    1.0005
   20.805    0.9303
   20.820    0.9479
   20.835    1.1585
   20.850    0.9303
   20.865    1.0356
   20.880    1.2463
   20.895    0.9654
   20.910    0.8777
   20.925    0.7021
   20.940    0.8952
   20.955    0.9303
   20.970    0.9830
   20.985    0.8952
   21.000    1.0532
   21.015    1.1585
   21.030    0.8952
   21.045    0.9128
   21.060    1.0005
   21.075    1.0532
   21.090    0.9128
   21.105    0.9128
   21.120    0.8777
   21.135    1.1410
   21.150    1.0356
   21.165    0.8601
   21.180    0.8601
   21.195    0.8777
   21.210    0.8777
   21.225    0.8777
   21.240    0.8601
   21.255    1.0005
   21.270    0.9479
   21.285    0.9830
   21.300    1.1761
   21.315    0.9479
   21.330    0.8425
   21.345    1.0005
   21.360    0.9128
   21.375    1.0532
   21.390    0.9830
   21.405    1.0005
   21.420    1.0356
   21.435    1.0181
   21.450    0.8250
   21.465    0.8250
   21.480    0.8425
   21.495    1.0707
   21.510    0.8777
   21.525    0.9654
   21.540    0.8250
   21.555    0.9830
   21.570    1.0883
   21.585    0.9830
   21.600    1.0883
   21.615    1.2112
   21.630    0.9830
   21.645    1.1234
   21.660    1.0532
   21.675    0.9654
   21.690    1.0356
   21.705    1.0883
   21.720    1.1058
   21.735    0.8952
   21.750    0.9303
   21.765    0.9128
   21.780    0.8074
   21.795    0.8952
   21.810    0.8425
   21.825    0.8952
   21.840    0.8425
   21.855    0.8952
   21.870    1.0356
   21.885    1.0005
   21.900    1.0005
   21.915    0.8952
   21.930    0.9303
   21.945    0.9479
   21.960    0.9303
   21.975    0.7899
   21.990    0.9303
   22.005    0.9128
   22.020    1.0181
   22.035    1.1410
   22.050    1.0356
   22.065    0.9128
   22.080    1.0005
   22.095    1.0883
   22.110    0.9303
   22.125    0.9128
   22.140    1.1058
   22.155    1.1410
   22.170    0.9654
   22.185    0.9303
   22.200    1.0005
   22.215    0.8074
   22.230    0.7899
   22.245    0.8777
   22.260    0.9303
   22.275    0.9479
   22.290    0.9830
   22.305    0.9830
   22.320    0.9479
   22.335    0.7548
   22.350    0.9128
   22.365    0.8777
   22.380    0.8777
   22.395    0.9479
   22.410    0.9830
   22.425    0.9479
   22.440    1.0707
   22.455    1.0005
   22.470    0.8777
   22.485    1.0356
   22.500    0.8952
   22.515    0.8250
   22.530    0.8777
   22.545    0.8777
   22.560    0.8601
   22.575    0.9128
   22.590    1.0883
   22.605    0.9128
   22.620    0.6846
   22.635    0.8601
   22.650    0.8250
   22.665    0.9128
   22.680    0.8425
   22.695    0.8425
   22.710    0.9303
   22.725    0.8777
   22.740    0.9830
   22.755    0.8952
   22.770    0.9128
   22.785    0.8777
   22.800    0.8777
   22.815    0.7197
   22.830    0.8250
   22.845    0.8601
   22.860    0.9479
   22.875    0.9303
   22.890    0.9654
   22.905    0.8777
   22.920    0.8777
   22.935    1.0181
   22.950    1.0707
   22.965    0.8250
   22.980    0.9128
   22.995    1.0356
   23.010    0.9303
   23.025    0.8425
   23.040    0.8425
   23.055    0.8074
   23.070    0.8074
   23.085    0.7723
   23.100    0.9479
   23.115    1.0005
   23.130    0.9303
   23.145    0.6846
   23.160    0.7548
   23.175    0.7548
   23.190    0.8250
   23.205    0.7899
   23.220    0.7197
   23.235    0.8952
   23.250    0.8425
   23.265    0.7899
   23.280    0.8074
   23.295    0.8425
   23.310    0.7372
   23.325    0.8074
   23.340    0.7723
   23.355    0.7372
   23.370    0.8777
   23.385    0.8952
   23.400    0.9128
   23.415    0.8250
   23.430    0.9479
   23.445    0.8952
   23.460    0.7723
   23.475    0.8601
   23.490    0.8425
   23.505    0.7899
   23.520    0.7899
   23.535    0.8601
   23.550    0.8601
   23.565    0.9479
   23.580    0.9303
   23.595    0.8074
   23.610    0.9479
   23.625    0.8250
   23.640    0.8250
   23.655    0.9830
   23.670    0.7197
   23.685    0.8777
   23.700    0.8074
   23.715    0.9479
   23.730    0.7899
   23.745    0.6846
   23.760    0.7723
   23.775    0.9303
   23.790    0.7372
   23.805    0.8425
   23.820    0.8777
   23.835    0.7197
   23.850    0.7021
   23.865    0.9830
   23.880    0.7548
   23.895    0.7548
   23.910    0.8777
   23.925    0.8425
   23.940    0.7723
   23.955    0.7021
   23.970    0.6846
   23.985    0.7197
   24.000    0.7197
   24.015    0.7197
   24.030    0.8601
   24.045    0.7197
   24.060    0.7197
   24.075    0.8777
   24.090    0.7372
   24.105    0.8777
   24.120    0.8425
   24.135    0.7548
   24.150    0.7197
   24.165    0.7723
   24.180    0.8425
   24.195    0.9479
   24.210    0.7899
   24.225    0.7899
   24.240    0.9128
   24.255    0.8601
   24.270    0.9830
   24.285    0.7021
   24.300    0.7548
   24.315    0.6846
   24.330    0.8074
   24.345    0.8952
   24.360    0.7548
   24.375    0.8425
   24.390    0.8074
   24.405    1.0707
   24.420    0.8250
   24.435    0.7899
   24.450    0.7548
   24.465    0.7723
   24.480    0.8425
   24.495    0.7548
   24.510    0.6846
   24.525    0.8250
   24.540    1.0707
   24.555    0.7372
   24.570    0.7372
   24.585    0.8425
   24.600    0.7899
   24.615    0.9479
   24.630    0.7899
   24.645    0.8777
   24.660    0.7548
   24.675    0.6319
   24.690    0.7372
   24.705    0.7548
   24.720    0.8250
   24.735    0.8601
   24.750    0.9479
   24.765    0.7899
   24.780    0.5968
   24.795    0.6319
   24.810    0.7021
   24.825    0.8074
   24.840    0.7723
   24.855    0.7899
   24.870    0.7548
   24.885    0.8952
   24.900    0.8601
   24.915    0.8601
   24.930    0.7197
   24.945    0.6319
   24.960    0.8601
   24.975    0.7723
   24.990    0.7548
   25.005    0.8425
   25.020    0.8777
   25.035    0.8425
   25.050    0.7548
   25.065    0.5441
   25.080    0.7021
   25.095    0.7899
   25.110    0.7197
   25.125    0.7021
   25.140    0.8777
   25.155    0.9303
   25.170    0.7723
   25.185    0.6846
   25.200    0.9128
   25.215    0.7197
   25.230    0.6670
   25.245    0.5617
   25.260    0.7021
   25.275    0.8777
   25.290    0.8777
   25.305    0.7372
   25.320    0.7197
   25.335    0.7197
   25.350    0.7197
   25.365    0.8425
   25.380    0.8074
   25.395    0.8425
   25.410    0.8601
   25.425    0.8074
   25.440    0.7372
   25.455    0.9303
   25.470    0.7548
   25.485    0.7021
   25.500    0.8425
   25.515    0.7723
   25.530    0.8250
   25.545    0.7021
   25.560    0.6846
   25.575    0.6670
   25.590    0.6495
   25.605    0.6319
   25.620    0.6670
   25.635    0.8250
   25.650    0.7021
   25.665    0.8074
   25.680    0.6670
   25.695    0.8250
   25.710    0.9654
   25.725    0.8074
   25.740    0.9303
   25.755    0.9830
   25.770    1.0005
   25.785    0.6846
   25.800    0.6319
   25.815    0.8250
   25.830    0.7899
   25.845    0.6846
   25.860    0.7723
   25.875    0.6319
   25.890    0.6846
   25.905    0.7548
   25.920    0.8074
   25.935    0.6670
   25.950    0.7548
   25.965    0.6670
   25.980    0.8425
   25.995    0.7548
   26.010    0.6319
   26.025    0.6670
   26.040    0.8601
   26.055    0.7197
   26.070    0.6846
   26.085    0.7899
   26.100    0.7899
   26.115    0.7372
   26.130    0.6846
   26.145    0.7021
   26.160    0.6495
   26.175    0.7372
   26.190    0.7197
   26.205    0.6495
   26.220    0.7021
   26.235    0.7021
   26.250    0.6495
   26.265    0.6670
   26.280    0.7548
   26.295    0.9479
   26.310    0.6846
   26.325    0.6846
   26.340    0.8777
   26.355    0.9830
   26.370    0.8425
   26.385    0.7197
   26.400    0.6670
   26.415    0.6670
   26.430    0.6670
   26.445    0.6319
   26.460    0.6319
   26.475    0.7197
   26.490    0.7723
   26.505    0.7021
   26.520    0.7723
   26.535    0.8425
   26.550    0.7723
   26.565    0.7197
   26.580    0.6495
   26.595    0.7548
   26.610    0.7372
   26.625    0.8425
   26.640    0.7372
   26.655    0.8601
   26.670    0.8250
   26.685    0.7899
   26.700    0.6846
   26.715    0.7197
   26.730    0.7021
   26.745    0.6144
   26.760    0.6144
   26.775    0.8952
   26.790    0.7899
   26.805    0.7548
   26.820    0.6144
   26.835    0.6846
   26.850    0.5968
   26.865    0.5968
   26.880    0.6319
   26.895    0.6144
   26.910    0.6670
   26.925    0.6319
   26.940    0.6670
   26.955    0.6144
   26.970    0.6846
   26.985    0.8601
   27.000    0.7723
   27.015    0.7197
   27.030    0.6144
   27.045    0.6670
   27.060    0.5968
   27.075    0.7021
   27.090    0.7197
   27.105    0.7548
   27.120    0.6144
   27.135    0.7197
   27.150    0.6319
   27.165    0.7021
   27.180    0.8074
   27.195    0.7021
   27.210    0.7723
   27.225    0.7723
   27.240    0.5793
   27.255    0.5793
   27.270    0.5793
   27.285    0.7197
   27.300    0.7021
   27.315    0.6846
   27.330    0.7723
   27.345    0.7021
   27.360    0.5968
   27.375    0.6670
   27.390    0.6670
   27.405    0.6670
   27.420    0.6495
   27.435    0.6495
   27.450    0.6670
   27.465    0.7197
   27.480    0.6846
   27.495    0.6319
   27.510    0.6144
   27.525    0.6144
   27.540    0.5968
   27.555    0.6846
   27.570    0.7372
   27.585    0.6670
   27.600    0.6144
   27.615    0.5968
   27.630    0.8074
   27.645    0.6144
   27.660    0.7372
   27.675    0.7197
   27.690    0.7372
   27.705    0.6670
   27.720    0.6319
   27.735    0.6670
   27.750    0.5266
   27.765    0.5090
   27.780    0.5793
   27.795    0.4915
   27.810    0.6319
   27.825    0.6495
   27.840    0.5090
   27.855    0.7197
   27.870    0.6495
   27.885    0.7197
   27.900    0.6670
   27.915    0.7548
   27.930    0.7372
   27.945    0.4739
   27.960    0.6319
   27.975    0.7548
   27.990    0.8074
   28.005    0.6670
   28.020    0.5793
   28.035    0.7899
   28.050    0.8777
   28.065    0.7021
   28.080    0.5793
   28.095    0.6319
   28.110    0.4564
   28.125    0.5441
   28.140    0.6495
   28.155    0.8074
   28.170    0.6846
   28.185    0.7372
   28.200    0.8952
   28.215    0.7899
   28.230    0.7548
   28.245    0.5266
   28.260    0.5441
   28.275    0.5968
   28.290    0.6319
   28.305    0.6144
   28.320    0.6670
   28.335    0.6495
   28.350    0.7548
   28.365    0.5617
   28.380    0.6319
   28.395    0.6846
   28.410    0.6670
   28.425    0.5441
   28.440    0.5793
   28.455    0.6495
   28.470    0.5793
   28.485    0.6319
   28.500    0.5793
   28.515    0.6144
   28.530    0.7021
   28.545    0.6670
   28.560    0.7021
   28.575    0.6670
   28.590    0.5968
   28.605    0.7372
   28.620    0.6144
   28.635    0.6670
   28.650    0.7548
   28.665    0.6319
   28.680    0.6670
   28.695    0.6495
   28.710    0.7899
   28.725    0.5968
   28.740    0.7021
   28.755    0.6319
   28.770    0.7723
   28.785    0.7723
   28.800    0.6495
   28.815    0.6670
   28.830    0.7899
   28.845    0.7372
   28.860    0.4564
   28.875    0.6319
   28.890    0.5441
   28.905    0.6319
   28.920    0.7197
   28.935    0.7021
   28.950    0.7372
   28.965    0.8074
   28.980    0.6846
   28.995    0.5266
   29.010    0.5968
   29.025    0.5793
   29.040    0.5441
   29.055    0.7021
   29.070    0.6319
   29.085    0.5090
   29.100    0.4915
   29.115    0.6319
   29.130    0.7372
   29.145    0.5441
   29.160    0.5617
   29.175    0.6495
   29.190    0.6319
   29.205    0.6495
   29.220    0.5441
   29.235    0.5617
   29.250    0.5617
   29.265    0.5793
   29.280    0.6495
   29.295    0.8425
   29.310    0.5968
   29.325    0.6846
   29.340    0.5968
   29.355    0.7197
   29.370    0.6319
   29.385    0.5793
   29.400    0.5441
   29.415    0.6495
   29.430    0.5090
   29.445    0.6144
   29.460    0.6319
   29.475    0.6144
   29.490    0.6319
   29.505    0.4388
   29.520    0.5793
   29.535    0.6144
   29.550    0.6319
   29.565    0.6846
   29.580    0.6495
   29.595    0.5793
   29.610    0.5968
   29.625    0.5090
   29.640    0.5441
   29.655    0.4915
   29.670    0.5090
   29.685    0.5266
   29.700    0.5968
   29.715    0.7548
   29.730    0.6846
   29.745    0.5441
   29.760    0.5968
   29.775    0.4739
   29.790    0.5090
   29.805    0.4739
   29.820    0.4213
   29.835    0.5793
   29.850    0.6495
   29.865    0.7723
   29.880    0.5266
   29.895    0.4564
   29.910    0.6319
   29.925    0.5793
   29.940    0.5968
   29.955    0.5266
   29.970    0.6495
   29.985    0.4388
   30.000    0.6670
   30.015    0.6846
   30.030    0.7197
   30.045    0.4915
   30.060    0.3862
   30.075    0.4739
   30.090    0.4915
   30.105    0.4739
   30.120    0.6144
   30.135    0.4564
   30.150    0.4213
   30.165    0.4739
   30.180    0.4388
   30.195    0.5266
   30.210    0.6846
   30.225    0.5441
   30.240    0.5617
   30.255    0.5793
   30.270    0.5968
   30.285    0.5793
   30.300    0.5266
   30.315    0.4388
   30.330    0.4037
   30.345    0.4564
   30.360    0.5617
   30.375    0.6670
   30.390    0.5968
   30.405    0.3862
   30.420    0.3686
   30.435    0.4915
   30.450    0.4915
   30.465    0.6319
   30.480    0.5266
   30.495    0.4915
   30.510    0.5090
   30.525    0.6319
   30.540    0.5441
   30.555    0.5441
   30.570    0.6495
   30.585    0.5441
   30.600    0.5090
   30.615    0.6319
   30.630    0.5090
   30.645    0.5266
   30.660    0.4564
   30.675    0.5617
   30.690    0.5441
   30.705    0.3862
   30.720    0.4388
   30.735    0.5968
   30.750    0.5266
   30.765    0.3862
   30.780    0.6495
   30.795    0.5441
   30.810    0.4915
   30.825    0.5617
   30.840    0.4388
   30.855    0.4739
   30.870    0.4564
   30.885    0.4213
   30.900    0.5968
   30.915    0.4564
   30.930    0.4564
   30.945    0.4037
   30.960    0.5441
   30.975    0.4739
   30.990    0.3160
   31.005    0.4037
   31.020    0.6144
   31.035    0.4739
   31.050    0.3686
   31.065    0.4037
   31.080    0.5968
   31.095    0.4388
   31.110    0.4213
   31.125    0.5090
   31.140    0.5441
   31.155    0.4915
   31.170    0.5090
   31.185    0.4388
   31.200    0.4388
   31.215    0.4037
   31.230    0.4213
   31.245    0.4213
   31.260    0.3686
   31.275    0.3335
   31.290    0.4564
   31.305    0.4037
   31.320    0.4037
   31.335    0.7197
   31.350    0.5968
   31.365    0.4739
   31.380    0.4564
   31.395    0.5793
   31.410    0.4915
   31.425    0.3335
   31.440    0.4739
   31.455    0.4213
   31.470    0.3686
   31.485    0.3862
   31.500    0.3160
   31.515    0.3686
   31.530    0.4388
   31.545    0.4037
   31.560    0.4388
   31.575    0.5793
   31.590    0.4739
   31.605    0.4915
   31.620    0.4915
   31.635    0.5266
   31.650    0.5090
   31.665    0.5090
   31.680    0.6319
   31.695    0.5441
   31.710    0.4915
   31.725    0.4564
   31.740    0.4915
   31.755    0.3686
   31.770    0.3862
   31.785    0.5266
   31.800    0.5090
   31.815    0.5441
   31.830    0.4213
   31.845    0.5617
   31.860    0.6144
   31.875    0.5266
   31.890    0.3862
   31.905    0.5266
   31.920    0.5968
   31.935    0.4564
   31.950    0.5793
   31.965    0.4739
   31.980    0.4739
   31.995    0.4037
   32.010    0.4213
   32.025    0.4564
   32.040    0.5441
   32.055    0.5090
   32.070    0.5090
   32.085    0.4564
   32.100    0.4915
   32.115    0.3686
   32.130    0.4564
   32.145    0.4213
   32.160    0.4037
   32.175    0.4388
   32.190    0.4388
   32.205    0.4388
   32.220    0.4915
   32.235    0.3862
   32.250    0.5441
   32.265    0.5441
   32.280    0.3862
   32.295    0.4037
   32.310    0.2984
   32.325    0.4388
   32.340    0.4213
   32.355    0.3686
   32.370    0.5441
   32.385    0.5441
   32.400    0.4388
   32.415    0.3686
   32.430    0.5090
   32.445    0.3686
   32.460    0.5441
   32.475    0.3686
   32.490    0.5266
   32.505    0.4388
   32.520    0.4564
   32.535    0.4213
   32.550    0.4213
   32.565    0.4915
   32.580    0.3862
   32.595    0.3511
   32.610    0.4915
   32.625    0.5441
   32.640    0.4564
   32.655    0.5090
   32.670    0.4564
   32.685    0.3862
   32.700    0.3511
   32.715    0.4739
   32.730    0.3686
   32.745    0.3686
   32.760    0.3511
   32.775    0.3862
   32.790    0.5617
   32.805    0.3160
   32.820    0.3686
   32.835    0.4037
   32.850    0.4739
   32.865    0.4739
   32.880    0.4739
   32.895    0.3862
   32.910    0.4037
   32.925    0.4388
   32.940    0.3511
   32.955    0.3511
   32.970    0.3335
   32.985    0.2106
   33.000    0.3686
   33.015    0.5617
   33.030    0.5090
   33.045    0.4564
   33.060    0.2984
   33.075    0.2457
   33.090    0.2984
   33.105    0.4739
   33.120    0.4388
   33.135    0.4915
   33.150    0.5090
   33.165    0.4213
   33.180    0.4388
   33.195    0.4037
   33.210    0.3862
   33.225    0.3862
   33.240    0.5266
   33.255    0.5793
   33.270    0.4915
   33.285    0.3862
   33.300    0.3511
   33.315    0.3511
   33.330    0.3511
   33.345    0.3686
   33.360    0.4739
   33.375    0.4213
   33.390    0.4037
   33.405    0.3862
   33.420    0.3511
   33.435    0.3335
   33.450    0.4388
   33.465    0.3862
   33.480    0.4213
   33.495    0.3686
   33.510    0.4739
   33.525    0.4564
   33.540    0.3686
   33.555    0.3686
   33.570    0.4739
   33.585    0.4388
   33.600    0.5441
   33.615    0.5793
   33.630    0.4037
   33.645    0.3160
   33.660    0.3862
   33.675    0.3160
   33.690    0.3862
   33.705    0.3686
   33.720    0.6144
   33.735    0.5266
   33.750    0.4739
   33.765    0.3686
   33.780    0.3335
   33.795    0.5441
   33.810    0.4915
   33.825    0.4037
   33.840    0.4915
   33.855    0.3335
   33.870    0.3686
   33.885    0.3686
   33.900    0.3160
   33.915    0.3335
   33.930    0.3686
   33.945    0.4739
   33.960    0.5266
   33.975    0.3686
   33.990    0.4915
   34.005    0.5090
   34.020    0.4037
   34.035    0.4915
   34.050    0.3160
   34.065    0.4213
   34.080    0.4564
   34.095    0.3862
   34.110    0.3335
   34.125    0.3686
   34.140    0.5266
   34.155    0.5266
   34.170    0.4037
   34.185    0.5441
   34.200    0.4388
   34.215    0.3335
   34.230    0.4564
   34.245    0.4037
   34.260    0.3686
   34.275    0.3160
   34.290    0.3335
   34.305    0.2808
   34.320    0.3160
   34.335    0.4037
   34.350    0.3160
   34.365    0.5266
   34.380    0.1931
   34.395    0.4564
   34.410    0.4037
   34.425    0.3511
   34.440    0.4037
   34.455    0.3686
   34.470    0.3335
   34.485    0.3160
   34.500    0.3686
   34.515    0.4037
   34.530    0.4213
   34.545    0.4037
   34.560    0.3511
   34.575    0.4739
   34.590    0.4037
   34.605    0.4739
   34.620    0.5441
   34.635    0.3862
   34.650    0.4915
   34.665    0.5090
   34.680    0.3862
   34.695    0.3511
   34.710    0.4213
   34.725    0.4388
   34.740    0.2633
   34.755    0.3160
   34.770    0.3160
   34.785    0.4388
   34.800    0.2984
   34.815    0.4739
   34.830    0.4564
   34.845    0.5090
   34.860    0.4037
   34.875    0.3686
   34.890    0.4037
   34.905    0.3511
   34.920    0.4037
   34.935    0.5266
   34.950    0.4213
   34.965    0.3160
   34.980    0.3862
   34.995    0.4037
   35.010    0.4213
   35.025    0.3511
   35.040    0.3686
   35.055    0.3862
   35.070    0.4213
   35.085    0.4037
   35.100    0.3862
   35.115    0.3160
   35.130    0.3160
   35.145    0.4564
   35.160    0.3686
   35.175    0.4037
   35.190    0.2984
   35.205    0.4037
   35.220    0.2808
   35.235    0.3862
   35.250    0.3862
   35.265    0.2282
   35.280    0.2282
   35.295    0.2633
   35.310    0.3335
   35.325    0.4213
   35.340    0.3335
   35.355    0.3511
   35.370    0.4037
   35.385    0.4037
   35.400    0.3160
   35.415    0.3335
   35.430    0.4037
   35.445    0.5090
   35.460    0.3511
   35.475    0.3862
   35.490    0.3511
   35.505    0.2984
   35.520    0.2808
   35.535    0.2984
   35.550    0.4037
   35.565    0.4739
   35.580    0.4037
   35.595    0.4388
   35.610    0.3511
   35.625    0.3511
   35.640    0.3511
   35.655    0.3511
   35.670    0.2106
   35.685    0.3686
   35.700    0.3511
   35.715    0.4915
   35.730    0.4037
   35.745    0.2984
   35.760    0.3335
   35.775    0.2984
   35.790    0.4739
   35.805    0.3686
   35.820    0.4915
   35.835    0.4388
   35.850    0.3160
   35.865    0.2984
   35.880    0.2633
   35.895    0.3686
   35.910    0.3686
   35.925    0.3862
   35.940    0.4564
   35.955    0.3335
   35.970    0.3686
   35.985    0.3686
   36.000    0.4564
   36.015    0.3160
   36.030    0.4739
   36.045    0.3862
   36.060    0.2984
   36.075    0.3511
   36.090    0.2457
   36.105    0.4564
   36.120    0.4564
   36.135    0.2984
   36.150    0.3686
   36.165    0.5090
   36.180    0.4915
   36.195    0.4213
   36.210    0.3160
   36.225    0.4037
   36.240    0.4213
   36.255    0.3335
   36.270    0.3511
   36.285    0.5090
   36.300    0.4388
   36.315    0.4213
   36.330    0.4213
   36.345    0.3335
   36.360    0.2984
   36.375    0.3686
   36.390    0.3511
   36.405    0.3511
   36.420    0.3862
   36.435    0.4739
   36.450    0.3686
   36.465    0.4037
   36.480    0.3160
   36.495    0.2808
   36.510    0.3160
   36.525    0.3160
   36.540    0.3160
   36.555    0.3862
   36.570    0.2808
   36.585    0.3511
   36.600    0.3335
   36.615    0.4213
   36.630    0.5266
   36.645    0.4388
   36.660    0.4915
   36.675    0.3511
   36.690    0.4564
   36.705    0.3862
   36.720    0.3686
   36.735    0.4564
   36.750    0.4564
   36.765    0.3511
   36.780    0.3686
   36.795    0.2633
   36.810    0.4388
   36.825    0.4388
   36.840    0.3511
   36.855    0.4213
   36.870    0.4915
   36.885    0.2633
   36.900    0.3335
   36.915    0.3335
   36.930    0.4213
   36.945    0.4388
   36.960    0.2808
   36.975    0.3335
   36.990    0.3160
   37.005    0.5090
   37.020    0.4564
   37.035    0.2633
   37.050    0.3335
   37.065    0.4564
   37.080    0.3862
   37.095    0.2808
   37.110    0.4037
   37.125    0.3511
   37.140    0.3511
   37.155    0.3160
   37.170    0.3335
   37.185    0.2633
   37.200    0.3511
   37.215    0.3160
   37.230    0.2984
   37.245    0.3511
   37.260    0.2984
   37.275    0.2457
   37.290    0.2633
   37.305    0.2457
   37.320    0.3160
   37.335    0.2808
   37.350    0.4037
   37.365    0.3335
   37.380    0.4213
   37.395    0.3335
   37.410    0.3686
   37.425    0.3335
   37.440    0.3160
   37.455    0.4037
   37.470    0.3335
   37.485    0.3335
   37.500    0.3862
   37.515    0.3511
   37.530    0.2282
   37.545    0.2106
   37.560    0.3335
   37.575    0.4213
   37.590    0.3160
   37.605    0.4213
   37.620    0.3686
   37.635    0.2808
   37.650    0.3335
   37.665    0.4388
   37.680    0.3862
   37.695    0.2984
   37.710    0.4037
   37.725    0.3160
   37.740    0.3511
   37.755    0.3511
   37.770    0.4213
   37.785    0.3335
   37.800    0.3160
   37.815    0.4388
   37.830    0.3862
   37.845    0.3862
   37.860    0.2808
   37.875    0.3160
   37.890    0.3511
   37.905    0.3335
   37.920    0.3686
   37.935    0.3511
   37.950    0.1931
   37.965    0.3511
   37.980    0.3511
   37.995    0.4388
   38.010    0.4739
   38.025    0.3686
   38.040    0.3511
   38.055    0.4213
   38.070    0.4037
   38.085    0.3335
   38.100    0.4213
   38.115    0.2984
   38.130    0.3511
   38.145    0.2633
   38.160    0.3511
   38.175    0.2984
   38.190    0.4213
   38.205    0.3862
   38.220    0.3335
   38.235    0.3160
   38.250    0.3511
   38.265    0.4213
   38.280    0.4388
   38.295    0.2984
   38.310    0.2633
   38.325    0.2457
   38.340    0.3511
   38.355    0.4388
   38.370    0.3686
   38.385    0.4037
   38.400    0.3511
   38.415    0.2984
   38.430    0.2984
   38.445    0.4388
   38.460    0.4388
   38.475    0.3511
   38.490    0.2633
   38.505    0.3686
   38.520    0.4213
   38.535    0.3160
   38.550    0.3160
   38.565    0.3686
   38.580    0.3335
   38.595    0.3160
   38.610    0.3511
   38.625    0.3335
   38.640    0.4037
   38.655    0.3511
   38.670    0.2808
   38.685    0.2633
   38.700    0.4739
   38.715    0.3862
   38.730    0.2633
   38.745    0.2633
   38.760    0.3862
   38.775    0.3862
   38.790    0.2984
   38.805    0.3511
   38.820    0.3686
   38.835    0.3686
   38.850    0.3686
   38.865    0.3686
   38.880    0.3511
   38.895    0.3862
   38.910    0.3511
   38.925    0.2633
   38.940    0.3862
   38.955    0.2633
   38.970    0.3335
   38.985    0.3335
   39.000    0.3511
   39.015    0.3335
   39.030    0.4213
   39.045    0.3511
   39.060    0.2984
   39.075    0.3686
   39.090    0.2984
   39.105    0.2984
   39.120    0.3160
   39.135    0.2984
   39.150    0.3511
   39.165    0.2984
   39.180    0.1931
   39.195    0.4037
   39.210    0.4213
   39.225    0.3335
   39.240    0.2633
   39.255    0.2984
   39.270    0.4388
   39.285    0.4213
   39.300    0.3160
   39.315    0.3335
   39.330    0.3686
   39.345    0.4388
   39.360    0.3511
   39.375    0.3686
   39.390    0.2633
   39.405    0.2984
   39.420    0.3862
   39.435    0.2984
   39.450    0.2633
   39.465    0.3511
   39.480    0.3862
   39.495    0.3686
   39.510    0.2984
   39.525    0.2808
   39.540    0.2457
   39.555    0.3511
   39.570    0.3686
   39.585    0.3160
   39.600    0.2633
   39.615    0.2633
   39.630    0.3686
   39.645    0.4213
   39.660    0.3511
   39.675    0.3862
   39.690    0.2808
   39.705    0.2457
   39.720    0.1931
   39.735    0.4213
   39.750    0.3160
   39.765    0.2282
   39.780    0.3160
   39.795    0.2633
   39.810    0.2106
   39.825    0.3686
   39.840    0.4037
   39.855    0.2984
   39.870    0.2984
   39.885    0.3160
   39.900    0.3511
   39.915    0.2984
   39.930    0.2808
   39.945    0.3686
   39.960    0.4037
   39.975    0.4564
   39.990    0.4037
   40.005    0.2808
   40.020    0.3160
   40.035    0.4915
   40.050    0.3686
   40.065    0.2808
   40.080    0.2633
   40.095    0.3511
   40.110    0.3862
   40.125    0.2984
   40.140    0.3160
   40.155    0.2808
   40.170    0.3511
   40.185    0.2633
   40.200    0.2808
   40.215    0.2808
   40.230    0.2984
   40.245    0.2808
   40.260    0.4213
   40.275    0.2808
   40.290    0.2633
   40.305    0.3160
   40.320    0.2633
   40.335    0.2457
   40.350    0.2282
   40.365    0.2808
   40.380    0.3686
   40.395    0.3335
   40.410    0.2984
   40.425    0.2106
   40.440    0.3160
   40.455    0.2984
   40.470    0.2808
   40.485    0.3335
   40.500    0.3862
   40.515    0.3686
   40.530    0.4037
   40.545    0.3335
   40.560    0.4213
   40.575    0.3686
   40.590    0.2106
   40.605    0.2282
   40.620    0.1931
   40.635    0.3160
   40.650    0.2633
   40.665    0.2808
   40.680    0.2808
   40.695    0.3335
   40.710    0.2808
   40.725    0.2633
   40.740    0.2808
   40.755    0.3511
   40.770    0.4213
   40.785    0.2984
   40.800    0.2984
   40.815    0.2984
   40.830    0.2984
   40.845    0.4388
   40.860    0.5266
   40.875    0.2633
   40.890    0.2808
   40.905    0.3511
   40.920    0.3335
   40.935    0.2984
   40.950    0.3862
   40.965    0.3862
   40.980    0.2282
   40.995    0.3511
   41.010    0.3686
   41.025    0.2633
   41.040    0.1931
   41.055    0.3862
   41.070    0.2808
   41.085    0.2808
   41.100    0.4213
   41.115    0.2808
   41.130    0.3335
   41.145    0.3511
   41.160    0.2808
   41.175    0.2457
   41.190    0.3335
   41.205    0.2457
   41.220    0.2633
   41.235    0.2984
   41.250    0.3511
   41.265    0.3335
   41.280    0.1755
   41.295    0.3160
   41.310    0.2282
   41.325    0.2282
   41.340    0.3511
   41.355    0.2633
   41.370    0.3160
   41.385    0.3160
   41.400    0.4213
   41.415    0.3335
   41.430    0.3335
   41.445    0.4037
   41.460    0.4213
   41.475    0.3335
   41.490    0.2457
   41.505    0.2282
   41.520    0.2106
   41.535    0.2984
   41.550    0.3160
   41.565    0.2808
   41.580    0.2282
   41.595    0.3335
   41.610    0.3335
   41.625    0.2282
   41.640    0.2808
   41.655    0.2808
   41.670    0.2633
   41.685    0.2808
   41.700    0.2808
   41.715    0.3686
   41.730    0.3160
   41.745    0.3160
   41.760    0.2808
   41.775    0.3335
   41.790    0.2633
   41.805    0.3160
   41.820    0.3160
   41.835    0.2984
   41.850    0.4037
   41.865    0.4037
   41.880    0.3335
   41.895    0.3686
   41.910    0.3160
   41.925    0.2808
   41.940    0.2984
   41.955    0.2633
   41.970    0.3160
   41.985    0.3160
   42.000    0.3686
   42.015    0.3335
   42.030    0.3511
   42.045    0.3686
   42.060    0.2457
   42.075    0.2984
   42.090    0.3160
   42.105    0.2808
   42.120    0.3686
   42.135    0.4037
   42.150    0.3686
   42.165    0.2984
   42.180    0.2984
   42.195    0.2282
   42.210    0.3862
   42.225    0.4388
   42.240    0.2457
   42.255    0.3335
   42.270    0.3862
   42.285    0.2984
   42.300    0.2808
   42.315    0.2457
   42.330    0.3686
   42.345    0.3862
   42.360    0.2808
   42.375    0.2457
   42.390    0.2633
   42.405    0.3862
   42.420    0.4213
   42.435    0.2984
   42.450    0.3335
   42.465    0.3686
   42.480    0.2984
   42.495    0.3335
   42.510    0.3511
   42.525    0.2633
   42.540    0.2808
   42.555    0.4037
   42.570    0.4739
   42.585    0.3862
   42.600    0.3511
   42.615    0.2808
   42.630    0.3335
   42.645    0.2984
   42.660    0.1755
   42.675    0.3511
   42.690    0.3862
   42.705    0.2984
   42.720    0.2633
   42.735    0.3335
   42.750    0.3686
   42.765    0.3160
   42.780    0.4915
   42.795    0.4213
   42.810    0.3862
   42.825    0.3160
   42.840    0.2633
   42.855    0.4037
   42.870    0.4564
   42.885    0.3160
   42.900    0.2808
   42.915    0.3160
   42.930    0.2808
   42.945    0.4037
   42.960    0.4388
   42.975    0.3511
   42.990    0.2808
   43.005    0.3511
   43.020    0.3686
   43.035    0.2984
   43.050    0.2457
   43.065    0.1931
   43.080    0.3160
   43.095    0.2984
   43.110    0.3862
   43.125    0.3160
   43.140    0.2984
   43.155    0.4037
   43.170    0.3686
   43.185    0.2282
   43.200    0.2282
   43.215    0.1755
   43.230    0.3862
   43.245    0.3335
   43.260    0.4564
   43.275    0.3511
   43.290    0.2808
   43.305    0.3335
   43.320    0.2984
   43.335    0.3862
   43.350    0.2984
   43.365    0.3686
   43.380    0.2984
   43.395    0.2633
   43.410    0.2808
   43.425    0.2106
   43.440    0.3511
   43.455    0.3686
   43.470    0.2984
   43.485    0.3335
   43.500    0.2633
   43.515    0.3335
   43.530    0.2984
   43.545    0.3511
   43.560    0.2457
   43.575    0.4388
   43.590    0.4037
   43.605    0.3686
   43.620    0.4213
   43.635    0.3862
   43.650    0.3511
   43.665    0.2984
   43.680    0.2984
   43.695    0.1931
   43.710    0.1755
   43.725    0.2984
   43.740    0.3511
   43.755    0.2808
   43.770    0.2808
   43.785    0.3160
   43.800    0.3862
   43.815    0.3862
   43.830    0.3160
   43.845    0.3862
   43.860    0.3862
   43.875    0.2457
   43.890    0.2808
   43.905    0.2633
   43.920    0.3862
   43.935    0.3335
   43.950    0.3335
   43.965    0.2984
   43.980    0.2808
   43.995    0.2984
   44.010    0.2633
   44.025    0.2282
   44.040    0.2984
   44.055    0.2808
   44.070    0.2457
   44.085    0.2984
   44.100    0.2633
   44.115    0.3335
   44.130    0.3862
   44.145    0.3160
   44.160    0.3335
   44.175    0.3686
   44.190    0.2808
   44.205    0.2984
   44.220    0.3511
   44.235    0.3511
   44.250    0.3160
   44.265    0.3160
   44.280    0.3511
   44.295    0.3335
   44.310    0.3160
   44.325    0.3335
   44.340    0.2457
   44.355    0.3160
   44.370    0.2984
   44.385    0.2633
   44.400    0.3160
   44.415    0.2633
   44.430    0.2984
   44.445    0.3511
   44.460    0.3862
   44.475    0.2633
   44.490    0.4213
   44.505    0.3160
   44.520    0.2633
   44.535    0.4213
   44.550    0.3686
   44.565    0.3335
   44.580    0.2984
   44.595    0.2984
   44.610    0.4213
   44.625    0.4915
   44.640    0.4037
   44.655    0.2633
   44.670    0.3335
   44.685    0.3160
   44.700    0.3686
   44.715    0.3335
   44.730    0.4037
   44.745    0.2984
   44.760    0.3335
   44.775    0.2984
   44.790    0.2106
   44.805    0.2282
   44.820    0.3160
   44.835    0.2808
   44.850    0.2984
   44.865    0.3160
   44.880    0.3335
   44.895    0.3160
   44.910    0.1931
   44.925    0.2808
   44.940    0.2984
   44.955    0.2282
   44.970    0.3511
   44.985    0.3862
   45.000    0.3335
   45.015    0.3862
   45.030    0.2282
   45.045    0.2808
   45.060    0.3686
   45.075    0.2984
   45.090    0.2282
   45.105    0.2457
   45.120    0.2457
   45.135    0.2457
   45.150    0.2984
   45.165    0.2808
   45.180    0.3160
   45.195    0.3862
   45.210    0.2633
   45.225    0.3335
   45.240    0.2457
   45.255    0.3160
   45.270    0.3335
   45.285    0.3335
   45.300    0.4037
   45.315    0.3335
   45.330    0.2984
   45.345    0.2282
   45.360    0.2808
   45.375    0.2984
   45.390    0.3335
   45.405    0.3862
   45.420    0.2984
   45.435    0.3511
   45.450    0.3686
   45.465    0.3160
   45.480    0.2808
   45.495    0.1931
   45.510    0.3160
   45.525    0.3335
   45.540    0.4564
   45.555    0.4037
   45.570    0.2984
   45.585    0.2633
   45.600    0.3160
   45.615    0.2457
   45.630    0.4213
   45.645    0.2633
   45.660    0.2808
   45.675    0.3511
   45.690    0.3160
   45.705    0.2106
   45.720    0.2808
   45.735    0.3511
   45.750    0.2457
   45.765    0.4037
   45.780    0.2633
   45.795    0.2282
   45.810    0.2457
   45.825    0.2457
   45.840    0.2457
   45.855    0.2808
   45.870    0.2808
   45.885    0.2457
   45.900    0.3511
   45.915    0.3160
   45.930    0.2808
   45.945    0.2808
   45.960    0.3160
   45.975    0.2106
   45.990    0.2106
   46.005    0.2808
   46.020    0.2633
   46.035    0.3160
   46.050    0.2282
   46.065    0.2984
   46.080    0.2633
   46.095    0.3335
   46.110    0.2282
   46.125    0.2282
   46.140    0.3160
   46.155    0.2984
   46.170    0.2808
   46.185    0.3335
   46.200    0.3160
   46.215    0.2106
   46.230    0.2984
   46.245    0.2808
   46.260    0.2808
   46.275    0.3511
   46.290    0.2106
   46.305    0.3686
   46.320    0.2106
   46.335    0.2633
   46.350    0.2984
   46.365    0.3862
   46.380    0.2457
   46.395    0.2808
   46.410    0.2633
   46.425    0.2984
   46.440    0.2808
   46.455    0.2457
   46.470    0.3686
   46.485    0.2808
   46.500    0.2633
   46.515    0.2633
   46.530    0.2633
   46.545    0.2808
   46.560    0.3686
   46.575    0.2808
   46.590    0.2282
   46.605    0.2808
   46.620    0.3686
   46.635    0.2984
   46.650    0.2633
   46.665    0.2457
   46.680    0.2282
   46.695    0.2808
   46.710    0.3862
   46.725    0.3862
   46.740    0.3686
   46.755    0.2808
   46.770    0.2808
   46.785    0.2808
   46.800    0.2106
   46.815    0.2106
   46.830    0.2633
   46.845    0.3335
   46.860    0.3160
   46.875    0.3335
   46.890    0.3511
   46.905    0.2282
   46.920    0.2808
   46.935    0.2282
   46.950    0.3160
   46.965    0.2808
   46.980    0.2282
   46.995    0.3511
   47.010    0.3862
   47.025    0.3160
   47.040    0.2633
   47.055    0.3686
   47.070    0.2457
   47.085    0.2808
   47.100    0.2457
   47.115    0.2808
   47.130    0.2457
   47.145    0.2633
   47.160    0.1755
   47.175    0.2633
   47.190    0.3335
   47.205    0.2282
   47.220    0.3511
   47.235    0.4915
   47.250    0.2457
   47.265    0.3335
   47.280    0.3862
   47.295    0.2633
   47.310    0.2457
   47.325    0.3160
   47.340    0.3686
   47.355    0.2633
   47.370    0.2984
   47.385    0.4388
   47.400    0.2633
   47.415    0.2457
   47.430    0.2984
   47.445    0.2984
   47.460    0.2457
   47.475    0.1931
   47.490    0.2633
   47.505    0.3511
   47.520    0.3511
   47.535    0.3160
   47.550    0.2808
   47.565    0.3160
   47.580    0.3686
   47.595    0.3160
   47.610    0.2808
   47.625    0.2633
   47.640    0.2984
   47.655    0.2106
   47.670    0.2282
   47.685    0.2633
   47.700    0.2457
   47.715    0.2808
   47.730    0.2984
   47.745    0.3160
   47.760    0.2984
   47.775    0.2633
   47.790    0.1755
   47.805    0.2984
   47.820    0.3335
   47.835    0.2457
   47.850    0.3335
   47.865    0.3160
   47.880    0.2984
   47.895    0.2457
   47.910    0.2633
   47.925    0.2282
   47.940    0.3160
   47.955    0.3160
   47.970    0.2808
   47.985    0.2984
   48.000    0.2633
   48.015    0.1931
   48.030    0.2457
   48.045    0.2282
   48.060    0.2808
   48.075    0.2106
   48.090    0.2633
   48.105    0.2457
   48.120    0.3686
   48.135    0.2282
   48.150    0.2808
   48.165    0.2633
   48.180    0.3335
   48.195    0.1580
   48.210    0.2984
   48.225    0.1931
   48.240    0.2457
   48.255    0.2984
   48.270    0.2808
   48.285    0.2633
   48.300    0.2457
   48.315    0.2633
   48.330    0.2808
   48.345    0.3160
   48.360    0.2457
   48.375    0.2808
   48.390    0.1755
   48.405    0.2984
   48.420    0.2106
   48.435    0.2282
   48.450    0.2633
   48.465    0.1931
   48.480    0.2633
   48.495    0.1580
   48.510    0.1931
   48.525    0.2106
   48.540    0.2633
   48.555    0.1404
   48.570    0.2282
   48.585    0.2808
   48.600    0.2457
   48.615    0.1755
   48.630    0.1931
   48.645    0.2808
   48.660    0.2984
   48.675    0.2457
   48.690    0.2457
   48.705    0.4037
   48.720    0.3160
   48.735    0.2808
   48.750    0.2457
   48.765    0.2457
   48.780    0.2282
   48.795    0.2633
   48.810    0.2457
   48.825    0.2808
   48.840    0.2282
   48.855    0.2282
   48.870    0.1755
   48.885    0.2457
   48.900    0.4213
   48.915    0.3511
   48.930    0.2457
   48.945    0.2106
   48.960    0.2633
   48.975    0.2457
   48.990    0.2106
   49.005    0.2984
   49.020    0.2984
   49.035    0.3160
   49.050    0.2457
   49.065    0.4037
   49.080    0.3511
   49.095    0.2106
   49.110    0.1755
   49.125    0.2282
   49.140    0.2106
   49.155    0.2984
   49.170    0.2808
   49.185    0.2282
   49.200    0.2633
   49.215    0.2282
   49.230    0.3511
   49.245    0.3862
   49.260    0.1931
   49.275    0.2106
   49.290    0.2457
   49.305    0.1580
   49.320    0.2282
   49.335    0.2633
   49.350    0.2457
   49.365    0.3160
   49.380    0.3335
   49.395    0.2984
   49.410    0.2457
   49.425    0.2106
   49.440    0.2282
   49.455    0.2633
   49.470    0.2633
   49.485    0.2633
   49.500    0.2106
   49.515    0.2808
   49.530    0.2106
   49.545    0.2457
   49.560    0.3335
   49.575    0.2457
   49.590    0.1931
   49.605    0.3160
   49.620    0.2282
   49.635    0.2106
   49.650    0.2282
   49.665    0.2282
   49.680    0.3160
   49.695    0.1755
   49.710    0.1931
   49.725    0.2808
   49.740    0.2282
   49.755    0.2457
   49.770    0.2106
   49.785    0.2984
   49.800    0.2457
   49.815    0.2808
   49.830    0.1404
   49.845    0.1580
   49.860    0.3335
   49.875    0.2633
   49.890    0.2457
   49.905    0.2282
   49.920    0.2106
   49.935    0.2106
   49.950    0.2808
   49.965    0.2106
   49.980    0.1931
