    1.500   13.4632
    1.515   13.9898
    1.530   12.9191
    1.545   12.7611
    1.560   12.4451
    1.575   11.6202
    1.590   12.2696
    1.605   11.9361
    1.620   11.3042
    1.635   11.2340
    1.650   11.8659
    1.665   10.8303
    1.680   11.0058
    1.695   10.8829
    1.710   10.6372
    1.725   10.8478
    1.740   10.2159
    1.755   10.5319
    1.770    9.9702
    1.785    9.9526
    1.800    9.9702
    1.815    9.4260
    1.830    9.2505
    1.845    9.2329
    1.860    9.4085
    1.875    9.0223
    1.890    9.0574
    1.905    9.3558
    1.920    9.3382
    1.935    9.1101
    1.950    9.4260
    1.965    9.4260
    1.980    8.6010
    1.995    9.1452
    2.010    8.6712
    2.025    7.7760
    2.040    8.7239
    2.055    8.1271
    2.070    7.9867
    2.085    7.9340
    2.100    7.7936
    2.115    7.8287
    2.130    7.5127
    2.145    8.1095
    2.160    7.8989
    2.175    7.3021
    2.190    7.3372
    2.205    7.8462
    2.220    7.6005
    2.235    7.0915
    2.250    7.0915
    2.265    7.6356
    2.280    7.0563
    2.295    6.9861
    2.310    7.1441
    2.325    7.2143
    2.340    7.2143
    2.355    6.8984
    2.370    7.3372
    2.385    7.0915
    2.400    7.0212
    2.415    6.9686
    2.430    6.6877
    2.445    6.6175
    2.460    6.8457
    2.475    6.5473
    2.490    6.1260
    2.505    6.6877
    2.520    6.1787
    2.535    6.6526
    2.550    6.9861
    2.565    6.9510
    2.580    6.7228
    2.595    6.8106
    2.610    6.0734
    2.625    6.3016
    2.640    6.5298
    2.655    6.5298
    2.670    6.1085
    2.685    6.0207
    2.700    6.4244
    2.715    6.3718
    2.730    6.2489
    2.745    6.6351
    2.760    5.9681
    2.775    6.0909
    2.790    6.2313
    2.805    6.1611
    2.820    6.5298
    2.835    6.0383
    2.850    6.5122
    2.865    6.4244
    2.880    6.9159
    2.895    6.7404
    2.910    7.1266
    2.925    7.0212
    2.940    6.7053
    2.955    7.3723
    2.970    7.2670
    2.985    7.2670
    3.000    7.7234
    3.015    7.4952
    3.030    7.6356
    3.045    8.1271
    3.060    7.8287
    3.075    8.6010
    3.090    8.2324
    3.105    9.4085
    3.120    9.4085
    3.135    9.7244
    3.150   10.2159
    3.165   10.6547
    3.180   11.2515
    3.195   11.9186
    3.210   12.2696
    3.225   12.9366
    3.240   13.2350
    3.255   13.6212
    3.270   13.9372
    3.285   15.1483
    3.300   16.5701
    3.315   16.7281
    3.330   18.0972
    3.345   19.1504
    3.360   20.3089
    3.375   20.9935
    3.390   21.8009
    3.405   23.1701
    3.420   24.4164
    3.435   25.9786
    3.450   27.9972
    3.465   29.4190
    3.480   31.5078
    3.495   32.8594
    3.510   35.3168
    3.525   37.1775
    3.540   39.4067
    3.555   41.6184
    3.570   45.1817
    3.585   49.7806
    3.600   53.6247
    3.615   57.4162
    3.630   61.8922
    3.645   65.6310
    3.660   70.8092
    3.675   77.5671
    3.690   86.4841
    3.705   94.2250
    3.720  101.2112
    3.735  113.0069
    3.750  125.9259
    3.765  143.9881
    3.780  163.4369
    3.795  192.3293
    3.810  229.6823
    3.825  275.3906
    3.840  302.2468
    3.855  291.5219
    3.870  247.9726
    3.885  189.7665
    3.900  124.4515
    3.915   71.5640
    3.930   35.7557
    3.945   20.6073
    3.960   13.8845
    3.975   11.7781
    3.990    9.4787
    4.005    8.5133
    4.020    6.6526
    4.035    6.8984
    4.050    6.9510
    4.065    6.6000
    4.080    6.3016
    4.095    5.7750
    4.110    5.8803
    4.125    5.8101
    4.140    5.7399
    4.155    5.8101
    4.170    5.5468
    4.185    5.5643
    4.200    5.5994
    4.215    5.3537
    4.230    5.0904
    4.245    5.1606
    4.260    4.8798
    4.275    5.3712
    4.290    5.1606
    4.305    5.0904
    4.320    5.2308
    4.335    5.0728
    4.350    4.8798
    4.365    4.9149
    4.380    5.1606
    4.395    5.2835
    4.410    5.4766
    4.425    5.2484
    4.440    5.4590
    4.455    4.7920
    4.470    5.0904
    4.485    5.5117
    4.500    5.2484
    4.515    4.7920
    4.530    4.9851
    4.545    5.2133
    4.560    5.2484
    4.575    5.2659
    4.590    5.2133
    4.605    5.3888
    4.620    5.3186
    4.635    5.9505
    4.650    5.7925
    4.665    6.0734
    4.680    6.0558
    4.695    6.2313
    4.710    6.8106
    4.725    6.7404
    4.740    6.3718
    4.755    6.5824
    4.770    5.9505
    4.785    5.4941
    4.800    4.7569
    4.815    4.8622
    4.830    4.9324
    4.845    5.0377
    4.860    5.0904
    4.875    4.4936
    4.890    4.5287
    4.905    4.5989
    4.920    4.6691
    4.935    4.8447
    4.950    4.5111
    4.965    4.5989
    4.980    4.7569
    4.995    4.8271
    5.010    4.8271
    5.025    4.7042
    5.040    5.1957
    5.055    5.2835
    5.070    5.5292
    5.085    5.4415
    5.100    6.4244
    5.115    6.7404
    5.130    6.0909
    5.145    6.6175
    5.160    7.3196
    5.175    7.3899
    5.190    7.7760
    5.205    7.7936
    5.220    8.5308
    5.235    8.9872
    5.250    9.5138
    5.265   10.7776
    5.280   11.4622
    5.295   12.2345
    5.310   13.2350
    5.325   15.0255
    5.340   15.7276
    5.355   18.1675
    5.370   20.0632
    5.385   22.3100
    5.400   26.2419
    5.415   29.8578
    5.430   35.9663
    5.445   43.8301
    5.460   47.7971
    5.475   47.2705
    5.490   43.4439
    5.505   34.0355
    5.520   25.3467
    5.535   16.7106
    5.550    9.8297
    5.565    7.1617
    5.580    5.7048
    5.595    5.3186
    5.610    5.1255
    5.625    4.8798
    5.640    4.7042
    5.655    4.3356
    5.670    4.0548
    5.685    4.2654
    5.700    4.1425
    5.715    3.9846
    5.730    3.8617
    5.745    4.0723
    5.760    4.3005
    5.775    4.0021
    5.790    3.8617
    5.805    3.9670
    5.820    4.5287
    5.835    4.2830
    5.850    3.9143
    5.865    4.2303
    5.880    4.1601
    5.895    3.9670
    5.910    4.1074
    5.925    4.1601
    5.940    4.3532
    5.955    4.0021
    5.970    4.0197
    5.985    4.2478
    6.000    3.9143
    6.015    3.8968
    6.030    4.0723
    6.045    3.9143
    6.060    3.9143
    6.075    4.2127
    6.090    3.9670
    6.105    4.4058
    6.120    4.2830
    6.135    3.8968
    6.150    4.2478
    6.165    4.1601
    6.180    3.7213
    6.195    3.8090
    6.210    3.9319
    6.225    4.1074
    6.240    4.0021
    6.255    3.6686
    6.270    3.8968
    6.285    3.6159
    6.300    4.1250
    6.315    4.1250
    6.330    3.9319
    6.345    3.8441
    6.360    4.0372
    6.375    4.6867
    6.390    4.2303
    6.405    4.3356
    6.420    4.3181
    6.435    4.0899
    6.450    4.5111
    6.465    4.4058
    6.480    4.2303
    6.495    4.5638
    6.510    4.4760
    6.525    4.4234
    6.540    5.0202
    6.555    5.1080
    6.570    4.5638
    6.585    5.0026
    6.600    5.8627
    6.615    5.2835
    6.630    5.9505
    6.645    6.4069
    6.660    7.0388
    6.675    8.1973
    6.690    9.2856
    6.705   10.2510
    6.720   10.9882
    6.735   10.0579
    6.750    8.3202
    6.765    6.8633
    6.780    5.8101
    6.795    4.7393
    6.810    4.3883
    6.825    4.2654
    6.840    4.1074
    6.855    4.0372
    6.870    3.7037
    6.885    4.0197
    6.900    4.2654
    6.915    4.0372
    6.930    4.1074
    6.945    3.9319
    6.960    3.8266
    6.975    3.7388
    6.990    4.0197
    7.005    4.0021
    7.020    4.0021
    7.035    4.1425
    7.050    3.7915
    7.065    3.7388
    7.080    3.7739
    7.095    3.5808
    7.110    3.7564
    7.125    3.8968
    7.140    4.0723
    7.155    3.9143
    7.170    3.6510
    7.185    3.7915
    7.200    3.3175
    7.215    3.7213
    7.230    3.8617
    7.245    3.9846
    7.260    3.8266
    7.275    4.3707
    7.290    3.8441
    7.305    3.7739
    7.320    4.1425
    7.335    3.6510
    7.350    3.7564
    7.365    3.7915
    7.380    3.8266
    7.395    4.2478
    7.410    3.8266
    7.425    3.6862
    7.440    4.1776
    7.455    4.0548
    7.470    4.0899
    7.485    4.1425
    7.500    4.2127
    7.515    4.0548
    7.530    4.2654
    7.545    5.0904
    7.560    5.0026
    7.575    5.5643
    7.590    5.6170
    7.605    6.0207
    7.620    6.4946
    7.635    6.7579
    7.650    7.1617
    7.665    7.8111
    7.680    8.4781
    7.695    9.2505
    7.710   10.7952
    7.725   13.3579
    7.740   15.5169
    7.755   18.6589
    7.770   18.0972
    7.785   16.8510
    7.800   14.6393
    7.815   11.1462
    7.830    8.0920
    7.845    6.2840
    7.860    5.0202
    7.875    4.4760
    7.890    3.9670
    7.905    3.8968
    7.920    4.0723
    7.935    4.1074
    7.950    3.8090
    7.965    3.7915
    7.980    3.6335
    7.995    4.0021
    8.010    3.7915
    8.025    4.4234
    8.040    3.7564
    8.055    3.5633
    8.070    3.2473
    8.085    4.2303
    8.100    3.8792
    8.115    3.7037
    8.130    3.9846
    8.145    3.9143
    8.160    3.8441
    8.175    4.0548
    8.190    4.3005
    8.205    4.5111
    8.220    4.1601
    8.235    4.6165
    8.250    4.8271
    8.265    4.3181
    8.280    3.9494
    8.295    4.5287
    8.310    4.0548
    8.325    3.6159
    8.340    3.4053
    8.355    3.9494
    8.370    3.7388
    8.385    3.7213
    8.400    3.3877
    8.415    3.8266
    8.430    3.6686
    8.445    3.7915
    8.460    4.0723
    8.475    3.7915
    8.490    4.0548
    8.505    4.1601
    8.520    4.0372
    8.535    3.6335
    8.550    4.0372
    8.565    4.2830
    8.580    4.3883
    8.595    4.5638
    8.610    4.5989
    8.625    4.7569
    8.640    4.6516
    8.655    5.0553
    8.670    5.2308
    8.685    5.5643
    8.700    5.7750
    8.715    5.5643
    8.730    5.2133
    8.745    4.6340
    8.760    4.4058
    8.775    3.8441
    8.790    3.6159
    8.805    3.8792
    8.820    3.8617
    8.835    3.6510
    8.850    3.6862
    8.865    3.5808
    8.880    3.7564
    8.895    3.8968
    8.910    3.7915
    8.925    3.7739
    8.940    3.7739
    8.955    3.8968
    8.970    3.6686
    8.985    3.7915
    9.000    3.9143
    9.015    3.7739
    9.030    3.9319
    9.045    3.9143
    9.060    3.9494
    9.075    3.7915
    9.090    3.8441
    9.105    3.4580
    9.120    3.6510
    9.135    3.7213
    9.150    4.0021
    9.165    4.0548
    9.180    3.8090
    9.195    3.6862
    9.210    3.9494
    9.225    3.8266
    9.240    3.9143
    9.255    3.6862
    9.270    3.4755
    9.285    4.1425
    9.300    4.4409
    9.315    4.7744
    9.330    5.0728
    9.345    5.4415
    9.360    5.8627
    9.375    5.8978
    9.390    6.6175
    9.405    7.7058
    9.420    8.2324
    9.435    9.0574
    9.450   10.3739
    9.465   11.3569
    9.480   14.1829
    9.495   17.5707
    9.510   20.8004
    9.525   23.5914
    9.540   23.7318
    9.555   21.3972
    9.570   18.4659
    9.585   13.3755
    9.600    9.8122
    9.615    7.1617
    9.630    5.0904
    9.645    4.5638
    9.660    4.2478
    9.675    4.3532
    9.690    3.8968
    9.705    3.8441
    9.720    3.5984
    9.735    3.8441
    9.750    3.7213
    9.765    3.6686
    9.780    3.7213
    9.795    3.5984
    9.810    3.5984
    9.825    3.7213
    9.840    3.4755
    9.855    3.5984
    9.870    3.5808
    9.885    3.2649
    9.900    3.7564
    9.915    3.5106
    9.930    3.0893
    9.945    3.8266
    9.960    3.6862
    9.975    3.3877
    9.990    3.5282
   10.005    3.4229
   10.020    3.4931
   10.035    3.5633
   10.050    3.7388
   10.065    3.6510
   10.080    3.9143
   10.095    3.9494
   10.110    4.1425
   10.125    4.0723
   10.140    4.7393
   10.155    4.6516
   10.170    4.7393
   10.185    4.4760
   10.200    4.7744
   10.215    5.2835
   10.230    5.7574
   10.245    6.9686
   10.260    7.9340
   10.275    8.9872
   10.290    9.6718
   10.305   10.0755
   10.320    9.7244
   10.335    8.8994
   10.350    7.5654
   10.365    5.8452
   10.380    5.0026
   10.395    4.1074
   10.410    4.0372
   10.425    4.2478
   10.440    3.4755
   10.455    3.2473
   10.470    3.6510
   10.485    3.4931
   10.500    3.4053
   10.515    3.2473
   10.530    3.3526
   10.545    3.6686
   10.560    3.6335
   10.575    3.8441
   10.590    3.7388
   10.605    3.5457
   10.620    3.4931
   10.635    3.4053
   10.650    3.6159
   10.665    3.4404
   10.680    3.5633
   10.695    3.7564
   10.710    3.8090
   10.725    3.8266
   10.740    3.8441
   10.755    3.6159
   10.770    3.7564
   10.785    3.5984
   10.800    3.8617
   10.815    4.1074
   10.830    3.9670
   10.845    3.8266
   10.860    4.2654
   10.875    4.3356
   10.890    4.1250
   10.905    4.9324
   10.920    5.0728
   10.935    5.4590
   10.950    6.3542
   10.965    7.2319
   10.980    8.4957
   10.995    9.8999
   11.010   10.9531
   11.025   11.5148
   11.040   10.8303
   11.055    9.8297
   11.070    8.3553
   11.085    6.5298
   11.100    5.1255
   11.115    4.4058
   11.130    4.1952
   11.145    3.8266
   11.160    3.7213
   11.175    3.6335
   11.190    4.0899
   11.205    3.7739
   11.220    3.3702
   11.235    3.8090
   11.250    3.8968
   11.265    3.5282
   11.280    3.5457
   11.295    3.9143
   11.310    3.4931
   11.325    3.8968
   11.340    3.5808
   11.355    3.9143
   11.370    3.8968
   11.385    4.0899
   11.400    3.6686
   11.415    3.9319
   11.430    3.6159
   11.445    3.6510
   11.460    3.7037
   11.475    3.9143
   11.490    4.0197
   11.505    4.0548
   11.520    3.5457
   11.535    3.8792
   11.550    3.8441
   11.565    4.4409
   11.580    4.7920
   11.595    5.5292
   11.610    5.5819
   11.625    6.2489
   11.640    6.7404
   11.655    8.5835
   11.670    9.5840
   11.685   11.2340
   11.700   11.7606
   11.715   11.5148
   11.730   10.2686
   11.745    8.7063
   11.760    7.0915
   11.775    5.2659
   11.790    4.0899
   11.805    4.0548
   11.820    3.7213
   11.835    3.6686
   11.850    3.2122
   11.865    3.3351
   11.880    3.3877
   11.895    3.2649
   11.910    3.2649
   11.925    3.4931
   11.940    3.4053
   11.955    3.4404
   11.970    3.1596
   11.985    3.3000
   12.000    3.3351
   12.015    4.0372
   12.030    3.4755
   12.045    3.4053
   12.060    3.5457
   12.075    3.3702
   12.090    3.3526
   12.105    3.2122
   12.120    3.1596
   12.135    3.2298
   12.150    3.4755
   12.165    3.8441
   12.180    3.2473
   12.195    3.4053
   12.210    3.4755
   12.225    3.3877
   12.240    3.6335
   12.255    3.6510
   12.270    4.1425
   12.285    4.3005
   12.300    4.5638
   12.315    4.7920
   12.330    5.2835
   12.345    5.0377
   12.360    4.6516
   12.375    4.3883
   12.390    3.9846
   12.405    3.6686
   12.420    3.4931
   12.435    3.2122
   12.450    3.1596
   12.465    3.3526
   12.480    3.1420
   12.495    3.4053
   12.510    3.4931
   12.525    3.2298
   12.540    3.2824
   12.555    3.1596
   12.570    3.4580
   12.585    3.3702
   12.600    3.3877
   12.615    3.3000
   12.630    3.5106
   12.645    3.2122
   12.660    3.2824
   12.675    3.2473
   12.690    3.3175
   12.705    3.3702
   12.720    3.4229
   12.735    3.3877
   12.750    3.6686
   12.765    3.5282
   12.780    3.8090
   12.795    3.6510
   12.810    3.6686
   12.825    3.8266
   12.840    3.9846
   12.855    4.8271
   12.870    4.8095
   12.885    5.7574
   12.900    6.0383
   12.915    7.4425
   12.930    7.7936
   12.945    8.7063
   12.960    8.5659
   12.975    7.9340
   12.990    6.5824
   13.005    5.5292
   13.020    4.3707
   13.035    3.9846
   13.050    3.8617
   13.065    3.5808
   13.080    3.5282
   13.095    3.5633
   13.110    3.2824
   13.125    3.3000
   13.140    3.2824
   13.155    3.3000
   13.170    3.1596
   13.185    3.2824
   13.200    3.4229
   13.215    3.1245
   13.230    2.8085
   13.245    2.9665
   13.260    3.4053
   13.275    3.4229
   13.290    3.3000
   13.305    3.5282
   13.320    3.5457
   13.335    3.3877
   13.350    3.6335
   13.365    3.2298
   13.380    3.0718
   13.395    3.7213
   13.410    3.5106
   13.425    4.0021
   13.440    4.2654
   13.455    4.2478
   13.470    4.3356
   13.485    5.0026
   13.500    5.4415
   13.515    5.7048
   13.530    5.7399
   13.545    6.0558
   13.560    5.6345
   13.575    4.7569
   13.590    4.4760
   13.605    3.8792
   13.620    3.8617
   13.635    3.5282
   13.650    3.3526
   13.665    3.0718
   13.680    3.2122
   13.695    3.2649
   13.710    3.3526
   13.725    3.2298
   13.740    3.1420
   13.755    3.1596
   13.770    3.1069
   13.785    3.2649
   13.800    3.2122
   13.815    3.4229
   13.830    3.4229
   13.845    3.1947
   13.860    3.5457
   13.875    3.4404
   13.890    3.1245
   13.905    3.4404
   13.920    3.7213
   13.935    3.5282
   13.950    3.6686
   13.965    3.8441
   13.980    4.0899
   13.995    4.1425
   14.010    4.7569
   14.025    5.4064
   14.040    6.2665
   14.055    6.9335
   14.070    7.8111
   14.085    7.9164
   14.100    8.1446
   14.115    7.7409
   14.130    6.1611
   14.145    5.3537
   14.160    4.5989
   14.175    4.0548
   14.190    3.7213
   14.205    3.6510
   14.220    3.1596
   14.235    3.2298
   14.250    3.3000
   14.265    3.6686
   14.280    3.4580
   14.295    3.2824
   14.310    3.3351
   14.325    3.6510
   14.340    3.4053
   14.355    3.3000
   14.370    3.3175
   14.385    3.0893
   14.400    3.1596
   14.415    2.9489
   14.430    3.1245
   14.445    3.2298
   14.460    3.0191
   14.475    3.0893
   14.490    3.4404
   14.505    3.3526
   14.520    3.5282
   14.535    3.0016
   14.550    3.4755
   14.565    2.9665
   14.580    3.0191
   14.595    3.1420
   14.610    3.2824
   14.625    3.1771
   14.640    3.3526
   14.655    3.5106
   14.670    3.6510
   14.685    3.1771
   14.700    3.1420
   14.715    3.1947
   14.730    3.2122
   14.745    3.6335
   14.760    3.3175
   14.775    3.3877
   14.790    3.2473
   14.805    3.5984
   14.820    2.9665
   14.835    3.2122
   14.850    3.5633
   14.865    3.5457
   14.880    3.4580
   14.895    3.4755
   14.910    3.1245
   14.925    3.2122
   14.940    3.2649
   14.955    3.1420
   14.970    3.3351
   14.985    3.2473
   15.000    3.1245
   15.015    3.1771
   15.030    3.5984
   15.045    3.7037
   15.060    3.8441
   15.075    3.6159
   15.090    3.5808
   15.105    4.0197
   15.120    4.2654
   15.135    4.1425
   15.150    4.8622
   15.165    4.8798
   15.180    4.0197
   15.195    3.8968
   15.210    3.5633
   15.225    3.8090
   15.240    3.3000
   15.255    3.4053
   15.270    3.0893
   15.285    3.2122
   15.300    2.8787
   15.315    3.0191
   15.330    3.3351
   15.345    3.5808
   15.360    3.4229
   15.375    3.5106
   15.390    3.1245
   15.405    3.0016
   15.420    3.6159
   15.435    3.5282
   15.450    3.2122
   15.465    3.1771
   15.480    3.1069
   15.495    3.1596
   15.510    3.0542
   15.525    3.1771
   15.540    3.4580
   15.555    3.2298
   15.570    3.3526
   15.585    2.9840
   15.600    3.4053
   15.615    3.0191
   15.630    3.3526
   15.645    3.1420
   15.660    2.7909
   15.675    2.8963
   15.690    2.7558
   15.705    2.9840
   15.720    2.8612
   15.735    3.0893
   15.750    3.0367
   15.765    2.8787
   15.780    3.3000
   15.795    3.2298
   15.810    3.2473
   15.825    3.0542
   15.840    3.4580
   15.855    3.3351
   15.870    3.6159
   15.885    3.3175
   15.900    3.1947
   15.915    3.0367
   15.930    3.3000
   15.945    3.2473
   15.960    3.2473
   15.975    3.1420
   15.990    2.9489
   16.005    3.1596
   16.020    3.1245
   16.035    3.0718
   16.050    3.7564
   16.065    3.5457
   16.080    3.7915
   16.095    4.0548
   16.110    4.5463
   16.125    4.6516
   16.140    3.9143
   16.155    4.1601
   16.170    4.2478
   16.185    4.1074
   16.200    3.7739
   16.215    3.3526
   16.230    3.1596
   16.245    3.1771
   16.260    3.3175
   16.275    3.2649
   16.290    3.0542
   16.305    3.1771
   16.320    2.8787
   16.335    3.1420
   16.350    3.3877
   16.365    3.3000
   16.380    3.1596
   16.395    3.5633
   16.410    3.4404
   16.425    3.5808
   16.440    3.5106
   16.455    3.3526
   16.470    3.6159
   16.485    3.1245
   16.500    3.2649
   16.515    3.7037
   16.530    3.4053
   16.545    3.8617
   16.560    4.1250
   16.575    4.4936
   16.590    4.3181
   16.605    4.6165
   16.620    4.7218
   16.635    4.3707
   16.650    3.8968
   16.665    3.6159
   16.680    3.2824
   16.695    3.2122
   16.710    3.0718
   16.725    3.0893
   16.740    2.9665
   16.755    3.2298
   16.770    3.3175
   16.785    3.1596
   16.800    3.3175
   16.815    3.2122
   16.830    3.6862
   16.845    3.8792
   16.860    3.7915
   16.875    3.5106
   16.890    3.6159
   16.905    3.5808
   16.920    3.4580
   16.935    3.4053
   16.950    3.5106
   16.965    3.9143
   16.980    4.2654
   16.995    4.5638
   17.010    4.5989
   17.025    5.3888
   17.040    6.3367
   17.055    6.9861
   17.070    6.8633
   17.085    6.1436
   17.100    5.8101
   17.115    5.1431
   17.130    4.8798
   17.145    4.5111
   17.160    3.9494
   17.175    3.3175
   17.190    3.2298
   17.205    3.3000
   17.220    3.7213
   17.235    3.4580
   17.250    3.3175
   17.265    3.1069
   17.280    3.1771
   17.295    3.4053
   17.310    2.8612
   17.325    3.1069
   17.340    3.3351
   17.355    3.3877
   17.370    3.6510
   17.385    3.5984
   17.400    3.4755
   17.415    3.3702
   17.430    3.3877
   17.445    3.6510
   17.460    3.7739
   17.475    3.8617
   17.490    4.0723
   17.505    4.3181
   17.520    4.3005
   17.535    3.8617
   17.550    3.6510
   17.565    3.9143
   17.580    3.7564
   17.595    3.2649
   17.610    3.2298
   17.625    3.6510
   17.640    3.3526
   17.655    2.9489
   17.670    3.4931
   17.685    3.4755
   17.700    3.3000
   17.715    3.5633
   17.730    3.5106
   17.745    3.3351
   17.760    3.5106
   17.775    3.6335
   17.790    3.1771
   17.805    3.1771
   17.820    3.7915
   17.835    3.5633
   17.850    3.1420
   17.865    3.8090
   17.880    3.6510
   17.895    3.9494
   17.910    3.8617
   17.925    4.0899
   17.940    4.2303
   17.955    4.0372
   17.970    3.9494
   17.985    4.2127
   18.000    3.8266
   18.015    3.7213
   18.030    3.9670
   18.045    3.4229
   18.060    3.3526
   18.075    3.3175
   18.090    3.1596
   18.105    3.4580
   18.120    3.3175
   18.135    3.4580
   18.150    3.1947
   18.165    3.3526
   18.180    3.1771
   18.195    3.4580
   18.210    3.5282
   18.225    3.1947
   18.240    3.2473
   18.255    3.2298
   18.270    3.4580
   18.285    3.3526
   18.300    3.4931
   18.315    3.6862
   18.330    3.7388
   18.345    3.6510
   18.360    4.2127
   18.375    4.4058
   18.390    4.2830
   18.405    4.4234
   18.420    4.0899
   18.435    3.9670
   18.450    3.7739
   18.465    3.4229
   18.480    3.5808
   18.495    3.2824
   18.510    3.4053
   18.525    3.4755
   18.540    3.6335
   18.555    3.3877
   18.570    3.0016
   18.585    3.1596
   18.600    3.0191
   18.615    3.2649
   18.630    3.4931
   18.645    3.6335
   18.660    3.1947
   18.675    3.4404
   18.690    3.6159
   18.705    3.3175
   18.720    3.3526
   18.735    3.3702
   18.750    3.5633
   18.765    3.7564
   18.780    3.8090
   18.795    3.8090
   18.810    3.6862
   18.825    3.6335
   18.840    3.7739
   18.855    3.7388
   18.870    4.0197
   18.885    3.2649
   18.900    3.4404
   18.915    3.1947
   18.930    3.1245
   18.945    3.3175
   18.960    3.3877
   18.975    3.2824
   18.990    3.3702
   19.005    3.5808
   19.020    3.3877
   19.035    3.4580
   19.050    3.1596
   19.065    3.1069
   19.080    3.2473
   19.095    3.2298
   19.110    3.4580
   19.125    2.9138
   19.140    2.9665
   19.155    3.3000
   19.170    3.2298
   19.185    3.1947
   19.200    3.4755
   19.215    3.3175
   19.230    3.4053
   19.245    3.0542
   19.260    3.4404
   19.275    3.2122
   19.290    3.2824
   19.305    2.7909
   19.320    3.1947
   19.335    3.1245
   19.350    3.7037
   19.365    3.5984
   19.380    3.1947
   19.395    3.0542
   19.410    3.2649
   19.425    3.1069
   19.440    3.2122
   19.455    3.5457
   19.470    3.8266
   19.485    3.5457
   19.500    3.0016
   19.515    3.1245
   19.530    3.2298
   19.545    3.7388
   19.560    4.2127
   19.575    4.1776
   19.590    4.1425
   19.605    4.3356
   19.620    5.0026
   19.635    4.4585
   19.650    4.0548
   19.665    4.3005
   19.680    3.9670
   19.695    4.0021
   19.710    3.6510
   19.725    3.3526
   19.740    3.8441
   19.755    3.8090
   19.770    3.4053
   19.785    3.0191
   19.800    2.9489
   19.815    2.9138
   19.830    3.3526
   19.845    3.4755
   19.860    3.4755
   19.875    3.3000
   19.890    3.4580
   19.905    3.5106
   19.920    3.4580
   19.935    3.5633
   19.950    3.4931
   19.965    3.0542
   19.980    3.1771
   19.995    3.3175
   20.010    3.8968
   20.025    3.5633
   20.040    3.3000
   20.055    3.5457
   20.070    3.4580
   20.085    3.2824
   20.100    3.3000
   20.115    3.4229
   20.130    3.5282
   20.145    3.3351
   20.160    3.5808
   20.175    3.4053
   20.190    3.3526
   20.205    3.3351
   20.220    3.6159
   20.235    3.2824
   20.250    3.6862
   20.265    3.7213
   20.280    3.6335
   20.295    4.1952
   20.310    3.9319
   20.325    4.1952
   20.340    4.6867
   20.355    5.4941
   20.370    6.0734
   20.385    6.0383
   20.400    6.6175
   20.415    6.3191
   20.430    5.9154
   20.445    4.7920
   20.460    4.4760
   20.475    3.9319
   20.490    3.8090
   20.505    3.6862
   20.520    3.6686
   20.535    3.4580
   20.550    3.3877
   20.565    3.4580
   20.580    3.3351
   20.595    3.0367
   20.610    3.1596
   20.625    2.9665
   20.640    3.4229
   20.655    3.2473
   20.670    3.1069
   20.685    3.2122
   20.700    3.3526
   20.715    3.0893
   20.730    3.6510
   20.745    3.6335
   20.760    3.0718
   20.775    3.3351
   20.790    3.1771
   20.805    3.4229
   20.820    3.5282
   20.835    3.2122
   20.850    3.3175
   20.865    3.1420
   20.880    3.2473
   20.895    3.3351
   20.910    3.4053
   20.925    3.7037
   20.940    3.2824
   20.955    3.4580
   20.970    3.4229
   20.985    3.2649
   21.000    3.3702
   21.015    3.3351
   21.030    3.1947
   21.045    3.2122
   21.060    3.4580
   21.075    3.3702
   21.090    3.3000
   21.105    3.4404
   21.120    3.3877
   21.135    3.3877
   21.150    3.5282
   21.165    3.2473
   21.180    3.3877
   21.195    3.4053
   21.210    3.2473
   21.225    2.7383
   21.240    3.0893
   21.255    3.5984
   21.270    3.2122
   21.285    3.4404
   21.300    3.2122
   21.315    3.1596
   21.330    3.2122
   21.345    3.3702
   21.360    3.2649
   21.375    3.4229
   21.390    3.3351
   21.405    3.2473
   21.420    3.3175
   21.435    3.2298
   21.450    3.5984
   21.465    3.4404
   21.480    3.6510
   21.495    3.0893
   21.510    3.1420
   21.525    3.2298
   21.540    3.1069
   21.555    3.2298
   21.570    3.5984
   21.585    3.5282
   21.600    3.4229
   21.615    3.4404
   21.630    3.5984
   21.645    3.3526
   21.660    3.3000
   21.675    3.1771
   21.690    3.3702
   21.705    3.6686
   21.720    3.4580
   21.735    3.4931
   21.750    3.2649
   21.765    3.6510
   21.780    3.6510
   21.795    3.7915
   21.810    3.7915
   21.825    3.7564
   21.840    4.4058
   21.855    4.6516
   21.870    4.8271
   21.885    4.4585
   21.900    4.0548
   21.915    4.5111
   21.930    4.0548
   21.945    4.1952
   21.960    3.8617
   21.975    3.4053
   21.990    3.5282
   22.005    3.3000
   22.020    2.9489
   22.035    2.9840
   22.050    3.6335
   22.065    3.5106
   22.080    3.5282
   22.095    3.3351
   22.110    3.3526
   22.125    3.3877
   22.140    3.3877
   22.155    3.7213
   22.170    4.2478
   22.185    3.9319
   22.200    3.5106
   22.215    3.7213
   22.230    3.7739
   22.245    3.9846
   22.260    3.5282
   22.275    3.3351
   22.290    3.0718
   22.305    3.7388
   22.320    3.5106
   22.335    3.4755
   22.350    3.6686
   22.365    3.7388
   22.380    3.5808
   22.395    3.4931
   22.410    3.8792
   22.425    3.8792
   22.440    3.5282
   22.455    3.8266
   22.470    3.8617
   22.485    4.0548
   22.500    4.2830
   22.515    4.5111
   22.530    4.8798
   22.545    5.7574
   22.560    5.5819
   22.575    5.7925
   22.590    6.5122
   22.605    5.9329
   22.620    5.4941
   22.635    5.0026
   22.650    4.8447
   22.665    4.3883
   22.680    3.8441
   22.695    3.5633
   22.710    3.5457
   22.725    3.5633
   22.740    3.6862
   22.755    3.6335
   22.770    3.8266
   22.785    3.9670
   22.800    3.9319
   22.815    3.8617
   22.830    3.8441
   22.845    4.0548
   22.860    4.5638
   22.875    5.1782
   22.890    6.0558
   22.905    6.4069
   22.920    6.8808
   22.935    6.9335
   22.950    6.6877
   22.965    6.3542
   22.980    5.7750
   22.995    5.0904
   23.010    4.3707
   23.025    4.3356
   23.040    3.8617
   23.055    3.7739
   23.070    3.5457
   23.085    3.8968
   23.100    3.5282
   23.115    3.6862
   23.130    3.6159
   23.145    3.4404
   23.160    3.3351
   23.175    3.6510
   23.190    3.7213
   23.205    4.3005
   23.220    4.1250
   23.235    4.3883
   23.250    4.3181
   23.265    4.1074
   23.280    4.2478
   23.295    3.8441
   23.310    4.0899
   23.325    4.0372
   23.340    3.7388
   23.355    3.4580
   23.370    3.4931
   23.385    3.4053
   23.400    3.3000
   23.415    3.2473
   23.430    3.3351
   23.445    3.5457
   23.460    3.5808
   23.475    3.4404
   23.490    3.2298
   23.505    3.5106
   23.520    3.4755
   23.535    3.6159
   23.550    3.5457
   23.565    3.2298
   23.580    3.2122
   23.595    3.6510
   23.610    3.5106
   23.625    3.3702
   23.640    3.1947
   23.655    3.4931
   23.670    3.7213
   23.685    3.5984
   23.700    3.5808
   23.715    3.5282
   23.730    3.7915
   23.745    3.5282
   23.760    3.4931
   23.775    3.0718
   23.790    3.2473
   23.805    3.1245
   23.820    3.5106
   23.835    3.4580
   23.850    3.6510
   23.865    3.9846
   23.880    3.7915
   23.895    4.1250
   23.910    4.3181
   23.925    4.4058
   23.940    4.4058
   23.955    4.4409
   23.970    4.2303
   23.985    4.3181
   24.000    4.2830
   24.015    3.8266
   24.030    3.5282
   24.045    3.6510
   24.060    3.4755
   24.075    3.3702
   24.090    3.5457
   24.105    3.5282
   24.120    3.4229
   24.135    3.0893
   24.150    3.0893
   24.165    3.1771
   24.180    3.4229
   24.195    3.1596
   24.210    3.4404
   24.225    3.0191
   24.240    3.1420
   24.255    3.6686
   24.270    3.4053
   24.285    3.2649
   24.300    3.2824
   24.315    3.0367
   24.330    3.4931
   24.345    3.0893
   24.360    3.4053
   24.375    3.3526
   24.390    3.4755
   24.405    3.4229
   24.420    3.1245
   24.435    2.9489
   24.450    3.1771
   24.465    3.1947
   24.480    3.3175
   24.495    3.6510
   24.510    3.6159
   24.525    3.3175
   24.540    3.3526
   24.555    3.4931
   24.570    3.6335
   24.585    3.5984
   24.600    3.7915
   24.615    3.8266
   24.630    3.7388
   24.645    3.3351
   24.660    3.3175
   24.675    3.1245
   24.690    3.4229
   24.705    3.0542
   24.720    3.1420
   24.735    3.5808
   24.750    3.4931
   24.765    3.2649
   24.780    3.3000
   24.795    3.2649
   24.810    3.1596
   24.825    3.1771
   24.840    3.3351
   24.855    2.8787
   24.870    3.3526
   24.885    3.7213
   24.900    3.7213
   24.915    3.5457
   24.930    3.5457
   24.945    3.4931
   24.960    2.9138
   24.975    3.0016
   24.990    3.7388
   25.005    3.4053
   25.020    3.3351
   25.035    3.0718
   25.050    2.9665
   25.065    3.3175
   25.080    3.3702
   25.095    3.3000
   25.110    3.4931
   25.125    3.5808
   25.140    3.5808
   25.155    3.6862
   25.170    3.6159
   25.185    3.4931
   25.200    3.4580
   25.215    3.3877
   25.230    3.5106
   25.245    3.7739
   25.260    3.6159
   25.275    3.7564
   25.290    3.5808
   25.305    3.6335
   25.320    3.3877
   25.335    3.2298
   25.350    3.4229
   25.365    3.3526
   25.380    3.1420
   25.395    3.4755
   25.410    3.6159
   25.425    3.5457
   25.440    3.6686
   25.455    3.0367
   25.470    3.1947
   25.485    3.3000
   25.500    3.4580
   25.515    3.9143
   25.530    3.7564
   25.545    3.3000
   25.560    3.4580
   25.575    3.2824
   25.590    3.4229
   25.605    3.4229
   25.620    3.4229
   25.635    3.3175
   25.650    3.2649
   25.665    3.3000
   25.680    3.4931
   25.695    3.4755
   25.710    3.3702
   25.725    3.4580
   25.740    3.6510
   25.755    4.1425
   25.770    3.8968
   25.785    4.6165
   25.800    4.7569
   25.815    4.8973
   25.830    5.0377
   25.845    4.8095
   25.860    4.9675
   25.875    4.9851
   25.890    4.8798
   25.905    4.3181
   25.920    4.1952
   25.935    4.0899
   25.950    3.7564
   25.965    3.5282
   25.980    3.4404
   25.995    3.3000
   26.010    3.0718
   26.025    3.3526
   26.040    3.0893
   26.055    3.0893
   26.070    3.3000
   26.085    3.1947
   26.100    3.4580
   26.115    3.3877
   26.130    3.5106
   26.145    3.4229
   26.160    3.4229
   26.175    3.4755
   26.190    3.1771
   26.205    3.0718
   26.220    3.2298
   26.235    3.7739
   26.250    3.6862
   26.265    3.2122
   26.280    2.9840
   26.295    3.3175
   26.310    3.2649
   26.325    2.9489
   26.340    3.2473
   26.355    3.3351
   26.370    3.4404
   26.385    3.7564
   26.400    3.9319
   26.415    4.0197
   26.430    3.9143
   26.445    3.9319
   26.460    3.8968
   26.475    3.8617
   26.490    3.8090
   26.505    3.6510
   26.520    3.6335
   26.535    3.3877
   26.550    3.5282
   26.565    3.8792
   26.580    3.5808
   26.595    3.1069
   26.610    3.3877
   26.625    3.4404
   26.640    3.5808
   26.655    3.4404
   26.670    3.3702
   26.685    3.2122
   26.700    3.0367
   26.715    2.8612
   26.730    3.3877
   26.745    3.4404
   26.760    3.2824
   26.775    3.4931
   26.790    3.6862
   26.805    3.0191
   26.820    2.9138
   26.835    3.0893
   26.850    3.2122
   26.865    3.1420
   26.880    3.1420
   26.895    3.4053
   26.910    3.4404
   26.925    3.6686
   26.940    3.6686
   26.955    3.4931
   26.970    3.6862
   26.985    3.5808
   27.000    3.6686
   27.015    3.8792
   27.030    4.1776
   27.045    4.1952
   27.060    4.2127
   27.075    3.9143
   27.090    3.9319
   27.105    3.8090
   27.120    3.4580
   27.135    3.4580
   27.150    3.4755
   27.165    3.3000
   27.180    3.0016
   27.195    2.8612
   27.210    3.3000
   27.225    3.0016
   27.240    3.1069
   27.255    2.8787
   27.270    2.8612
   27.285    3.1596
   27.300    3.5633
   27.315    3.6686
   27.330    3.2122
   27.345    3.1069
   27.360    3.3351
   27.375    3.1420
   27.390    3.1771
   27.405    3.1771
   27.420    3.4755
   27.435    3.5282
   27.450    3.5457
   27.465    3.4229
   27.480    3.1771
   27.495    2.5803
   27.510    2.8612
   27.525    3.2122
   27.540    3.4229
   27.555    3.6335
   27.570    3.5984
   27.585    3.7915
   27.600    3.8090
   27.615    3.8266
   27.630    3.7388
   27.645    4.1074
   27.660    3.6335
   27.675    3.2824
   27.690    3.5457
   27.705    3.5633
   27.720    3.3877
   27.735    2.9314
   27.750    3.4053
   27.765    3.3175
   27.780    3.2473
   27.795    3.1947
   27.810    3.1947
   27.825    3.2649
   27.840    3.2649
   27.855    3.3702
   27.870    3.4229
   27.885    3.0542
   27.900    3.2649
   27.915    3.7564
   27.930    3.3351
   27.945    3.3877
   27.960    3.5457
   27.975    3.2824
   27.990    2.9138
   28.005    3.3702
   28.020    3.0893
   28.035    3.0718
   28.050    3.6335
   28.065    3.7388
   28.080    3.1947
   28.095    3.5106
   28.110    3.5633
   28.125    3.7388
   28.140    3.7037
   28.155    3.9319
   28.170    4.0899
   28.185    4.2478
   28.200    3.9319
   28.215    4.1601
   28.230    4.2478
   28.245    3.7564
   28.260    3.6510
   28.275    4.0899
   28.290    3.6862
   28.305    3.2649
   28.320    3.4404
   28.335    3.1947
   28.350    3.0367
   28.365    3.4580
   28.380    3.5457
   28.395    3.4755
   28.410    3.4580
   28.425    3.7213
   28.440    3.7564
   28.455    3.9143
   28.470    3.5282
   28.485    4.0021
   28.500    3.8090
   28.515    3.8266
   28.530    3.9143
   28.545    3.6335
   28.560    3.8266
   28.575    3.9846
   28.590    3.7213
   28.605    2.9489
   28.620    3.1420
   28.635    3.0367
   28.650    3.1947
   28.665    3.3702
   28.680    3.1596
   28.695    3.0893
   28.710    3.1069
   28.725    3.3000
   28.740    3.5808
   28.755    3.6159
   28.770    3.4404
   28.785    3.1947
   28.800    3.1245
   28.815    3.1771
   28.830    3.0542
   28.845    3.1771
   28.860    2.7207
   28.875    3.2649
   28.890    3.4931
   28.905    2.9840
   28.920    2.9840
   28.935    3.0893
   28.950    3.4580
   28.965    3.3175
   28.980    3.0191
   28.995    2.9665
   29.010    3.1245
   29.025    3.1069
   29.040    3.1947
   29.055    3.4229
   29.070    3.5633
   29.085    3.3702
   29.100    3.1596
   29.115    3.2473
   29.130    3.2649
   29.145    3.0367
   29.160    3.0191
   29.175    3.0893
   29.190    3.0367
   29.205    3.3000
   29.220    3.3175
   29.235    3.5984
   29.250    3.8792
   29.265    3.9494
   29.280    3.8090
   29.295    3.4404
   29.310    4.0372
   29.325    3.7037
   29.340    3.7388
   29.355    3.5984
   29.370    3.3877
   29.385    3.3526
   29.400    3.1420
   29.415    3.1420
   29.430    3.0718
   29.445    3.0718
   29.460    3.0718
   29.475    3.3000
   29.490    3.2298
   29.505    3.3000
   29.520    3.1420
   29.535    3.2298
   29.550    3.3000
   29.565    3.1420
   29.580    3.3351
   29.595    3.0016
   29.610    2.6681
   29.625    2.8436
   29.640    2.7032
   29.655    2.9489
   29.670    2.9489
   29.685    3.2473
   29.700    3.1596
   29.715    3.3000
   29.730    3.2473
   29.745    3.0542
   29.760    3.2473
   29.775    3.2122
   29.790    3.4053
   29.805    2.9840
   29.820    2.9665
   29.835    3.1245
   29.850    3.6159
   29.865    3.4053
   29.880    3.5984
   29.895    3.0191
   29.910    3.0542
   29.925    2.8963
   29.940    3.1596
   29.955    3.1771
   29.970    3.3351
   29.985    3.0191
   30.000    3.0016
   30.015    2.9314
   30.030    2.8085
   30.045    2.9840
   30.060    3.3351
   30.075    3.1420
   30.090    3.2824
   30.105    3.2473
   30.120    3.4053
   30.135    3.3000
   30.150    3.0191
   30.165    2.9138
   30.180    3.0191
   30.195    3.1771
   30.210    3.4580
   30.225    2.9489
   30.240    3.4755
   30.255    3.0016
   30.270    3.1420
   30.285    2.9840
   30.300    3.0542
   30.315    3.0893
   30.330    2.9314
   30.345    3.0191
   30.360    3.4931
   30.375    3.3175
   30.390    3.5808
   30.405    3.1947
   30.420    3.2824
   30.435    3.0191
   30.450    3.0016
   30.465    3.1245
   30.480    3.1069
   30.495    2.9314
   30.510    3.0893
   30.525    3.2649
   30.540    3.1596
   30.555    3.0191
   30.570    2.8612
   30.585    2.9138
   30.600    2.9138
   30.615    3.3702
   30.630    3.2122
   30.645    3.3877
   30.660    3.2298
   30.675    3.6159
   30.690    3.3877
   30.705    3.5633
   30.720    3.0718
   30.735    3.2473
   30.750    2.8612
   30.765    2.7909
   30.780    2.7909
   30.795    3.2649
   30.810    2.9665
   30.825    2.8963
   30.840    3.0542
   30.855    3.1245
   30.870    2.7383
   30.885    2.9665
   30.900    2.8436
   30.915    2.9840
   30.930    3.1420
   30.945    3.2122
   30.960    3.2473
   30.975    3.1420
   30.990    2.9840
   31.005    3.1069
   31.020    2.8787
   31.035    3.2473
   31.050    3.0367
   31.065    3.1069
   31.080    2.8612
   31.095    3.0016
   31.110    2.9314
   31.125    3.0718
   31.140    2.9665
   31.155    2.8787
   31.170    3.0367
   31.185    2.8260
   31.200    2.8260
   31.215    3.0367
   31.230    2.9840
   31.245    2.9665
   31.260    3.4229
   31.275    3.1771
   31.290    3.2122
   31.305    3.0016
   31.320    3.2122
   31.335    3.3000
   31.350    3.4404
   31.365    3.3526
   31.380    3.5633
   31.395    3.6159
   31.410    3.3702
   31.425    3.4053
   31.440    3.4229
   31.455    3.7213
   31.470    3.4229
   31.485    3.2824
   31.500    3.4053
   31.515    3.0718
   31.530    3.4580
   31.545    3.1771
   31.560    2.9489
   31.575    2.9840
   31.590    3.3702
   31.605    3.3526
   31.620    3.0718
   31.635    3.3000
   31.650    3.2298
   31.665    3.0893
   31.680    3.6335
   31.695    3.1771
   31.710    3.0367
   31.725    3.0893
   31.740    3.3000
   31.755    3.3000
   31.770    3.6686
   31.785    2.9489
   31.800    3.5984
   31.815    3.8792
   31.830    3.3877
   31.845    3.3000
   31.860    3.2122
   31.875    2.9665
   31.890    3.0542
   31.905    3.2473
   31.920    3.3000
   31.935    3.2473
   31.950    3.4755
   31.965    3.0542
   31.980    3.2122
   31.995    2.8963
   32.010    3.2298
   32.025    3.1420
   32.040    2.6856
   32.055    2.9138
   32.070    2.7207
   32.085    2.9138
   32.100    3.5282
   32.115    3.0542
   32.130    2.8085
   32.145    3.1245
   32.160    3.3877
   32.175    3.3000
   32.190    3.2649
   32.205    3.3000
   32.220    2.8963
   32.235    2.9138
   32.250    3.2473
   32.265    3.1069
   32.280    3.1069
   32.295    2.5979
   32.310    3.1245
   32.325    3.5106
   32.340    3.2122
   32.355    3.0718
   32.370    3.2824
   32.385    3.0542
   32.400    2.8436
   32.415    3.0016
   32.430    3.0016
   32.445    3.1069
   32.460    2.7734
   32.475    3.0542
   32.490    3.0191
   32.505    2.9665
   32.520    2.9489
   32.535    2.7909
   32.550    3.3000
   32.565    2.6154
   32.580    2.7558
   32.595    3.0893
   32.610    2.9840
   32.625    2.8787
   32.640    2.8787
   32.655    2.7909
   32.670    3.0542
   32.685    3.1069
   32.700    2.8787
   32.715    2.6505
   32.730    2.8436
   32.745    2.8436
   32.760    2.5628
   32.775    2.7207
   32.790    3.3351
   32.805    3.0542
   32.820    3.1420
   32.835    3.1596
   32.850    2.9138
   32.865    2.8612
   32.880    2.8963
   32.895    3.3000
   32.910    3.2824
   32.925    3.7739
   32.940    3.3000
   32.955    3.1069
   32.970    2.6154
   32.985    3.2824
   33.000    3.2473
   33.015    2.7734
   33.030    2.7909
   33.045    2.9138
   33.060    2.8436
   33.075    2.7207
   33.090    2.5979
   33.105    3.2473
   33.120    3.3351
   33.135    2.6505
   33.150    2.8085
   33.165    3.0191
   33.180    3.1069
   33.195    3.0191
   33.210    2.8260
   33.225    2.8260
   33.240    3.0016
   33.255    2.8436
   33.270    3.0016
   33.285    3.1947
   33.300    2.9314
   33.315    2.7909
   33.330    2.9489
   33.345    2.9314
   33.360    2.9489
   33.375    2.6856
   33.390    2.7383
   33.405    3.1947
   33.420    2.7909
   33.435    2.6681
   33.450    2.4750
   33.465    2.9840
   33.480    2.6856
   33.495    2.7383
   33.510    2.8085
   33.525    2.7207
   33.540    2.8260
   33.555    2.8963
   33.570    2.7383
   33.585    2.8260
   33.600    2.9314
   33.615    2.9314
   33.630    2.9840
   33.645    2.9840
   33.660    2.8085
   33.675    2.9665
   33.690    3.1596
   33.705    3.2473
   33.720    2.7734
   33.735    2.8612
   33.750    2.6330
   33.765    2.8260
   33.780    2.4750
   33.795    2.5979
   33.810    2.8963
   33.825    3.0016
   33.840    3.1596
   33.855    3.3526
   33.870    3.4755
   33.885    3.3000
   33.900    3.4580
   33.915    3.4053
   33.930    3.3526
   33.945    3.3877
   33.960    3.2473
   33.975    3.1947
   33.990    3.4580
   34.005    3.0191
   34.020    2.7558
   34.035    2.9314
   34.050    3.1947
   34.065    3.2473
   34.080    3.0016
   34.095    2.8963
   34.110    3.1069
   34.125    3.2473
   34.140    3.0718
   34.155    2.7558
   34.170    2.7734
   34.185    2.9489
   34.200    2.8085
   34.215    3.2473
   34.230    2.8260
   34.245    2.6505
   34.260    2.8436
   34.275    2.7207
   34.290    2.7734
   34.305    2.7383
   34.320    2.8085
   34.335    3.1596
   34.350    3.0016
   34.365    2.9840
   34.380    2.8436
   34.395    2.7032
   34.410    2.8963
   34.425    3.0718
   34.440    3.0893
   34.455    2.6681
   34.470    2.6154
   34.485    2.7383
   34.500    2.7734
   34.515    2.5101
   34.530    2.6681
   34.545    3.1245
   34.560    3.2122
   34.575    3.0542
   34.590    2.7032
   34.605    3.1420
   34.620    3.0367
   34.635    2.6681
   34.650    2.4750
   34.665    2.5628
   34.680    2.8436
   34.695    2.9138
   34.710    2.9314
   34.725    2.9665
   34.740    2.9314
   34.755    2.7734
   34.770    2.7909
   34.785    3.0191
   34.800    2.9138
   34.815    3.0367
   34.830    2.9665
   34.845    3.2298
   34.860    3.0191
   34.875    3.0191
   34.890    2.7734
   34.905    2.8436
   34.920    2.4574
   34.935    2.7383
   34.950    2.8963
   34.965    2.7734
   34.980    2.4399
   34.995    2.6330
   35.010    2.6505
   35.025    2.5979
   35.040    2.9840
   35.055    2.7909
   35.070    2.6681
   35.085    2.7032
   35.100    3.0542
   35.115    2.9840
   35.130    2.7032
   35.145    2.4574
   35.160    2.4574
   35.175    2.6330
   35.190    2.7734
   35.205    2.4925
   35.220    2.8963
   35.235    3.0367
   35.250    2.6856
   35.265    2.9138
   35.280    2.7032
   35.295    2.9314
   35.310    2.9138
   35.325    2.5979
   35.340    2.9138
   35.355    3.0191
   35.370    2.7383
   35.385    2.9665
   35.400    2.5628
   35.415    2.6154
   35.430    2.5979
   35.445    2.7734
   35.460    2.4399
   35.475    2.7207
   35.490    2.5101
   35.505    2.4574
   35.520    2.7909
   35.535    2.5452
   35.550    2.8612
   35.565    2.9489
   35.580    2.5276
   35.595    3.0367
   35.610    2.4399
   35.625    2.7558
   35.640    2.6681
   35.655    3.0191
   35.670    2.7734
   35.685    2.9138
   35.700    2.4925
   35.715    2.7558
   35.730    2.9489
   35.745    2.5452
   35.760    2.7383
   35.775    2.7558
   35.790    2.7909
   35.805    2.8787
   35.820    2.9314
   35.835    2.7558
   35.850    2.5803
   35.865    2.8963
   35.880    3.0016
   35.895    2.6681
   35.910    3.1069
   35.925    3.1596
   35.940    3.0191
   35.955    2.9665
   35.970    3.0542
   35.985    2.9314
   36.000    2.4399
   36.015    2.5979
   36.030    3.1245
   36.045    3.0893
   36.060    2.9138
   36.075    2.9840
   36.090    2.8787
   36.105    2.8612
   36.120    2.7207
   36.135    2.4223
   36.150    2.7734
   36.165    2.8436
   36.180    2.8612
   36.195    2.8085
   36.210    2.9665
   36.225    2.8612
   36.240    3.1069
   36.255    3.1947
   36.270    2.7558
   36.285    2.4750
   36.300    2.6505
   36.315    2.9489
   36.330    3.0016
   36.345    2.8436
   36.360    2.9489
   36.375    2.8436
   36.390    2.6505
   36.405    2.5452
   36.420    2.7207
   36.435    3.0718
   36.450    2.8963
   36.465    2.6681
   36.480    2.5101
   36.495    2.5628
   36.510    2.4574
   36.525    2.6681
   36.540    2.8787
   36.555    2.8436
   36.570    2.8787
   36.585    2.6856
   36.600    2.7032
   36.615    2.6856
   36.630    3.0367
   36.645    2.8436
   36.660    2.9665
   36.675    2.6856
   36.690    2.7734
   36.705    2.9665
   36.720    3.0367
   36.735    3.0893
   36.750    3.4053
   36.765    3.0542
   36.780    3.1420
   36.795    2.7558
   36.810    2.8085
   36.825    2.7383
   36.840    2.6681
   36.855    2.6681
   36.870    2.5979
   36.885    2.8436
   36.900    2.6505
   36.915    3.0016
   36.930    2.5101
   36.945    2.7032
   36.960    3.0718
   36.975    2.9314
   36.990    2.8260
   37.005    3.0367
   37.020    3.0718
   37.035    2.7734
   37.050    2.9138
   37.065    3.1245
   37.080    3.0016
   37.095    2.9665
   37.110    2.7734
   37.125    3.0542
   37.140    2.9489
   37.155    2.7909
   37.170    3.1420
   37.185    3.2298
   37.200    3.1596
   37.215    2.9138
   37.230    3.1245
   37.245    3.0542
   37.260    3.0542
   37.275    2.6505
   37.290    2.8436
   37.305    2.6154
   37.320    2.6681
   37.335    2.5979
   37.350    2.7207
   37.365    2.5276
   37.380    2.7032
   37.395    2.5979
   37.410    2.5803
   37.425    2.3521
   37.440    2.7032
   37.455    2.6505
   37.470    2.7383
   37.485    3.0016
   37.500    2.8612
   37.515    2.6681
   37.530    2.6330
   37.545    2.6856
   37.560    2.8260
   37.575    2.8963
   37.590    2.6330
   37.605    2.3170
   37.620    2.7207
   37.635    2.2643
   37.650    2.5979
   37.665    2.8260
   37.680    2.9489
   37.695    2.7207
   37.710    2.6505
   37.725    3.0893
   37.740    3.0893
   37.755    2.5101
   37.770    2.6856
   37.785    2.8436
   37.800    2.9489
   37.815    2.8612
   37.830    2.6856
   37.845    3.0718
   37.860    2.8787
   37.875    2.9314
   37.890    2.9489
   37.905    2.9138
   37.920    2.6505
   37.935    2.8260
   37.950    3.0367
   37.965    2.8260
   37.980    2.9138
   37.995    2.7207
   38.010    2.9314
   38.025    2.9489
   38.040    2.6330
   38.055    2.7207
   38.070    2.7383
   38.085    2.6154
   38.100    2.8612
   38.115    2.9314
   38.130    2.4750
   38.145    2.4048
   38.160    2.3521
   38.175    2.8787
   38.190    2.5803
   38.205    2.7558
   38.220    2.6856
   38.235    2.5276
   38.250    2.6330
   38.265    2.5803
   38.280    2.6681
   38.295    2.9314
   38.310    2.7207
   38.325    2.5452
   38.340    2.6154
   38.355    2.8787
   38.370    2.7558
   38.385    2.8085
   38.400    2.8260
   38.415    2.5276
   38.430    2.8963
   38.445    2.8085
   38.460    2.9138
   38.475    2.7909
   38.490    2.9138
   38.505    2.6505
   38.520    2.9489
   38.535    2.7383
   38.550    2.6681
   38.565    2.5628
   38.580    2.5101
   38.595    2.8436
   38.610    2.8260
   38.625    2.5979
   38.640    2.4750
   38.655    2.5628
   38.670    2.8436
   38.685    2.4574
   38.700    2.7383
   38.715    2.7207
   38.730    2.6856
   38.745    2.6505
   38.760    2.6330
   38.775    2.7734
   38.790    2.6856
   38.805    2.5628
   38.820    2.7909
   38.835    2.8963
   38.850    2.5803
   38.865    3.0016
   38.880    2.2995
   38.895    2.6505
   38.910    2.7207
   38.925    2.7207
   38.940    2.5276
   38.955    2.7207
   38.970    2.8612
   38.985    2.9665
   39.000    2.8436
   39.015    2.6681
   39.030    2.9665
   39.045    2.7734
   39.060    2.6681
   39.075    2.5979
   39.090    2.5979
   39.105    2.7558
   39.120    2.8436
   39.135    2.5276
   39.150    2.4925
   39.165    2.3521
   39.180    2.2995
   39.195    2.8612
   39.210    2.7383
   39.225    2.6505
   39.240    2.6856
   39.255    2.4399
   39.270    2.4048
   39.285    2.9840
   39.300    2.8787
   39.315    2.7032
   39.330    2.7558
   39.345    2.5803
   39.360    2.7734
   39.375    2.9840
   39.390    2.7383
   39.405    2.5803
   39.420    2.7207
   39.435    2.8963
   39.450    2.5101
   39.465    2.7032
   39.480    2.5628
   39.495    2.7558
   39.510    2.6154
   39.525    2.8612
   39.540    2.6681
   39.555    2.3697
   39.570    2.2819
   39.585    2.4925
   39.600    2.7207
   39.615    2.7032
   39.630    2.6681
   39.645    2.8963
   39.660    2.5803
   39.675    2.6856
   39.690    2.7207
   39.705    2.7383
   39.720    2.5452
   39.735    2.9840
   39.750    2.7558
   39.765    2.5452
   39.780    2.5101
   39.795    2.7734
   39.810    2.5803
   39.825    2.6330
   39.840    2.6330
   39.855    2.4574
   39.870    2.4048
   39.885    2.4574
   39.900    2.5979
   39.915    2.3872
   39.930    3.0367
   39.945    3.0718
   39.960    3.1420
   39.975    2.6681
   39.990    2.2819
