    1.500   59.6419
    1.515   60.1790
    1.530   59.1048
    1.545   58.7151
    1.560   57.2196
    1.575   55.1132
    1.590   54.3023
    1.605   52.5434
    1.620   51.6798
    1.635   50.9531
    1.650   48.2570
    1.665   47.4250
    1.680   46.8246
    1.695   45.4976
    1.710   43.5703
    1.725   44.4550
    1.740   43.1806
    1.755   42.3486
    1.770   41.0111
    1.785   40.2001
    1.800   39.2101
    1.815   37.0721
    1.830   36.6825
    1.845   35.6609
    1.860   35.0395
    1.875   34.5234
    1.890   34.1338
    1.905   33.1648
    1.920   33.3228
    1.935   32.1854
    1.950   30.8057
    1.965   30.6161
    1.980   30.2580
    1.995   29.9210
    2.010   29.4787
    2.025   28.9100
    2.040   28.3623
    2.055   27.1617
    2.070   27.7304
    2.085   26.3296
    2.100   25.4766
    2.115   25.5292
    2.130   25.7293
    2.145   25.1080
    2.160   23.8441
    2.175   23.1806
    2.190   23.0226
    2.205   22.4329
    2.220   22.4013
    2.235   21.9484
    2.250   21.3270
    2.265   20.8531
    2.280   20.3897
    2.295   21.0637
    2.310   19.9052
    2.325   19.8947
    2.340   19.6209
    2.355   18.6625
    2.370   18.2201
    2.385   17.9463
    2.400   18.7888
    2.415   17.4724
    2.430   17.4408
    2.445   17.2407
    2.460   17.8726
    2.475   17.5671
    2.490   16.1453
    2.505   16.1559
    2.520   15.8399
    2.535   15.4292
    2.550   15.2501
    2.565   15.0290
    2.580   14.7551
    2.595   15.0606
    2.610   14.4076
    2.625   14.3655
    2.640   14.2180
    2.655   13.1543
    2.670   13.7862
    2.685   13.5966
    2.700   13.3333
    2.715   12.8489
    2.730   12.2486
    2.745   12.6804
    2.760   12.9963
    2.775   12.9858
    2.790   12.4276
    2.805   12.2801
    2.820   12.1748
    2.835   11.6272
    2.850   11.2480
    2.865   11.8589
    2.880   11.3007
    2.895   11.1216
    2.910   11.5008
    2.925   11.6588
    2.940   10.5424
    2.955   10.9637
    2.970   11.1427
    2.985   10.7109
    3.000   10.7214
    3.015   10.7004
    3.030    9.9421
    3.045   10.4160
    3.060    9.9737
    3.075    9.5945
    3.090    9.5103
    3.105   10.1211
    3.120    9.6051
    3.135    9.1101
    3.150    9.3734
    3.165    9.0785
    3.180    9.7209
    3.195    9.2575
    3.210    8.6045
    3.225    8.9310
    3.240    8.8994
    3.255    8.7204
    3.270    8.6467
    3.285    8.2886
    3.300    8.4887
    3.315    8.0147
    3.330    8.4571
    3.345    8.7941
    3.360    8.8046
    3.375    8.2780
    3.390    7.5513
    3.405    7.8462
    3.420    7.8462
    3.435    8.0253
    3.450    7.9200
    3.465    7.4355
    3.480    7.7830
    3.495    7.3828
    3.510    7.8041
    3.525    7.9831
    3.540    7.2880
    3.555    7.3196
    3.570    7.8041
    3.585    7.6672
    3.600    7.4671
    3.615    7.1933
    3.630    7.3723
    3.645    7.4250
    3.660    6.8773
    3.675    7.0879
    3.690    7.4039
    3.705    7.0563
    3.720    6.9300
    3.735    6.8352
    3.750    6.8562
    3.765    7.1511
    3.780    6.7930
    3.795    6.9194
    3.810    6.6877
    3.825    6.6140
    3.840    6.7088
    3.855    7.4039
    3.870    6.6561
    3.885    6.3402
    3.900    6.6245
    3.915    6.5403
    3.930    6.2033
    3.945    6.4350
    3.960    6.2349
    3.975    6.1717
    3.990    6.4771
    4.005    6.1822
    4.020    5.9294
    4.035    6.0137
    4.050    6.1190
    4.065    6.5403
    4.080    6.1822
    4.095    6.1295
    4.110    5.8978
    4.125    5.9505
    4.140    6.1085
    4.155    6.1611
    4.170    5.7715
    4.185    6.0348
    4.200    5.8241
    4.215    6.0137
    4.230    6.1295
    4.245    5.8241
    4.260    6.2559
    4.275    5.9505
    4.290    5.8662
    4.305    5.5503
    4.320    5.9400
    4.335    5.7820
    4.350    5.7609
    4.365    5.6240
    4.380    5.7293
    4.395    5.5714
    4.410    5.7188
    4.425    5.8768
    4.440    5.8873
    4.455    5.7609
    4.470    5.5503
    4.485    5.8347
    4.500    5.2975
    4.515    5.4766
    4.530    5.5819
    4.545    5.6872
    4.560    5.3291
    4.575    5.8241
    4.590    5.5819
    4.605    5.1606
    4.620    5.5082
    4.635    5.3712
    4.650    5.7715
    4.665    5.5714
    4.680    5.7399
    4.695    5.6240
    4.710    5.2765
    4.725    5.1501
    4.740    5.0974
    4.755    5.0869
    4.770    5.6345
    4.785    5.5082
    4.800    5.5398
    4.815    5.6451
    4.830    5.5082
    4.845    5.3291
    4.860    5.4766
    4.875    5.6661
    4.890    5.2449
    4.905    5.0869
    4.920    5.3818
    4.935    5.1817
    4.950    5.2343
    4.965    5.4028
    4.980    5.3607
    4.995    5.2027
    5.010    5.2870
    5.025    5.1501
    5.040    5.0132
    5.055    4.9184
    5.070    5.4555
    5.085    5.0132
    5.100    4.9394
    5.115    5.3186
    5.130    5.3291
    5.145    4.9184
    5.160    4.8552
    5.175    5.0658
    5.190    5.2133
    5.205    5.6345
    5.220    4.8973
    5.235    4.8973
    5.250    4.8552
    5.265    5.3291
    5.280    5.0342
    5.295    5.0342
    5.310    5.0974
    5.325    5.1922
    5.340    5.0764
    5.355    5.0869
    5.370    5.1922
    5.385    4.9710
    5.400    4.9184
    5.415    5.0026
    5.430    4.9710
    5.445    4.8341
    5.460    4.8341
    5.475    4.6130
    5.490    5.0974
    5.505    5.1395
    5.520    4.8763
    5.535    4.7920
    5.550    4.7709
    5.565    5.0869
    5.580    5.0869
    5.595    5.0764
    5.610    5.2133
    5.625    5.3081
    5.640    4.9500
    5.655    4.9289
    5.670    5.2027
    5.685    4.8763
    5.700    4.9500
    5.715    4.8973
    5.730    4.6445
    5.745    4.7709
    5.760    5.2449
    5.775    5.1080
    5.790    4.9921
    5.805    4.5076
    5.820    4.6972
    5.835    4.8131
    5.850    5.0132
    5.865    4.9078
    5.880    4.9500
    5.895    4.6972
    5.910    4.7604
    5.925    4.5603
    5.940    4.6340
    5.955    5.0658
    5.970    5.0553
    5.985    4.7077
    6.000    4.8025
    6.015    5.0026
    6.030    4.9289
    6.045    4.8763
    6.060    4.9710
    6.075    4.9394
    6.090    4.8657
    6.105    4.7288
    6.120    4.7604
    6.135    4.7288
    6.150    4.9500
    6.165    4.6761
    6.180    4.6656
    6.195    4.6024
    6.210    4.6656
    6.225    4.5603
    6.240    4.8657
    6.255    5.0869
    6.270    4.7499
    6.285    4.3602
    6.300    4.5392
    6.315    4.7815
    6.330    5.2133
    6.345    4.9816
    6.360    4.4760
    6.375    4.6445
    6.390    4.6656
    6.405    4.7604
    6.420    4.9710
    6.435    4.9078
    6.450    5.0658
    6.465    4.8131
    6.480    4.6551
    6.495    5.0132
    6.510    4.7709
    6.525    4.7499
    6.540    4.8131
    6.555    4.9394
    6.570    4.8341
    6.585    4.9605
    6.600    4.6130
    6.615    4.7709
    6.630    5.1395
    6.645    4.8868
    6.660    4.6130
    6.675    4.7920
    6.690    4.7815
    6.705    4.8763
    6.720    4.6130
    6.735    4.6445
    6.750    4.7709
    6.765    4.7393
    6.780    4.6340
    6.795    4.5498
    6.810    4.5603
    6.825    4.9184
    6.840    4.7393
    6.855    4.6235
    6.870    4.5287
    6.885    4.8447
    6.900    4.7393
    6.915    4.4023
    6.930    4.8763
    6.945    4.8657
    6.960    4.7920
    6.975    4.7604
    6.990    4.8657
    7.005    4.9394
    7.020    4.9394
    7.035    4.5919
    7.050    4.8341
    7.065    4.5287
    7.080    4.6761
    7.095    4.7183
    7.110    5.0237
    7.125    4.7077
    7.140    4.6235
    7.155    4.7920
    7.170    4.4760
    7.185    4.7920
    7.200    4.7920
    7.215    4.4550
    7.230    4.6761
    7.245    4.8131
    7.260    4.6761
    7.275    4.8763
    7.290    4.5182
    7.305    4.5076
    7.320    4.5498
    7.335    4.9289
    7.350    4.7815
    7.365    4.8236
    7.380    5.2449
    7.395    4.7604
    7.410    4.5076
    7.425    5.1817
    7.440    4.6761
    7.455    4.6024
    7.470    4.8025
    7.485    4.8341
    7.500    4.6972
    7.515    4.6445
    7.530    4.9710
    7.545    4.6024
    7.560    4.5182
    7.575    4.8868
    7.590    4.6972
    7.605    4.8763
    7.620    4.7183
    7.635    4.7288
    7.650    4.7604
    7.665    4.6445
    7.680    4.8763
    7.695    4.5814
    7.710    4.5182
    7.725    4.8341
    7.740    4.9078
    7.755    4.9921
    7.770    4.8763
    7.785    4.8868
    7.800    4.7499
    7.815    4.8131
    7.830    4.5076
    7.845    4.6551
    7.860    4.7709
    7.875    4.7709
    7.890    4.4550
    7.905    4.6340
    7.920    4.7815
    7.935    4.8341
    7.950    4.7815
    7.965    4.8236
    7.980    4.8657
    7.995    4.8447
    8.010    4.3918
    8.025    4.8236
    8.040    4.7499
    8.055    4.9921
    8.070    5.1711
    8.085    5.0869
    8.100    4.9078
    8.115    4.7393
    8.130    5.3186
    8.145    5.1185
    8.160    4.9394
    8.175    4.9816
    8.190    4.8341
    8.205    4.7499
    8.220    4.8868
    8.235    4.5919
    8.250    4.8973
    8.265    4.5498
    8.280    4.8131
    8.295    4.8236
    8.310    4.5919
    8.325    4.7604
    8.340    4.4971
    8.355    4.6024
    8.370    4.9816
    8.385    5.1290
    8.400    4.9921
    8.415    4.8552
    8.430    4.7077
    8.445    4.7077
    8.460    4.5814
    8.475    4.5919
    8.490    4.9078
    8.505    4.8973
    8.520    5.2238
    8.535    5.1080
    8.550    4.8552
    8.565    5.0764
    8.580    4.7604
    8.595    4.8341
    8.610    4.9921
    8.625    4.9394
    8.640    4.8552
    8.655    4.6130
    8.670    4.7077
    8.685    4.7604
    8.700    4.9078
    8.715    4.8552
    8.730    4.7077
    8.745    4.8868
    8.760    4.8763
    8.775    4.7499
    8.790    4.6972
    8.805    4.6024
    8.820    4.8973
    8.835    4.6972
    8.850    4.7499
    8.865    4.8552
    8.880    4.7604
    8.895    5.0974
    8.910    4.9500
    8.925    4.6445
    8.940    4.8763
    8.955    5.0026
    8.970    5.0026
    8.985    4.7604
    9.000    5.0869
    9.015    5.0132
    9.030    4.7604
    9.045    4.7077
    9.060    4.9394
    9.075    5.2027
    9.090    4.9394
    9.105    4.6761
    9.120    4.6235
    9.135    4.9184
    9.150    4.8868
    9.165    4.9605
    9.180    4.9289
    9.195    5.0342
    9.210    4.8236
    9.225    4.9605
    9.240    5.0974
    9.255    5.1817
    9.270    5.0237
    9.285    4.9710
    9.300    5.1922
    9.315    4.8552
    9.330    4.8025
    9.345    5.0237
    9.360    5.1922
    9.375    5.1185
    9.390    5.1606
    9.405    5.1711
    9.420    4.8025
    9.435    4.9394
    9.450    4.9605
    9.465    4.6761
    9.480    4.7920
    9.495    4.9921
    9.510    5.1395
    9.525    4.6551
    9.540    5.0764
    9.555    5.1080
    9.570    5.1395
    9.585    4.7499
    9.600    4.9394
    9.615    5.1922
    9.630    5.0026
    9.645    5.1290
    9.660    5.0237
    9.675    5.0026
    9.690    5.0869
    9.705    4.8973
    9.720    4.9921
    9.735    5.1711
    9.750    4.9921
    9.765    5.1080
    9.780    5.0132
    9.795    5.2027
    9.810    5.1922
    9.825    4.9816
    9.840    4.9605
    9.855    5.2449
    9.870    5.1290
    9.885    5.2975
    9.900    4.8763
    9.915    4.7499
    9.930    5.0764
    9.945    5.2343
    9.960    5.3502
    9.975    5.2975
    9.990    5.0237
   10.005    4.6656
   10.020    5.1185
   10.035    4.8868
   10.050    5.1817
   10.065    4.8552
   10.080    4.6761
   10.095    5.1080
   10.110    4.9500
   10.125    4.9710
   10.140    4.8973
   10.155    5.0974
   10.170    5.5292
   10.185    5.1922
   10.200    5.4450
   10.215    5.3502
   10.230    4.9605
   10.245    5.2133
   10.260    5.0764
   10.275    4.8868
   10.290    5.2343
   10.305    5.1817
   10.320    4.9500
   10.335    4.9289
   10.350    5.2133
   10.365    5.0869
   10.380    5.0553
   10.395    4.9710
   10.410    5.0342
   10.425    5.0658
   10.440    5.0342
   10.455    5.0764
   10.470    4.8763
   10.485    4.9921
   10.500    5.1395
   10.515    4.8552
   10.530    5.2343
   10.545    5.4766
   10.560    4.8763
   10.575    4.9078
   10.590    4.8973
   10.605    4.8657
   10.620    4.7288
   10.635    5.4871
   10.650    5.2238
   10.665    4.9710
   10.680    4.9289
   10.695    5.1922
   10.710    5.3291
   10.725    5.2975
   10.740    5.1711
   10.755    5.1711
   10.770    5.1606
   10.785    5.0764
   10.800    4.9605
   10.815    5.2449
   10.830    5.1817
   10.845    4.8973
   10.860    5.2027
   10.875    5.2133
   10.890    5.1817
   10.905    5.0553
   10.920    4.6656
   10.935    5.0342
   10.950    4.7183
   10.965    4.9394
   10.980    4.9921
   10.995    4.7709
   11.010    4.6656
   11.025    4.7604
   11.040    4.7604
   11.055    4.8025
   11.070    5.2238
   11.085    5.0658
   11.100    4.9710
   11.115    5.0448
   11.130    5.1290
   11.145    4.8341
   11.160    4.8552
   11.175    5.1606
   11.190    5.2238
   11.205    4.8025
   11.220    4.9394
   11.235    4.8025
   11.250    4.7288
   11.265    4.8868
   11.280    4.7815
   11.295    5.1501
   11.310    5.0342
   11.325    4.9289
   11.340    4.8131
   11.355    4.7183
   11.370    4.5814
   11.385    4.9394
   11.400    5.1817
   11.415    4.9078
   11.430    4.9078
   11.445    5.0448
   11.460    5.1501
   11.475    4.8973
   11.490    4.8341
   11.505    5.0026
   11.520    4.5708
   11.535    4.5603
   11.550    4.8131
   11.565    5.0132
   11.580    4.7288
   11.595    4.7709
   11.610    4.6867
   11.625    4.5287
   11.640    5.0237
   11.655    4.8763
   11.670    4.5814
   11.685    4.4971
   11.700    4.6130
   11.715    4.4655
   11.730    4.7920
   11.745    4.5919
   11.760    4.6972
   11.775    4.7183
   11.790    4.7815
   11.805    4.6340
   11.820    4.8657
   11.835    5.0026
   11.850    4.5076
   11.865    4.4550
   11.880    4.4550
   11.895    4.4550
   11.910    4.5182
   11.925    4.6024
   11.940    4.9394
   11.955    4.8236
   11.970    4.9394
   11.985    4.8973
   12.000    4.6024
   12.015    4.3813
   12.030    4.9289
   12.045    4.7815
   12.060    4.5287
   12.075    4.3391
   12.090    4.7815
   12.105    4.9289
   12.120    4.7920
   12.135    4.7288
   12.150    4.4866
   12.165    4.6024
   12.180    4.6761
   12.195    4.6445
   12.210    4.2654
   12.225    4.7393
   12.240    5.0553
   12.255    4.7288
   12.270    4.6656
   12.285    4.3813
   12.300    4.3602
   12.315    4.9710
   12.330    4.7077
   12.345    4.4444
   12.360    4.5392
   12.375    4.6656
   12.390    4.3075
   12.405    4.3707
   12.420    4.4655
   12.435    4.4339
   12.450    4.4128
   12.465    4.4760
   12.480    4.6130
   12.495    4.4760
   12.510    4.2970
   12.525    4.4339
   12.540    4.3918
   12.555    4.8236
   12.570    4.6445
   12.585    4.1917
   12.600    4.3813
   12.615    4.6551
   12.630    4.5708
   12.645    4.3707
   12.660    4.3813
   12.675    4.5603
   12.690    4.4971
   12.705    4.3391
   12.720    4.5498
   12.735    4.5498
   12.750    4.2654
   12.765    4.2549
   12.780    4.5498
   12.795    4.3391
   12.810    4.2865
   12.825    4.3602
   12.840    4.3286
   12.855    4.3813
   12.870    4.5708
   12.885    4.3391
   12.900    4.4971
   12.915    4.3497
   12.930    4.4339
   12.945    4.4234
   12.960    4.4128
   12.975    4.6761
   12.990    4.3181
   13.005    4.2549
   13.020    4.6972
   13.035    4.6551
   13.050    4.4234
   13.065    4.2443
   13.080    4.6761
   13.095    4.7815
   13.110    4.4550
   13.125    4.4971
   13.140    4.5708
   13.155    4.3813
   13.170    4.3602
   13.185    4.1706
   13.200    4.1706
   13.215    4.0337
   13.230    4.1074
   13.245    4.1285
   13.260    4.4866
   13.275    4.5814
   13.290    4.4655
   13.305    4.4339
   13.320    4.2865
   13.335    4.3075
   13.350    4.5814
   13.365    4.2759
   13.380    4.3075
   13.395    4.2549
   13.410    4.2759
   13.425    4.6656
   13.440    4.3391
   13.455    4.3181
   13.470    4.5287
   13.485    4.5392
   13.500    4.4550
   13.515    4.1706
   13.530    4.3497
   13.545    4.0864
   13.560    4.0337
   13.575    3.9705
   13.590    4.2865
   13.605    4.4023
   13.620    4.4866
   13.635    4.4760
   13.650    4.5076
   13.665    4.1285
   13.680    4.2865
   13.695    4.2865
   13.710    4.4866
   13.725    4.5392
   13.740    4.0864
   13.755    4.4339
   13.770    4.3602
   13.785    4.1811
   13.800    4.2970
   13.815    4.2233
   13.830    4.1811
   13.845    4.3602
   13.860    4.1285
   13.875    4.2654
   13.890    4.1180
   13.905    4.3286
   13.920    4.3707
   13.935    4.1811
   13.950    3.9389
   13.965    3.9494
   13.980    4.0758
   13.995    4.2443
   14.010    4.4234
   14.025    4.3181
   14.040    4.0232
   14.055    4.4339
   14.070    4.3391
   14.085    4.1601
   14.100    4.2865
   14.115    4.1601
   14.130    4.0126
   14.145    4.1180
   14.160    4.2654
   14.175    4.2970
   14.190    4.3813
   14.205    4.2127
   14.220    4.3918
   14.235    4.6024
   14.250    4.4023
   14.265    4.4655
   14.280    4.4023
   14.295    4.4128
   14.310    4.2443
   14.325    4.1074
   14.340    4.0442
   14.355    4.1180
   14.370    4.1285
   14.385    4.3391
   14.400    4.3497
   14.415    4.3181
   14.430    4.1496
   14.445    4.1180
   14.460    4.4128
   14.475    4.0864
   14.490    4.1811
   14.505    4.1917
   14.520    4.1811
   14.535    4.4550
   14.550    4.3707
   14.565    4.0548
   14.580    4.3391
   14.595    4.5603
   14.610    4.2549
   14.625    4.2233
   14.640    4.4023
   14.655    4.0864
   14.670    4.2654
   14.685    4.1601
   14.700    4.4339
   14.715    4.4760
   14.730    3.8968
   14.745    4.1917
   14.760    4.2759
   14.775    4.1074
   14.790    4.3286
   14.805    4.2865
   14.820    4.3181
   14.835    4.4866
   14.850    4.3918
   14.865    4.0758
   14.880    4.2865
   14.895    3.9073
   14.910    4.1706
   14.925    4.1390
   14.940    4.3391
   14.955    4.4655
   14.970    4.1601
   14.985    4.3813
   15.000    4.3391
   15.015    4.0442
   15.030    4.2022
   15.045    4.3391
   15.060    4.6867
   15.075    4.3391
   15.090    4.2654
   15.105    4.1285
   15.120    4.2443
   15.135    4.2022
   15.150    4.5708
   15.165    4.4760
   15.180    4.1601
   15.195    4.1285
   15.210    4.4128
   15.225    4.1601
   15.240    4.5603
   15.255    4.2759
   15.270    3.9494
   15.285    4.1074
   15.300    4.2549
   15.315    4.1180
   15.330    4.1285
   15.345    4.0337
   15.360    4.3497
   15.375    4.2549
   15.390    4.4023
   15.405    4.1390
   15.420    4.1074
   15.435    4.2233
   15.450    4.1601
   15.465    4.5498
   15.480    4.4023
   15.495    4.1706
   15.510    4.2233
   15.525    4.4128
   15.540    4.2970
   15.555    4.1917
   15.570    4.4655
   15.585    4.5919
   15.600    4.4128
   15.615    4.4866
   15.630    4.3707
   15.645    4.2022
   15.660    4.3497
   15.675    4.4234
   15.690    4.1811
   15.705    4.4023
   15.720    4.5498
   15.735    4.2865
   15.750    4.3497
   15.765    4.4760
   15.780    4.3181
   15.795    3.8863
   15.810    3.9916
   15.825    3.8863
   15.840    4.1706
   15.855    4.1706
   15.870    4.2970
   15.885    4.1917
   15.900    4.5392
   15.915    4.1811
   15.930    4.2233
   15.945    4.3707
   15.960    4.2654
   15.975    4.0864
   15.990    4.1390
   16.005    4.4760
   16.020    4.0864
   16.035    4.0548
   16.050    4.1917
   16.065    4.2865
   16.080    4.2127
   16.095    4.2654
   16.110    4.3602
   16.125    4.1811
   16.140    4.3602
   16.155    4.1917
   16.170    4.3075
   16.185    4.4550
   16.200    4.3707
   16.215    4.3602
   16.230    4.0864
   16.245    4.1074
   16.260    4.0864
   16.275    4.1601
   16.290    4.3286
   16.305    4.0758
   16.320    4.0758
   16.335    4.2759
   16.350    4.5919
   16.365    4.2970
   16.380    4.2759
   16.395    4.0758
   16.410    4.4655
   16.425    4.0758
   16.440    4.2970
   16.455    4.0442
   16.470    4.0969
   16.485    4.3391
   16.500    4.2338
   16.515    4.3286
   16.530    4.4023
   16.545    4.2970
   16.560    4.4760
   16.575    4.4550
   16.590    4.2549
   16.605    4.1496
   16.620    4.2127
   16.635    4.1706
   16.650    4.3391
   16.665    4.1917
   16.680    4.3602
   16.695    4.0442
   16.710    3.8441
   16.725    4.2443
   16.740    4.5708
   16.755    4.6130
   16.770    4.5076
   16.785    4.1811
   16.800    4.5287
   16.815    4.0969
   16.830    3.9389
   16.845    4.2022
   16.860    4.2865
   16.875    4.4444
   16.890    4.3918
   16.905    4.1917
   16.920    4.3391
   16.935    3.9179
   16.950    4.1390
   16.965    4.5498
   16.980    4.2759
   16.995    4.2970
   17.010    4.2759
   17.025    4.1285
   17.040    4.3813
   17.055    4.5076
   17.070    4.4339
   17.085    4.3918
   17.100    4.3286
   17.115    4.3602
   17.130    4.2549
   17.145    4.4128
   17.160    4.3181
   17.175    4.4128
   17.190    4.2970
   17.205    4.2233
   17.220    4.0864
   17.235    4.1074
   17.250    4.2022
   17.265    3.8863
   17.280    4.2233
   17.295    4.0442
   17.310    4.0337
   17.325    4.1496
   17.340    4.1285
   17.355    4.1285
   17.370    4.2127
   17.385    3.9284
   17.400    4.2022
   17.415    4.4339
   17.430    4.1706
   17.445    4.1706
   17.460    4.2443
   17.475    4.3286
   17.490    4.1601
   17.505    4.3181
   17.520    4.5919
   17.535    3.8968
   17.550    3.8863
   17.565    4.3602
   17.580    4.3075
   17.595    4.4760
   17.610    4.3918
   17.625    3.9284
   17.640    4.1706
   17.655    4.1074
   17.670    4.3918
   17.685    4.8763
   17.700    4.0548
   17.715    4.2022
   17.730    4.3497
   17.745    4.6761
   17.760    4.3602
   17.775    4.4444
   17.790    4.3075
   17.805    4.0337
   17.820    4.1285
   17.835    4.3075
   17.850    4.4128
   17.865    4.5076
   17.880    4.1706
   17.895    4.6656
   17.910    4.3391
   17.925    4.2970
   17.940    4.2970
   17.955    4.2443
   17.970    4.2233
   17.985    4.5392
   18.000    4.3707
   18.015    4.5708
   18.030    4.2654
   18.045    4.4128
   18.060    4.2549
   18.075    4.1496
   18.090    4.1706
   18.105    4.2127
   18.120    4.1496
   18.135    4.2443
   18.150    4.2338
   18.165    4.1285
   18.180    4.2549
   18.195    4.1811
   18.210    4.1601
   18.225    4.1811
   18.240    4.1496
   18.255    4.5182
   18.270    4.3602
   18.285    4.3075
   18.300    4.3602
   18.315    4.0548
   18.330    4.2022
   18.345    4.4128
   18.360    4.3497
   18.375    4.0442
   18.390    4.1811
   18.405    3.8968
   18.420    4.1390
   18.435    3.8547
   18.450    4.2549
   18.465    4.1601
   18.480    4.2127
   18.495    4.1811
   18.510    3.9494
   18.525    4.0232
   18.540    4.3286
   18.555    4.5498
   18.570    4.1811
   18.585    4.2759
   18.600    4.3181
   18.615    4.3707
   18.630    3.8652
   18.645    4.1917
   18.660    4.2127
   18.675    4.4655
   18.690    4.2970
   18.705    4.5919
   18.720    4.4339
   18.735    4.4128
   18.750    4.3707
   18.765    4.6551
   18.780    4.4866
   18.795    4.2865
   18.810    4.2443
   18.825    4.4128
   18.840    4.3497
   18.855    4.0232
   18.870    4.2338
   18.885    4.0021
   18.900    4.1285
   18.915    4.4760
   18.930    4.3918
   18.945    4.1074
   18.960    4.5603
   18.975    4.3391
   18.990    4.1601
   19.005    4.3707
   19.020    4.2865
   19.035    4.3813
   19.050    4.3707
   19.065    4.0969
   19.080    4.1811
   19.095    4.1917
   19.110    4.4023
   19.125    4.3497
   19.140    4.2233
   19.155    4.5076
   19.170    4.3075
   19.185    4.1496
   19.200    4.4128
   19.215    4.3391
   19.230    4.1706
   19.245    4.4760
   19.260    4.3602
   19.275    4.3497
   19.290    4.1601
   19.305    4.2759
   19.320    4.4866
   19.335    4.2970
   19.350    4.3918
   19.365    4.0548
   19.380    4.3707
   19.395    4.6024
   19.410    4.2127
   19.425    4.0548
   19.440    4.1074
   19.455    4.3707
   19.470    4.1390
   19.485    4.4023
   19.500    4.1496
   19.515    4.0653
   19.530    4.0232
   19.545    3.9600
   19.560    4.4234
   19.575    4.4339
   19.590    4.2654
   19.605    4.2022
   19.620    4.4760
   19.635    4.5603
   19.650    4.8341
   19.665    4.6130
   19.680    4.4550
   19.695    4.3075
   19.710    4.3707
   19.725    4.3707
   19.740    4.2759
   19.755    4.4234
   19.770    4.1811
   19.785    4.5287
   19.800    4.5814
   19.815    4.2127
   19.830    4.5076
   19.845    4.3391
   19.860    4.2759
   19.875    4.2338
   19.890    4.4655
   19.905    4.4444
   19.920    4.3918
   19.935    4.4023
   19.950    4.3707
   19.965    4.3497
   19.980    4.4866
   19.995    4.7393
   20.010    4.2022
   20.025    4.1496
   20.040    4.2865
   20.055    4.6445
   20.070    4.2443
   20.085    4.2865
   20.100    4.3286
   20.115    4.2022
   20.130    4.7288
   20.145    4.4234
   20.160    4.2549
   20.175    4.1180
   20.190    4.4655
   20.205    4.3602
   20.220    4.4550
   20.235    4.4760
   20.250    4.3602
   20.265    4.4234
   20.280    4.1180
   20.295    4.1706
   20.310    4.1285
   20.325    4.3181
   20.340    4.1496
   20.355    4.5182
   20.370    4.3286
   20.385    4.4339
   20.400    4.3286
   20.415    4.2443
   20.430    4.4760
   20.445    4.4339
   20.460    4.3286
   20.475    4.1706
   20.490    4.0653
   20.505    4.5814
   20.520    4.5919
   20.535    4.3075
   20.550    4.3918
   20.565    4.3918
   20.580    4.3918
   20.595    4.1496
   20.610    4.0232
   20.625    4.4971
   20.640    4.5287
   20.655    4.2443
   20.670    4.3602
   20.685    4.3075
   20.700    4.4550
   20.715    4.2654
   20.730    4.5814
   20.745    4.3602
   20.760    4.1706
   20.775    4.2759
   20.790    4.4128
   20.805    4.5708
   20.820    4.5498
   20.835    4.2443
   20.850    4.3497
   20.865    4.4128
   20.880    4.5603
   20.895    4.7499
   20.910    4.4444
   20.925    4.2970
   20.940    4.5182
   20.955    4.3075
   20.970    4.6130
   20.985    4.4550
   21.000    4.4655
   21.015    4.3813
   21.030    4.3707
   21.045    4.1917
   21.060    4.2443
   21.075    4.2759
   21.090    4.4866
   21.105    4.8341
   21.120    4.5076
   21.135    4.4234
   21.150    4.3075
   21.165    4.2549
   21.180    4.3391
   21.195    4.2654
   21.210    4.2654
   21.225    4.4444
   21.240    4.2443
   21.255    4.2022
   21.270    4.3602
   21.285    4.5814
   21.300    4.3918
   21.315    4.4866
   21.330    4.3602
   21.345    4.2970
   21.360    4.2549
   21.375    4.4444
   21.390    4.6235
   21.405    4.4866
   21.420    4.7077
   21.435    4.7393
   21.450    4.6551
   21.465    4.3813
   21.480    4.3602
   21.495    4.4655
   21.510    4.4339
   21.525    4.4760
   21.540    4.4444
   21.555    4.5076
   21.570    4.3181
   21.585    4.4760
   21.600    4.1496
   21.615    4.4234
   21.630    4.6340
   21.645    4.4655
   21.660    4.3707
   21.675    4.0758
   21.690    4.6761
   21.705    4.3286
   21.720    4.2443
   21.735    4.4866
   21.750    4.4444
   21.765    4.2127
   21.780    4.4128
   21.795    4.1180
   21.810    4.3602
   21.825    4.2233
   21.840    4.4866
   21.855    4.7709
   21.870    4.2865
   21.885    3.9810
   21.900    4.0758
   21.915    4.1601
   21.930    4.4971
   21.945    4.6235
   21.960    4.4760
   21.975    4.4128
   21.990    4.5814
   22.005    4.4128
   22.020    4.3918
   22.035    4.4550
   22.050    4.2865
   22.065    4.3286
   22.080    4.1811
   22.095    4.2865
   22.110    4.2759
   22.125    4.2443
   22.140    4.0653
   22.155    4.2865
   22.170    4.5814
   22.185    4.6235
   22.200    4.0864
   22.215    4.2654
   22.230    4.2233
   22.245    4.6130
   22.260    4.4866
   22.275    4.5076
   22.290    4.5182
   22.305    4.0653
   22.320    4.1811
   22.335    4.2970
   22.350    4.6130
   22.365    4.5287
   22.380    4.0442
   22.395    4.4971
   22.410    4.3602
   22.425    4.2233
   22.440    4.4971
   22.455    4.5182
   22.470    4.4971
   22.485    4.7393
   22.500    4.7815
   22.515    4.4023
   22.530    4.4866
   22.545    4.3707
   22.560    4.4971
   22.575    4.2865
   22.590    4.2759
   22.605    4.3813
   22.620    4.2759
   22.635    4.2338
   22.650    4.2865
   22.665    4.2759
   22.680    4.5287
   22.695    4.5392
   22.710    4.2654
   22.725    4.2759
   22.740    4.2865
   22.755    4.2654
   22.770    4.1917
   22.785    4.1917
   22.800    4.2759
   22.815    4.5287
   22.830    4.4234
   22.845    4.2865
   22.860    4.4866
   22.875    4.3391
   22.890    4.2654
   22.905    4.5392
   22.920    4.2759
   22.935    4.3602
   22.950    4.4339
   22.965    4.6130
   22.980    4.5498
   22.995    4.4234
   23.010    4.4971
   23.025    4.3391
   23.040    4.4550
   23.055    4.5076
   23.070    4.3813
   23.085    4.4866
   23.100    4.7604
   23.115    4.4023
   23.130    4.4655
   23.145    4.5814
   23.160    4.1601
   23.175    4.6656
   23.190    4.5182
   23.205    4.3813
   23.220    4.5814
   23.235    4.2549
   23.250    4.6340
   23.265    4.1496
   23.280    4.2022
   23.295    4.2865
   23.310    4.2970
   23.325    4.3286
   23.340    4.3602
   23.355    4.5603
   23.370    4.0126
   23.385    3.8652
   23.400    4.2022
   23.415    4.2654
   23.430    4.2865
   23.445    4.3707
   23.460    4.5076
   23.475    4.1917
   23.490    4.4550
   23.505    4.3181
   23.520    4.4234
   23.535    4.5814
   23.550    4.4550
   23.565    4.1180
   23.580    3.9284
   23.595    4.2443
   23.610    4.4971
   23.625    4.1706
   23.640    4.2127
   23.655    4.4339
   23.670    4.0653
   23.685    4.2865
   23.700    4.5182
   23.715    4.5182
   23.730    4.2654
   23.745    4.2654
   23.760    4.2970
   23.775    4.2759
   23.790    4.3075
   23.805    4.2127
   23.820    4.1180
   23.835    4.5182
   23.850    4.5919
   23.865    4.4234
   23.880    4.2127
   23.895    4.1601
   23.910    4.4128
   23.925    4.3497
   23.940    4.2759
   23.955    4.2654
   23.970    4.3813
   23.985    4.5182
   24.000    4.7920
   24.015    4.4234
   24.030    4.1706
   24.045    4.3075
   24.060    4.4234
   24.075    4.3181
   24.090    4.0969
   24.105    4.3707
   24.120    4.5603
   24.135    4.5182
   24.150    4.6130
   24.165    4.3602
   24.180    4.2759
   24.195    4.1390
   24.210    4.0758
   24.225    4.0864
   24.240    4.3286
   24.255    4.2022
   24.270    4.2759
   24.285    4.3918
   24.300    4.1390
   24.315    4.1917
   24.330    4.3391
   24.345    3.9705
   24.360    4.3497
   24.375    4.2759
   24.390    4.2654
   24.405    4.4128
   24.420    4.2233
   24.435    4.3181
   24.450    4.4866
   24.465    4.1811
   24.480    4.2970
   24.495    4.2127
   24.510    4.2759
   24.525    4.4339
   24.540    4.3391
   24.555    4.0442
   24.570    4.0548
   24.585    4.1811
   24.600    4.1390
   24.615    4.1917
   24.630    4.2443
   24.645    4.3391
   24.660    4.2443
   24.675    4.1180
   24.690    4.0969
   24.705    4.4234
   24.720    4.1917
   24.735    4.4550
   24.750    4.3181
   24.765    4.1496
   24.780    4.1706
   24.795    4.1390
   24.810    4.1811
   24.825    4.1917
   24.840    4.0337
   24.855    4.2654
   24.870    4.2549
   24.885    4.0864
   24.900    4.0126
   24.915    4.3813
   24.930    4.4866
   24.945    4.2443
   24.960    4.2759
   24.975    4.0021
   24.990    3.7072
   25.005    4.0548
   25.020    4.2549
   25.035    4.3813
   25.050    4.4760
   25.065    4.3286
   25.080    3.8441
   25.095    4.2654
   25.110    4.4234
   25.125    3.9916
   25.140    4.3918
   25.155    4.3286
   25.170    4.1706
   25.185    4.0337
   25.200    4.1074
   25.215    4.2970
   25.230    4.3075
   25.245    4.1285
   25.260    4.0758
   25.275    4.1917
   25.290    3.7704
   25.305    4.1811
   25.320    4.2865
   25.335    3.7915
   25.350    4.1390
   25.365    4.2759
   25.380    4.2338
   25.395    4.2338
   25.410    4.4023
   25.425    4.2338
   25.440    4.3286
   25.455    4.0864
   25.470    4.0864
   25.485    4.0442
   25.500    4.1917
   25.515    4.2233
   25.530    3.9179
   25.545    3.8231
   25.560    4.3075
   25.575    4.0021
   25.590    4.1811
   25.605    4.5287
   25.620    4.1496
   25.635    4.1285
   25.650    4.2970
   25.665    3.9705
   25.680    4.0864
   25.695    3.9916
   25.710    4.1285
   25.725    3.9494
   25.740    4.1285
   25.755    4.0021
   25.770    4.4550
   25.785    4.0864
   25.800    3.7809
   25.815    4.2022
   25.830    4.2233
   25.845    4.0337
   25.860    4.1390
   25.875    4.0442
   25.890    3.8336
   25.905    4.0758
   25.920    3.8863
   25.935    4.0126
   25.950    3.6862
   25.965    4.0232
   25.980    3.9600
   25.995    4.3391
   26.010    4.5392
   26.025    3.7809
   26.040    3.9494
   26.055    3.8441
   26.070    3.9284
   26.085    4.0653
   26.100    3.9705
   26.115    4.1811
   26.130    4.1074
   26.145    4.1601
   26.160    4.1074
   26.175    3.8968
   26.190    4.1390
   26.205    4.3391
   26.220    4.2970
   26.235    4.3602
   26.250    4.3602
   26.265    4.2865
   26.280    3.9389
   26.295    3.8757
   26.310    4.0442
   26.325    3.8231
   26.340    3.9810
   26.355    4.0548
   26.370    4.0969
   26.385    4.0969
   26.400    4.0126
   26.415    4.2443
   26.430    4.0337
   26.445    4.1706
   26.460    3.9389
   26.475    3.9073
   26.490    4.0232
   26.505    3.8652
   26.520    4.0442
   26.535    4.2127
   26.550    4.0337
   26.565    4.1180
   26.580    4.0758
   26.595    4.2970
   26.610    3.9284
   26.625    4.0337
   26.640    4.0969
   26.655    3.9705
   26.670    4.3181
   26.685    3.7493
   26.700    3.6967
   26.715    3.7388
   26.730    4.0442
   26.745    3.8652
   26.760    3.9284
   26.775    4.0232
   26.790    4.0126
   26.805    3.9494
   26.820    3.8652
   26.835    3.9600
   26.850    3.8547
   26.865    3.8441
   26.880    3.9916
   26.895    4.0653
   26.910    4.2233
   26.925    4.0548
   26.940    3.9179
   26.955    3.9916
   26.970    4.2865
   26.985    3.8125
   27.000    3.8125
   27.015    4.0969
   27.030    3.8125
   27.045    3.7283
   27.060    3.5808
   27.075    3.8020
   27.090    3.8441
   27.105    4.0232
   27.120    4.1601
   27.135    4.1074
   27.150    3.9494
   27.165    4.0442
   27.180    3.7283
   27.195    3.7283
   27.210    3.7809
   27.225    3.7809
   27.240    3.7493
   27.255    3.8863
   27.270    4.1390
   27.285    4.0758
   27.300    3.6967
   27.315    3.8547
   27.330    4.0969
   27.345    3.8231
   27.360    3.8125
   27.375    3.7388
   27.390    3.8757
   27.405    4.0969
   27.420    3.9494
   27.435    4.0969
   27.450    4.0021
   27.465    3.8968
   27.480    3.6440
   27.495    3.9600
   27.510    4.3918
   27.525    3.8547
   27.540    3.5914
   27.555    4.1917
   27.570    3.8547
   27.585    3.8863
   27.600    3.7915
   27.615    3.9073
   27.630    3.8125
   27.645    4.0969
   27.660    3.8863
   27.675    3.7704
   27.690    3.8547
   27.705    3.8757
   27.720    4.2127
   27.735    4.0126
   27.750    3.7809
   27.765    3.9705
   27.780    3.7809
   27.795    3.9494
   27.810    3.8863
   27.825    3.9389
   27.840    3.8863
   27.855    3.8547
   27.870    3.7704
   27.885    3.3807
   27.900    3.5598
   27.915    3.7599
   27.930    3.6967
   27.945    3.8125
   27.960    3.9073
   27.975    4.0126
   27.990    3.9179
   28.005    3.9810
   28.020    3.8652
   28.035    3.6651
   28.050    3.8231
   28.065    3.8020
   28.080    3.5808
   28.095    3.8547
   28.110    3.7599
   28.125    3.7072
   28.140    4.0126
   28.155    4.0548
   28.170    3.8231
   28.185    4.0548
   28.200    3.8547
   28.215    3.8441
   28.230    4.0758
   28.245    3.8336
   28.260    3.6440
   28.275    3.7599
   28.290    3.7072
   28.305    3.8757
   28.320    3.9179
   28.335    3.9073
   28.350    3.7072
   28.365    3.6756
   28.380    3.7072
   28.395    3.9494
   28.410    3.7599
   28.425    3.6651
   28.440    4.1074
   28.455    4.0653
   28.470    3.7599
   28.485    3.8231
   28.500    3.6335
   28.515    3.7388
   28.530    3.8336
   28.545    4.1496
   28.560    3.7283
   28.575    3.7177
   28.590    3.7283
   28.605    3.7177
   28.620    3.4860
   28.635    3.6756
   28.650    4.0864
   28.665    3.8020
   28.680    3.7599
   28.695    3.5914
   28.710    3.8020
   28.725    3.6335
   28.740    3.7809
   28.755    3.7809
   28.770    3.9705
   28.785    3.8547
   28.800    3.7704
   28.815    3.7915
   28.830    3.4966
   28.845    3.8125
   28.860    3.7493
   28.875    3.5914
   28.890    3.6862
   28.905    3.4755
   28.920    3.7283
   28.935    3.8441
   28.950    3.6862
   28.965    4.0864
   28.980    4.0653
   28.995    4.0126
   29.010    4.0864
   29.025    3.7704
   29.040    3.7599
   29.055    3.6756
   29.070    3.7072
   29.085    3.7704
   29.100    3.6967
   29.115    3.5703
   29.130    3.4334
   29.145    4.0232
   29.160    3.7493
   29.175    3.7809
   29.190    3.5387
   29.205    3.5808
   29.220    3.8125
   29.235    3.6862
   29.250    3.6651
   29.265    3.5703
   29.280    4.0232
   29.295    4.0758
   29.310    3.4755
   29.325    3.6019
   29.340    3.7599
   29.355    3.8125
   29.370    3.4334
   29.385    3.6546
   29.400    3.6756
   29.415    3.7493
   29.430    3.6756
   29.445    3.6862
   29.460    3.7493
   29.475    3.8336
   29.490    3.8125
   29.505    3.6651
   29.520    3.4439
   29.535    3.6124
   29.550    3.6546
   29.565    3.6862
   29.580    3.4229
   29.595    3.4439
   29.610    3.7599
   29.625    3.7177
   29.640    3.6546
   29.655    3.5808
   29.670    3.4439
   29.685    3.6651
   29.700    3.5914
   29.715    3.7177
   29.730    3.6230
   29.745    3.6440
   29.760    3.4966
   29.775    3.4123
   29.790    3.4966
   29.805    3.6967
   29.820    3.6440
   29.835    3.7283
   29.850    3.6230
   29.865    3.6335
   29.880    3.5071
   29.895    3.6019
   29.910    3.5176
   29.925    3.7283
   29.940    3.5598
   29.955    3.8757
   29.970    3.5176
   29.985    3.9600
   30.000    3.5914
   30.015    3.6335
   30.030    3.5598
   30.045    3.5598
   30.060    3.5914
   30.075    3.7493
   30.090    3.5176
   30.105    3.4755
   30.120    3.4755
   30.135    3.6756
   30.150    3.5387
   30.165    3.4860
   30.180    3.5598
   30.195    3.5387
   30.210    3.5282
   30.225    3.4018
   30.240    3.2333
   30.255    3.3070
   30.270    3.7915
   30.285    3.8020
   30.300    3.6335
   30.315    3.6756
   30.330    3.6862
   30.345    3.7915
   30.360    3.6019
   30.375    3.6019
   30.390    3.6019
   30.405    3.5071
   30.420    3.4966
   30.435    3.6440
   30.450    3.5071
   30.465    3.4860
   30.480    3.5071
   30.495    3.5703
   30.510    3.5071
   30.525    3.3070
   30.540    3.4018
   30.555    3.2965
   30.570    3.3070
   30.585    3.4439
   30.600    3.0542
   30.615    3.2965
   30.630    3.5492
   30.645    3.3807
   30.660    3.4860
   30.675    3.7599
   30.690    3.3491
   30.705    3.4860
   30.720    3.4650
   30.735    3.5282
   30.750    3.5387
   30.765    3.7599
   30.780    3.6019
   30.795    3.5071
   30.810    3.2122
   30.825    3.6862
   30.840    3.6756
   30.855    3.3597
   30.870    3.4755
   30.885    3.4860
   30.900    3.4650
   30.915    3.5703
   30.930    3.3386
   30.945    3.3807
   30.960    3.5387
   30.975    3.3281
   30.990    3.4860
   31.005    3.5071
   31.020    3.5492
   31.035    3.5492
   31.050    3.3702
   31.065    3.4123
   31.080    3.4018
   31.095    3.3597
   31.110    3.2965
   31.125    3.7072
   31.140    3.3281
   31.155    3.2333
   31.170    3.4229
   31.185    3.4860
   31.200    3.5282
   31.215    3.3702
   31.230    3.5282
   31.245    3.4966
   31.260    3.5492
   31.275    3.6440
   31.290    3.6967
   31.305    3.6756
   31.320    3.7283
   31.335    3.5282
   31.350    3.3386
   31.365    3.3175
   31.380    3.4650
   31.395    3.4123
   31.410    3.2438
   31.425    3.4229
   31.440    3.3702
   31.455    3.4544
   31.470    3.4860
   31.485    3.2122
   31.500    3.4650
   31.515    3.4966
   31.530    3.4860
   31.545    3.4650
   31.560    3.4123
   31.575    3.2122
   31.590    3.4018
   31.605    3.2754
   31.620    3.4966
   31.635    3.4966
   31.650    3.4544
   31.665    3.5282
   31.680    3.7072
   31.695    3.6335
   31.710    3.5071
   31.725    3.4650
   31.740    3.3175
   31.755    3.1912
   31.770    3.4860
   31.785    3.4544
   31.800    3.4123
   31.815    3.2754
   31.830    3.4544
   31.845    3.4966
   31.860    3.5808
   31.875    3.5808
   31.890    3.3702
   31.905    3.4860
   31.920    3.6230
   31.935    3.6019
   31.950    3.5282
   31.965    3.5808
   31.980    3.8441
   31.995    3.7177
   32.010    3.6967
   32.025    3.5176
   32.040    3.5282
   32.055    3.4966
   32.070    3.5071
   32.085    3.2438
   32.100    3.4966
   32.115    3.6756
   32.130    3.5071
   32.145    3.0542
   32.160    3.1806
   32.175    3.4860
   32.190    3.7072
   32.205    3.3702
   32.220    3.5914
   32.235    3.3281
   32.250    3.4860
   32.265    3.6967
   32.280    3.5282
   32.295    3.1280
   32.310    3.3913
   32.325    3.5282
   32.340    3.5703
   32.355    3.6335
   32.370    3.3597
   32.385    3.1490
   32.400    3.2754
   32.415    3.2649
   32.430    3.2227
   32.445    3.2017
   32.460    3.2859
   32.475    3.2859
   32.490    3.3070
   32.505    3.2859
   32.520    3.2438
   32.535    3.4123
   32.550    3.0858
   32.565    3.4966
   32.580    3.3175
   32.595    3.5282
   32.610    3.3597
   32.625    3.3175
   32.640    3.4650
   32.655    3.4650
   32.670    3.4966
   32.685    3.0016
   32.700    2.9910
   32.715    3.0964
   32.730    3.7283
   32.745    3.6230
   32.760    3.3386
   32.775    3.2122
   32.790    3.1385
   32.805    3.2649
   32.820    3.1280
   32.835    3.4544
   32.850    3.3386
   32.865    3.2333
   32.880    3.2017
   32.895    3.5492
   32.910    3.4650
   32.925    3.2017
   32.940    3.3807
   32.955    3.3807
   32.970    3.3175
   32.985    3.5282
   33.000    3.0753
   33.015    3.5071
   33.030    3.4334
   33.045    3.2543
   33.060    3.0753
   33.075    3.3070
   33.090    3.0648
   33.105    2.9279
   33.120    2.9489
   33.135    2.8647
   33.150    3.3491
   33.165    3.2965
   33.180    3.3913
   33.195    3.0332
   33.210    3.0226
   33.225    3.1385
   33.240    3.1069
   33.255    3.1701
   33.270    3.3913
   33.285    3.2965
   33.300    3.1174
   33.315    2.9595
   33.330    3.2543
   33.345    3.1701
   33.360    3.2754
   33.375    3.3281
   33.390    3.2754
   33.405    3.2017
   33.420    3.0542
   33.435    3.0016
   33.450    2.9173
   33.465    2.8225
   33.480    3.2859
   33.495    2.9805
   33.510    3.1596
   33.525    3.3175
   33.540    3.0332
   33.555    3.0437
   33.570    3.0226
   33.585    2.8331
   33.600    3.0542
   33.615    3.2965
   33.630    3.1174
   33.645    3.0016
   33.660    3.0648
   33.675    3.0016
   33.690    3.0542
   33.705    3.0964
   33.720    2.9068
   33.735    2.7278
   33.750    2.9384
   33.765    3.2227
   33.780    3.4334
   33.795    3.0332
   33.810    3.1806
   33.825    3.1806
   33.840    2.9384
   33.855    3.0121
   33.870    2.9384
   33.885    3.1385
   33.900    3.1069
   33.915    3.2965
   33.930    3.1069
   33.945    3.0648
   33.960    2.9595
   33.975    2.9805
   33.990    3.0858
   34.005    3.2649
   34.020    3.2122
   34.035    3.0437
   34.050    2.9910
   34.065    3.1280
   34.080    3.0964
   34.095    3.1069
   34.110    2.9489
   34.125    2.9279
   34.140    2.9384
   34.155    2.8647
   34.170    2.9068
   34.185    2.8647
   34.200    3.2122
   34.215    3.1490
   34.230    3.1385
   34.245    3.2017
   34.260    3.0332
   34.275    3.3491
   34.290    2.9384
   34.305    3.0964
   34.320    3.0964
   34.335    2.8015
   34.350    2.8015
   34.365    2.8857
   34.380    2.9068
   34.395    3.1069
   34.410    2.8015
   34.425    2.8436
   34.440    3.0121
   34.455    3.0648
   34.470    3.1912
   34.485    3.0016
   34.500    2.7593
   34.515    3.2543
   34.530    3.2122
   34.545    2.8647
   34.560    2.7278
   34.575    2.8120
   34.590    2.8647
   34.605    3.1174
   34.620    2.7488
   34.635    2.9910
   34.650    2.8647
   34.665    3.0437
   34.680    2.8331
   34.695    2.9279
   34.710    3.0437
   34.725    3.1701
   34.740    3.0858
   34.755    2.9700
   34.770    3.1490
   34.785    3.0964
   34.800    2.8647
   34.815    3.0437
   34.830    2.7699
   34.845    2.8225
   34.860    3.0753
   34.875    2.9489
   34.890    2.7593
   34.905    3.0332
   34.920    3.1280
   34.935    2.8331
   34.950    3.0016
   34.965    2.7067
   34.980    3.1069
   34.995    2.9595
   35.010    2.8225
   35.025    2.8120
   35.040    3.0226
   35.055    3.1280
   35.070    3.2227
   35.085    3.3281
   35.100    2.9489
   35.115    3.0437
   35.130    3.0753
   35.145    2.8331
   35.160    2.9173
   35.175    2.9489
   35.190    2.8752
   35.205    2.9595
   35.220    2.9805
   35.235    2.7804
   35.250    3.0332
   35.265    2.9279
   35.280    2.8436
   35.295    2.9489
   35.310    2.9910
   35.325    3.3070
   35.340    2.8120
   35.355    2.7593
   35.370    2.8225
   35.385    2.8225
   35.400    2.8120
   35.415    2.8436
   35.430    2.7909
   35.445    2.8752
   35.460    2.8541
   35.475    2.9068
   35.490    2.9279
   35.505    3.1280
   35.520    2.9068
   35.535    3.0226
   35.550    2.9910
   35.565    3.0858
   35.580    2.6014
   35.595    2.6646
   35.610    2.8015
   35.625    2.7699
   35.640    2.7804
   35.655    2.8225
   35.670    2.7593
   35.685    2.7593
   35.700    3.1174
   35.715    3.0753
   35.730    3.0542
   35.745    2.9700
   35.760    3.0858
   35.775    2.6330
   35.790    2.6962
   35.805    2.6962
   35.820    3.0332
   35.835    2.6330
   35.850    2.5908
   35.865    2.6224
   35.880    3.0964
   35.895    3.0648
   35.910    2.8541
   35.925    3.0121
   35.940    2.9595
   35.955    2.6014
   35.970    2.7909
   35.985    2.7804
   36.000    2.9173
   36.015    2.8963
   36.030    3.0437
   36.045    2.7699
   36.060    2.7699
   36.075    2.7909
   36.090    2.5698
   36.105    2.8015
   36.120    2.7278
   36.135    2.7804
   36.150    2.9279
   36.165    3.1701
   36.180    2.9068
   36.195    2.6856
   36.210    2.8963
   36.225    2.8857
   36.240    2.5803
   36.255    2.8225
   36.270    3.1701
   36.285    3.0121
   36.300    2.7699
   36.315    2.9805
   36.330    2.7804
   36.345    2.5171
   36.360    2.7488
   36.375    2.8015
   36.390    2.8331
   36.405    2.9279
   36.420    2.8120
   36.435    2.8225
   36.450    2.8015
   36.465    2.7278
   36.480    2.7383
   36.495    2.8436
   36.510    2.8647
   36.525    2.9595
   36.540    2.7383
   36.555    2.6224
   36.570    2.4645
   36.585    2.7383
   36.600    2.7804
   36.615    2.8015
   36.630    2.6224
   36.645    2.8225
   36.660    2.7488
   36.675    2.6751
   36.690    2.6751
   36.705    2.8752
   36.720    2.8120
   36.735    2.8015
   36.750    2.9910
   36.765    2.8857
   36.780    2.9384
   36.795    3.1174
   36.810    2.9279
   36.825    2.7804
   36.840    2.6646
   36.855    2.5171
   36.870    2.6119
   36.885    2.5382
   36.900    2.6751
   36.915    2.9910
   36.930    2.7383
   36.945    2.6224
   36.960    2.8857
   36.975    2.8857
   36.990    2.6962
   37.005    2.7067
   37.020    2.6014
   37.035    2.9489
   37.050    2.9805
   37.065    2.8857
   37.080    2.5592
   37.095    2.5803
   37.110    2.7488
   37.125    2.7278
   37.140    2.7172
   37.155    2.8120
   37.170    2.8436
   37.185    3.0016
   37.200    2.8120
   37.215    2.8120
   37.230    2.8225
   37.245    2.6646
   37.260    2.6330
   37.275    2.5066
   37.290    2.5803
   37.305    2.9910
   37.320    2.7172
   37.335    2.8331
   37.350    2.7909
   37.365    2.5066
   37.380    2.4118
   37.395    2.7278
   37.410    2.8225
   37.425    2.6119
   37.440    2.5698
   37.455    2.6330
   37.470    2.7383
   37.485    2.7593
   37.500    2.5171
   37.515    2.4961
   37.530    2.6751
   37.545    2.8647
   37.560    2.7593
   37.575    2.9068
   37.590    2.8963
   37.605    2.8541
   37.620    2.8225
   37.635    2.7804
   37.650    2.6014
   37.665    2.5276
   37.680    2.8331
   37.695    2.3486
   37.710    2.4118
   37.725    2.6751
   37.740    2.6224
   37.755    2.6646
   37.770    2.6962
   37.785    2.5276
   37.800    2.7593
   37.815    2.6856
   37.830    3.0964
   37.845    3.0121
   37.860    2.5698
   37.875    2.4539
   37.890    2.6119
   37.905    2.8225
   37.920    2.8647
   37.935    2.6962
   37.950    2.5382
   37.965    3.0542
   37.980    3.0121
   37.995    2.5803
   38.010    2.4645
   38.025    2.5908
   38.040    2.6540
   38.055    2.7383
   38.070    2.4855
   38.085    2.5698
   38.100    2.6751
   38.115    2.5592
   38.130    2.7383
   38.145    2.5908
   38.160    2.7172
   38.175    2.5803
   38.190    2.4855
   38.205    2.5276
   38.220    2.7172
   38.235    2.9173
   38.250    2.6119
   38.265    2.6330
   38.280    2.4750
   38.295    2.6119
   38.310    2.6856
   38.325    2.4118
   38.340    2.7488
   38.355    2.4434
   38.370    2.6014
   38.385    2.6646
   38.400    2.4750
   38.415    2.6962
   38.430    2.8541
   38.445    2.7804
   38.460    2.7699
   38.475    2.9595
   38.490    2.8331
   38.505    2.6856
   38.520    2.6330
   38.535    2.7067
   38.550    2.7699
   38.565    2.5908
   38.580    2.5382
   38.595    2.7488
   38.610    2.7593
   38.625    2.4645
   38.640    2.6540
   38.655    2.6856
   38.670    2.4961
   38.685    2.4329
   38.700    2.3275
   38.715    2.5382
   38.730    2.6224
   38.745    2.5382
   38.760    2.7067
   38.775    2.7383
   38.790    2.6751
   38.805    2.8015
   38.820    2.8225
   38.835    2.7488
   38.850    2.6751
   38.865    2.6540
   38.880    2.5908
   38.895    2.7278
   38.910    2.6962
   38.925    2.6330
   38.940    2.8015
   38.955    2.8436
   38.970    2.7383
   38.985    2.7909
   39.000    2.8541
   39.015    2.7278
   39.030    2.4855
   39.045    2.9279
   39.060    2.4855
   39.075    2.5171
   39.090    2.7383
   39.105    2.5698
   39.120    2.5066
   39.135    2.4750
   39.150    2.4961
   39.165    2.7699
   39.180    2.8752
   39.195    2.7172
   39.210    2.6014
   39.225    2.6435
   39.240    2.4961
   39.255    2.6435
   39.270    2.7383
   39.285    2.7699
   39.300    2.9068
   39.315    2.7067
   39.330    2.8015
   39.345    2.6435
   39.360    2.7488
   39.375    2.6435
   39.390    2.5487
   39.405    2.7172
   39.420    2.5803
   39.435    2.7067
   39.450    2.8120
   39.465    2.7909
   39.480    2.7383
   39.495    2.5908
   39.510    2.8225
   39.525    2.7172
   39.540    2.7172
   39.555    2.6962
   39.570    2.3697
   39.585    2.6540
   39.600    2.7278
   39.615    2.4750
   39.630    2.6962
   39.645    2.9384
   39.660    2.7909
   39.675    2.8541
   39.690    2.5803
   39.705    2.6330
   39.720    2.6856
   39.735    2.8541
   39.750    2.8541
   39.765    2.7172
   39.780    2.6014
   39.795    2.6435
   39.810    2.6119
   39.825    2.7909
   39.840    2.6962
   39.855    2.5487
   39.870    2.9489
   39.885    2.6330
   39.900    2.5487
   39.915    2.5171
   39.930    2.7383
   39.945    2.4329
   39.960    2.5171
   39.975    2.8225
   39.990    2.7383
