    1.500   28.9415
    1.515   28.9205
    1.530   28.9626
    1.545   28.3623
    1.560   27.8673
    1.575   28.3728
    1.590   27.3302
    1.605   27.6883
    1.620   27.4671
    1.635   26.8773
    1.650   26.4666
    1.665   26.5508
    1.680   26.4666
    1.695   26.0348
    1.710   25.5082
    1.725   24.8763
    1.740   25.3397
    1.755   25.4239
    1.770   24.7288
    1.785   25.2343
    1.800   24.8552
    1.815   24.9605
    1.830   25.0132
    1.845   25.1395
    1.860   23.8652
    1.875   23.9284
    1.890   23.6124
    1.905   23.5808
    1.920   23.0964
    1.935   22.8015
    1.950   22.9595
    1.965   23.3281
    1.980   22.9068
    1.995   22.6119
    2.010   22.8120
    2.025   22.4645
    2.040   22.6014
    2.055   22.6962
    2.070   22.0748
    2.085   22.0432
    2.100   22.2012
    2.115   21.8957
    2.130   21.5798
    2.145   22.0642
    2.160   22.0221
    2.175   21.5377
    2.190   21.9379
    2.205   22.0011
    2.220   21.8852
    2.235   21.5903
    2.250   22.0116
    2.265   22.1485
    2.280   21.3691
    2.295   21.3481
    2.310   21.1901
    2.325   20.7583
    2.340   21.1164
    2.355   21.5692
    2.370   21.1374
    2.385   21.6114
    2.400   20.9163
    2.415   21.8536
    2.430   21.7378
    2.445   21.4429
    2.460   22.0011
    2.475   21.3060
    2.490   21.8641
    2.505   21.5692
    2.520   22.1380
    2.535   22.7488
    2.550   22.3275
    2.565   22.1696
    2.580   22.2117
    2.595   23.2438
    2.610   22.7699
    2.625   22.6540
    2.640   23.4545
    2.655   22.6435
    2.670   23.8336
    2.685   23.6756
    2.700   23.9284
    2.715   24.2549
    2.730   24.3918
    2.745   24.9921
    2.760   25.1711
    2.775   25.9084
    2.790   25.7925
    2.805   26.5719
    2.820   26.7825
    2.835   26.3507
    2.850   26.4560
    2.865   26.9300
    2.880   28.4255
    2.895   28.6256
    2.910   28.3623
    2.925   29.3734
    2.940   30.1843
    2.955   30.4687
    2.970   30.5951
    2.985   30.6582
    3.000   32.1222
    3.015   32.6593
    3.030   32.5645
    3.045   33.4387
    3.060   34.2285
    3.075   35.7767
    3.090   36.8720
    3.105   36.7141
    3.120   38.1675
    3.135   39.8842
    3.150   40.0527
    3.165   40.1264
    3.180   41.9800
    3.195   44.0021
    3.210   45.1501
    3.225   46.8984
    3.240   49.3628
    3.255   50.3739
    3.270   51.7220
    3.285   53.6282
    3.300   55.8820
    3.315   59.9895
    3.330   61.1796
    3.345   63.6967
    3.360   66.4139
    3.375   69.5208
    3.390   72.1748
    3.405   75.5134
    3.420   79.2417
    3.435   81.1374
    3.450   83.0542
    3.465   83.3386
    3.480   80.8215
    3.495   79.8420
    3.510   73.2701
    3.525   68.1517
    3.540   61.5482
    3.555   56.1032
    3.570   50.4371
    3.585   45.5082
    3.600   41.9589
    3.615   39.6840
    3.630   38.3465
    3.645   36.2928
    3.660   33.8705
    3.675   34.5340
    3.690   34.6919
    3.705   33.4387
    3.720   32.8594
    3.735   33.0384
    3.750   33.5018
    3.765   32.9858
    3.780   33.0279
    3.795   33.4071
    3.810   34.5234
    3.825   34.3760
    3.840   35.2291
    3.855   36.1348
    3.870   37.4934
    3.885   36.9036
    3.900   36.4824
    3.915   37.5987
    3.930   38.6835
    3.945   38.5993
    3.960   39.0416
    3.975   38.6414
    3.990   39.3260
    4.005   38.7678
    4.020   38.7467
    4.035   39.0943
    4.050   38.7046
    4.065   38.4097
    4.080   37.4408
    4.095   37.3881
    4.110   36.1980
    4.125   36.6193
    4.140   35.3765
    4.155   34.0390
    4.170   32.4592
    4.185   32.6698
    4.200   31.2164
    4.215   30.1632
    4.230   28.7836
    4.245   27.8568
    4.260   27.6145
    4.275   25.7293
    4.290   24.4128
    4.305   24.0021
    4.320   21.6640
    4.335   20.9900
    4.350   20.1896
    4.365   20.0632
    4.380   19.2628
    4.395   18.7362
    4.410   18.3992
    4.425   16.4192
    4.440   15.9663
    4.455   15.7873
    4.470   15.3344
    4.485   15.1237
    4.500   14.4392
    4.515   14.3549
    4.530   14.0179
    4.545   13.6914
    4.560   13.6704
    4.575   13.5861
    4.590   12.7436
    4.605   12.7436
    4.620   12.7751
    4.635   12.9858
    4.650   12.4697
    4.665   11.8799
    4.680   11.7325
    4.695   11.3112
    4.710   11.1848
    4.725   11.4481
    4.740   11.6377
    4.755   11.1427
    4.770   11.0795
    4.785   11.1848
    4.800   11.0900
    4.815   10.7214
    4.830   10.6898
    4.845   10.5108
    4.860   10.5108
    4.875   10.1948
    4.890   10.7952
    4.905   10.2159
    4.920   10.4476
    4.935   10.3002
    4.950   10.2791
    4.965   10.0579
    4.980    9.8157
    4.995   10.3949
    5.010   10.6793
    5.025   10.9110
    5.040   11.1532
    5.055   10.2896
    5.070   10.6056
    5.085   10.2580
    5.100   10.0263
    5.115   10.0579
    5.130   10.2054
    5.145    9.8368
    5.160   10.1001
    5.175   10.3844
    5.190   10.0158
    5.205   10.0369
    5.220   10.0474
    5.235    9.8368
    5.250   10.2054
    5.265    9.5524
    5.280    9.5524
    5.295    9.9210
    5.310   10.1527
    5.325   10.1527
    5.340   10.1316
    5.355    9.7104
    5.370   10.0685
    5.385    9.5419
    5.400    9.9105
    5.415    9.7841
    5.430   10.1001
    5.445    9.7946
    5.460    9.5313
    5.475    9.5313
    5.490    9.6577
    5.505    9.6893
    5.520    9.3734
    5.535    9.4576
    5.550    9.1943
    5.565    9.2575
    5.580    9.6893
    5.595    9.4365
    5.610    9.3207
    5.625    9.4681
    5.640    9.7314
    5.655    9.8368
    5.670    8.8152
    5.685    9.1522
    5.700    9.2575
    5.715    8.9100
    5.730    9.5313
    5.745    9.5840
    5.760    9.5840
    5.775    9.1838
    5.790    9.2680
    5.805    9.2048
    5.820    9.6051
    5.835    9.9947
    5.850    9.6788
    5.865    9.5629
    5.880    9.4471
    5.895    9.0047
    5.910    8.7520
    5.925    9.6472
    5.940    9.1417
    5.955    9.2154
    5.970    9.4787
    5.985    9.7104
    6.000    9.4471
    6.015    9.1732
    6.030    9.1101
    6.045    8.9942
    6.060    9.3207
    6.075    9.2891
    6.090    9.8052
    6.105    9.5524
    6.120    9.1417
    6.135    9.1943
    6.150    9.4997
    6.165    9.8262
    6.180    9.3734
    6.195    9.5840
    6.210    8.9626
    6.225    9.6051
    6.240    9.6367
    6.255    9.4576
    6.270    9.5945
    6.285    9.7525
    6.300    9.5419
    6.315    9.3734
    6.330    9.4576
    6.345   10.0579
    6.360    9.9526
    6.375    9.7420
    6.390    9.6261
    6.405    9.5735
    6.420    9.5419
    6.435   10.1211
    6.450   10.1843
    6.465    9.7946
    6.480    9.2891
    6.495   10.0685
    6.510   10.1843
    6.525   10.1948
    6.540   10.4371
    6.555   10.1527
    6.570   10.1316
    6.585   10.3423
    6.600    9.8578
    6.615   10.6056
    6.630   10.4687
    6.645   10.8162
    6.660   10.6161
    6.675   11.2270
    6.690   11.1006
    6.705   11.5640
    6.720   11.9747
    6.735   11.8905
    6.750   11.7641
    6.765   11.7325
    6.780   12.7646
    6.795   12.3960
    6.810   12.6804
    6.825   12.4908
    6.840   13.1122
    6.855   13.1122
    6.870   13.5861
    6.885   14.1759
    6.900   14.6288
    6.915   14.8499
    6.930   15.2923
    6.945   15.2291
    6.960   15.3976
    6.975   15.5766
    6.990   15.7873
    7.005   15.2817
    7.020   14.3549
    7.035   13.8599
    7.050   13.9442
    7.065   13.2175
    7.080   13.0068
    7.095   12.2591
    7.110   11.7325
    7.125   11.3323
    7.140   11.3639
    7.155   11.3955
    7.170   11.1848
    7.185   10.4160
    7.200   10.2896
    7.215   10.0263
    7.230   10.2791
    7.245   10.2054
    7.260    9.8999
    7.275   10.1948
    7.290   10.0474
    7.305   10.4055
    7.320    9.6893
    7.335    9.8473
    7.350    9.9526
    7.365   10.5424
    7.380   10.5529
    7.395   10.6372
    7.410   10.0790
    7.425    9.9631
    7.440    9.6472
    7.455   10.1527
    7.470   10.6056
    7.485   10.6477
    7.500   10.0474
    7.515   10.4687
    7.530   10.7530
    7.545   10.0685
    7.560   10.2686
    7.575   10.2054
    7.590   10.4160
    7.605   10.2370
    7.620    9.8473
    7.635   10.0579
    7.650   10.2686
    7.665   10.3107
    7.680   10.3318
    7.695   11.1216
    7.710   11.0058
    7.725   10.7636
    7.740   11.0479
    7.755   10.2791
    7.770   10.4581
    7.785   10.4055
    7.800   11.0269
    7.815   10.7004
    7.830   10.5424
    7.845   11.3533
    7.860   10.7530
    7.875   11.5850
    7.890   11.2480
    7.905   10.8057
    7.920   11.1848
    7.935   11.1111
    7.950   11.2375
    7.965   11.3849
    7.980   10.8373
    7.995   11.1427
    8.010   11.3744
    8.025   11.0163
    8.040   11.3217
    8.055   11.6588
    8.070   11.0690
    8.085   11.4271
    8.100   11.5008
    8.115   11.2902
    8.130   11.6166
    8.145   12.1327
    8.160   11.1427
    8.175   11.0795
    8.190   11.7325
    8.205   11.9431
    8.220   11.3217
    8.235   11.7852
    8.250   11.9431
    8.265   12.0274
    8.280   12.0484
    8.295   11.5008
    8.310   11.0585
    8.325   11.6482
    8.340   12.0274
    8.355   11.3533
    8.370   10.9531
    8.385   11.4587
    8.400   11.6904
    8.415   11.4376
    8.430   11.4587
    8.445   11.4165
    8.460   11.2586
    8.475   11.1848
    8.490   11.2059
    8.505   11.3007
    8.520   11.1322
    8.535   10.3739
    8.550   10.7320
    8.565   10.9110
    8.580   10.9847
    8.595   10.5951
    8.610   10.7214
    8.625   10.5740
    8.640   10.8268
    8.655   10.6266
    8.670    9.9842
    8.685   10.3844
    8.700   10.5108
    8.715   10.6582
    8.730   10.4687
    8.745   10.7952
    8.760   10.2791
    8.775   10.1738
    8.790   10.0369
    8.805   10.0895
    8.820   10.7636
    8.835   10.3107
    8.850   10.2896
    8.865   10.2896
    8.880    9.9631
    8.895    9.8894
    8.910    9.8789
    8.925    9.8578
    8.940    9.5735
    8.955    9.8473
    8.970    9.6998
    8.985    9.6788
    9.000    9.8368
    9.015    9.7946
    9.030   10.0474
    9.045    9.3839
    9.060    9.6998
    9.075    9.5840
    9.090    9.4681
    9.105    9.2680
    9.120    9.8684
    9.135    9.6367
    9.150    9.6998
    9.165    9.8262
    9.180    9.8052
    9.195    9.9631
    9.210   10.0790
    9.225    9.4365
    9.240    9.5629
    9.255    9.9842
    9.270    9.5945
    9.285    9.3523
    9.300    9.3312
    9.315    9.6051
    9.330    9.4050
    9.345    9.6472
    9.360    9.4050
    9.375    8.9521
    9.390    9.7420
    9.405    9.4681
    9.420    9.6367
    9.435   10.0369
    9.450    9.4365
    9.465    9.6998
    9.480    9.8052
    9.495    9.9210
    9.510    9.5629
    9.525    9.2996
    9.540    9.3734
    9.555    9.0785
    9.570    9.2259
    9.585    9.5629
    9.600    9.8368
    9.615    9.6682
    9.630    9.2996
    9.645    9.7841
    9.660    9.4681
    9.675    9.1732
    9.690    9.9315
    9.705    9.2891
    9.720    9.3839
    9.735    9.3418
    9.750    9.1838
    9.765    9.1627
    9.780    9.0995
    9.795    9.7946
    9.810    9.6156
    9.825    9.6998
    9.840    9.7420
    9.855    9.8157
    9.870    9.4576
    9.885    9.6051
    9.900    9.6893
    9.915    9.3312
    9.930    9.5419
    9.945    9.5629
    9.960    9.2364
    9.975    9.4260
    9.990    9.3628
   10.005    9.5524
   10.020    9.7420
   10.035    9.5629
   10.050    9.3523
   10.065    9.2786
   10.080    9.2575
   10.095    9.2786
   10.110    9.9421
   10.125    9.7525
   10.140    9.5419
   10.155    9.0785
   10.170    9.0890
   10.185    9.2154
   10.200    9.1101
   10.215    9.2048
   10.230    9.3102
   10.245    9.2786
   10.260    9.1522
   10.275    9.2048
   10.290    9.4681
   10.305    9.7420
   10.320    9.4050
   10.335    9.7104
   10.350    9.3523
   10.365    9.8789
   10.380    9.6893
   10.395    9.4892
   10.410    9.8578
   10.425    9.7104
   10.440    9.6156
   10.455    9.4892
   10.470    9.6156
   10.485    9.6682
   10.500    9.6682
   10.515    9.6577
   10.530    9.4155
   10.545    9.5524
   10.560    9.6788
   10.575    9.8368
   10.590    9.4681
   10.605    9.2996
   10.620    9.5629
   10.635    9.6156
   10.650    9.7946
   10.665    9.6051
   10.680    9.8262
   10.695   10.0790
   10.710    9.5840
   10.725    9.4260
   10.740    9.5735
   10.755    9.3734
   10.770    9.6577
   10.785    9.1627
   10.800    9.2996
   10.815    9.2996
   10.830    9.3312
   10.845    9.4260
   10.860    9.5735
   10.875    9.4471
   10.890    9.7209
   10.905    9.0679
   10.920    9.3312
   10.935    9.4681
   10.950    8.9415
   10.965    9.1732
   10.980    9.1417
   10.995    9.4155
   11.010    9.3207
   11.025    9.4787
   11.040    9.1627
   11.055    9.2048
   11.070    9.3207
   11.085    9.3628
   11.100    9.2786
   11.115    9.0153
   11.130    9.5103
   11.145    9.2786
   11.160    9.5103
   11.175    9.3312
   11.190    9.2364
   11.205    9.0469
   11.220    9.3523
   11.235    9.5629
   11.250    9.1311
   11.265    9.3312
   11.280    9.2259
   11.295    9.2470
   11.310    9.3207
   11.325    9.3734
   11.340    9.3628
   11.355    9.1627
   11.370    8.9310
   11.385    9.2996
   11.400    8.7098
   11.415    9.1627
   11.430    9.0469
   11.445    9.0995
   11.460    9.2470
   11.475    9.2891
   11.490    9.2786
   11.505    8.9310
   11.520    9.2364
   11.535    9.3523
   11.550    9.4997
   11.565    9.5208
   11.580    9.0679
   11.595    9.1943
   11.610    9.1101
   11.625    9.0785
   11.640    9.2680
   11.655    9.0890
   11.670    8.9521
   11.685    9.0153
   11.700    9.4155
   11.715    9.2364
   11.730    9.3312
   11.745    8.9731
   11.760    8.8994
   11.775    8.9100
   11.790    8.8152
   11.805    9.1732
   11.820    9.4260
   11.835    8.8468
   11.850    9.4155
   11.865    8.7941
   11.880    9.0890
   11.895    9.2786
   11.910    8.9205
   11.925    9.1627
   11.940    9.1943
   11.955    9.1101
   11.970    8.9942
   11.985    9.2154
   12.000    8.9205
   12.015    8.9310
   12.030    8.6467
   12.045    9.1101
   12.060    9.7209
   12.075    9.5208
   12.090    9.1101
   12.105    8.8468
   12.120    9.2891
   12.135    9.0574
   12.150    9.2364
   12.165    8.9205
   12.180    9.3312
   12.195    8.9415
   12.210    8.4887
   12.225    9.2364
   12.240    9.3628
   12.255    9.1417
   12.270    8.6467
   12.285    8.6045
   12.300    8.8994
   12.315    8.9731
   12.330    9.2470
   12.345    9.1311
   12.360    9.3628
   12.375    8.9310
   12.390    9.0047
   12.405    9.1838
   12.420    9.1522
   12.435    8.9310
   12.450    9.1522
   12.465    9.1522
   12.480    9.1522
   12.495    8.9626
   12.510    9.6261
   12.525    9.1101
   12.540    9.0890
   12.555    9.1206
   12.570    9.2575
   12.585    8.8257
   12.600    9.1943
   12.615    9.3839
   12.630    9.0469
   12.645    9.3734
   12.660    9.2048
   12.675    8.9415
   12.690    8.6256
   12.705    8.6045
   12.720    8.9415
   12.735    9.6156
   12.750    9.1732
   12.765    8.8994
   12.780    8.8678
   12.795    9.0363
   12.810    9.1101
   12.825    9.1206
   12.840    8.8152
   12.855    8.9100
   12.870    8.8573
   12.885    8.4992
   12.900    9.0047
   12.915    8.9837
   12.930    8.8152
   12.945    8.5835
   12.960    8.6888
   12.975    8.8784
   12.990    8.6361
   13.005    8.7098
   13.020    9.2680
   13.035    8.7836
   13.050    8.7309
   13.065    8.8468
   13.080    9.2470
   13.095    9.1732
   13.110    8.4676
   13.125    8.5940
   13.140    9.3312
   13.155    9.2048
   13.170    9.4050
   13.185    9.1311
   13.200    8.6572
   13.215    8.8257
   13.230    9.3312
   13.245    8.9310
   13.260    8.5729
   13.275    8.7941
   13.290    8.6467
   13.305    8.9205
   13.320    9.0679
   13.335    8.9942
   13.350    8.9521
   13.365    8.8152
   13.380    9.0469
   13.395    8.6256
   13.410    8.6888
   13.425    8.8257
   13.440    8.9626
   13.455    9.2364
   13.470    9.2364
   13.485    8.8994
   13.500    9.3312
   13.515    8.6467
   13.530    8.9521
   13.545    8.4150
   13.560    8.3518
   13.575    9.2048
   13.590    8.6993
   13.605    8.4255
   13.620    8.9942
   13.635    8.7941
   13.650    8.4571
   13.665    8.7941
   13.680    8.5308
   13.695    9.2154
   13.710    9.0363
   13.725    8.8362
   13.740    8.8468
   13.755    8.7204
   13.770    9.1101
   13.785    9.1838
   13.800    8.4781
   13.815    8.8678
   13.830    8.8152
   13.845    8.4676
   13.860    8.9731
   13.875    9.0469
   13.890    9.1311
   13.905    8.7414
   13.920    9.0469
   13.935    9.0258
   13.950    8.9942
   13.965    8.7520
   13.980    8.3096
   13.995    8.8678
   14.010    8.5835
   14.025    8.8257
   14.040    9.1417
   14.055    8.7098
   14.070    8.3412
   14.085    8.6888
   14.100    8.8152
   14.115    8.8257
   14.130    8.6888
   14.145    8.7309
   14.160    8.7520
   14.175    8.8573
   14.190    8.8152
   14.205    8.4781
   14.220    8.7414
   14.235    8.7625
   14.250    8.6256
   14.265    8.9521
   14.280    9.1838
   14.295    8.6572
   14.310    8.7414
   14.325    8.5097
   14.340    8.4466
   14.355    8.6361
   14.370    8.6572
   14.385    8.6572
   14.400    8.4571
   14.415    8.5413
   14.430    8.7625
   14.445    8.8889
   14.460    8.8362
   14.475    8.8152
   14.490    8.7625
   14.505    8.2886
   14.520    8.6151
   14.535    8.5835
   14.550    8.8889
   14.565    9.1943
   14.580    9.0469
   14.595    8.6256
   14.610    9.0258
   14.625    8.9100
   14.640    8.4676
   14.655    8.3202
   14.670    8.3834
   14.685    8.8468
   14.700    8.4571
   14.715    8.4571
   14.730    8.8362
   14.745    8.6783
   14.760    8.8362
   14.775    8.5519
   14.790    8.5097
   14.805    8.8784
   14.820    8.3939
   14.835    8.5308
   14.850    8.6677
   14.865    8.4255
   14.880    8.8152
   14.895    8.3202
   14.910    8.2464
   14.925    8.8046
   14.940    8.6467
   14.955    8.9837
   14.970    8.8784
   14.985    8.7520
   15.000    8.9310
   15.015    8.6572
   15.030    8.4360
   15.045    8.8889
   15.060    8.9100
   15.075    9.0258
   15.090    9.2891
   15.105    9.1311
   15.120    8.2570
   15.135    8.5624
   15.150    8.5413
   15.165    8.1095
   15.180    8.5413
   15.195    9.0995
   15.210    8.9731
   15.225    8.3939
   15.240    8.6256
   15.255    8.6151
   15.270    8.5835
   15.285    8.6888
   15.300    8.5097
   15.315    8.5308
   15.330    8.9100
   15.345    8.9731
   15.360    8.5097
   15.375    8.9205
   15.390    8.6888
   15.405    8.5940
   15.420    8.6467
   15.435    8.6467
   15.450    8.5729
   15.465    8.7836
   15.480    8.2886
   15.495    8.6888
   15.510    8.2570
   15.525    8.5940
   15.540    8.7098
   15.555    8.8784
   15.570    8.9626
   15.585    8.7309
   15.600    8.4255
   15.615    8.6677
   15.630    8.1517
   15.645    8.5203
   15.660    8.5729
   15.675    9.1522
   15.690    8.8678
   15.705    8.3939
   15.720    8.4255
   15.735    8.7414
   15.750    9.1206
   15.765    8.5835
   15.780    8.7941
   15.795    8.6467
   15.810    8.7309
   15.825    8.3834
   15.840    8.3202
   15.855    8.7098
   15.870    8.8362
   15.885    8.6151
   15.900    8.6572
   15.915    8.5624
   15.930    8.7309
   15.945    8.6888
   15.960    8.4887
   15.975    8.4992
   15.990    8.5413
   16.005    8.7730
   16.020    8.5308
   16.035    8.2043
   16.050    8.7098
   16.065    8.4255
   16.080    8.4887
   16.095    8.6151
   16.110    8.6572
   16.125    8.7098
   16.140    8.8468
   16.155    8.5308
   16.170    8.4781
   16.185    8.8784
   16.200    8.8257
   16.215    8.4676
   16.230    8.3307
   16.245    8.5835
   16.260    8.6993
   16.275    8.5203
   16.290    8.8152
   16.305    8.8678
   16.320    8.3096
   16.335    9.0047
   16.350    9.0574
   16.365    8.8994
   16.380    8.7625
   16.395    8.8678
   16.410    8.3518
   16.425    8.2464
   16.440    8.3623
   16.455    8.8784
   16.470    9.1732
   16.485    8.4571
   16.500    8.4781
   16.515    8.7836
   16.530    8.7941
   16.545    8.3623
   16.560    8.6677
   16.575    8.9521
   16.590    8.1938
   16.605    8.5203
   16.620    8.5097
   16.635    8.5308
   16.650    8.6888
   16.665    8.8994
   16.680    9.2996
   16.695    8.8046
   16.710    8.4044
   16.725    8.6888
   16.740    8.0885
   16.755    8.8362
   16.770    8.4466
   16.785    8.1727
   16.800    8.3518
   16.815    8.7625
   16.830    8.5519
   16.845    8.4992
   16.860    8.4992
   16.875    8.8468
   16.890    8.5940
   16.905    8.6993
   16.920    8.8046
   16.935    8.5097
   16.950    8.6151
   16.965    8.5203
   16.980    8.6572
   16.995    8.5519
   17.010    9.0258
   17.025    8.8046
   17.040    8.3096
   17.055    8.5097
   17.070    8.5519
   17.085    8.9415
   17.100    8.7730
   17.115    8.9205
   17.130    8.9310
   17.145    8.9521
   17.160    8.8573
   17.175    8.6783
   17.190    8.9415
   17.205    8.5835
   17.220    8.4676
   17.235    8.5097
   17.250    8.9521
   17.265    8.5519
   17.280    8.4044
   17.295    8.4571
   17.310    8.9205
   17.325    8.9626
   17.340    8.4887
   17.355    8.5940
   17.370    8.3623
   17.385    8.6677
   17.400    8.4992
   17.415    8.6993
   17.430    9.1943
   17.445    8.6151
   17.460    9.0890
   17.475    9.0047
   17.490    9.0153
   17.505    9.2364
   17.520    8.8046
   17.535    8.3728
   17.550    8.4466
   17.565    8.5729
   17.580    8.9626
   17.595    8.7414
   17.610    8.4676
   17.625    8.7625
   17.640    9.2891
   17.655    9.1101
   17.670    8.2359
   17.685    8.5729
   17.700    8.6888
   17.715    8.4992
   17.730    8.8046
   17.745    8.3728
   17.760    8.4360
   17.775    7.9621
   17.790    9.2996
   17.805    8.9731
   17.820    8.5624
   17.835    8.6467
   17.850    8.9521
   17.865    8.8152
   17.880    8.8994
   17.895    9.0258
   17.910    8.5729
   17.925    8.4676
   17.940    8.2043
   17.955    8.7309
   17.970    8.4150
   17.985    8.9837
   18.000    8.9626
   18.015    8.6467
   18.030    8.4887
   18.045    8.3518
   18.060    8.4992
   18.075    9.0890
   18.090    8.8994
   18.105    8.6888
   18.120    8.4150
   18.135    8.4571
   18.150    9.0890
   18.165    9.0469
   18.180    8.4676
   18.195    8.7625
   18.210    8.7204
   18.225    8.8678
   18.240    8.8889
   18.255    8.9626
   18.270    8.7204
   18.285    8.6467
   18.300    9.0995
   18.315    9.1417
   18.330    8.7204
   18.345    8.7414
   18.360    8.6361
   18.375    8.6361
   18.390    8.6993
   18.405    8.6888
   18.420    8.6256
   18.435    8.6993
   18.450    8.6361
   18.465    8.6888
   18.480    8.9942
   18.495    9.1101
   18.510    9.0785
   18.525    9.2786
   18.540    8.5308
   18.555    8.8468
   18.570    8.7309
   18.585    8.6783
   18.600    8.1938
   18.615    8.4887
   18.630    8.6467
   18.645    8.5624
   18.660    8.4150
   18.675    8.1938
   18.690    8.6361
   18.705    8.8257
   18.720    9.1838
   18.735    9.0785
   18.750    9.3523
   18.765    9.0469
   18.780    8.7625
   18.795    8.6151
   18.810    8.8889
   18.825    9.1522
   18.840    8.6993
   18.855    8.3307
   18.870    8.7520
   18.885    8.8468
   18.900    8.6783
   18.915    9.0890
   18.930    8.8152
   18.945    8.3307
   18.960    8.6888
   18.975    9.0469
   18.990    8.5729
   19.005    8.7520
   19.020    8.6993
   19.035    8.5729
   19.050    8.9731
   19.065    8.6256
   19.080    8.7941
   19.095    8.8362
   19.110    9.0679
   19.125    8.8573
   19.140    8.7098
   19.155    8.6045
   19.170    8.3412
   19.185    8.7204
   19.200    8.4781
   19.215    9.1838
   19.230    8.8573
   19.245    8.4992
   19.260    9.2259
   19.275    9.2154
   19.290    8.5097
   19.305    8.8468
   19.320    8.5729
   19.335    9.1838
   19.350    8.7309
   19.365    9.0890
   19.380    9.2786
   19.395    9.0047
   19.410    9.0153
   19.425    9.2048
   19.440    9.4787
   19.455    9.2680
   19.470    8.9521
   19.485    8.4255
   19.500    8.7098
   19.515    8.8889
   19.530    8.9415
   19.545    8.4887
   19.560    8.9731
   19.575    9.1101
   19.590    9.0153
   19.605    8.7520
   19.620    9.0574
   19.635    8.5097
   19.650    8.9205
   19.665    8.6888
   19.680    9.2259
   19.695    9.0679
   19.710    9.1732
   19.725    8.6572
   19.740    9.0785
   19.755    9.0047
   19.770    8.9626
   19.785    8.5835
   19.800    9.0363
   19.815    9.2680
   19.830    8.9100
   19.845    8.8784
   19.860    9.3734
   19.875    9.4681
   19.890    8.7941
   19.905    8.9100
   19.920    8.8468
   19.935    9.1732
   19.950    9.7946
   19.965    9.2680
   19.980    9.0363
   19.995    8.9837
   20.010    9.3418
   20.025    8.9942
   20.040    8.8994
   20.055    9.1627
   20.070    9.1417
   20.085    9.1206
   20.100    9.3102
   20.115    9.6261
   20.130    9.4471
   20.145    9.2048
   20.160    8.9415
   20.175    8.8573
   20.190    9.2259
   20.205    9.0995
   20.220    8.8468
   20.235    9.7420
   20.250    9.6577
   20.265    9.2259
   20.280    9.0785
   20.295    9.4997
   20.310    9.8157
   20.325    9.4576
   20.340    9.1838
   20.355    9.5103
   20.370    9.4681
   20.385    9.1206
   20.400    9.0574
   20.415    9.4576
   20.430    9.4892
   20.445    9.2891
   20.460    9.4155
   20.475    8.9205
   20.490    9.3207
   20.505    9.3312
   20.520    9.0258
   20.535    8.9942
   20.550    9.0890
   20.565    9.1311
   20.580    8.9837
   20.595    8.9100
   20.610    9.1943
   20.625    9.0679
   20.640    9.1838
   20.655    9.4050
   20.670    9.3944
   20.685    8.9626
   20.700    8.9626
   20.715    8.6151
   20.730    9.4892
   20.745    9.1522
   20.760    8.9731
   20.775    9.0995
   20.790    9.0785
   20.805    9.3312
   20.820    8.9310
   20.835    8.8678
   20.850    9.2364
   20.865    9.4260
   20.880    8.9100
   20.895    8.9837
   20.910    9.0679
   20.925    8.9310
   20.940    8.9415
   20.955    9.3207
   20.970    9.5103
   20.985    8.9626
   21.000    8.9942
   21.015    9.2786
   21.030    8.9626
   21.045    9.1417
   21.060    9.1417
   21.075    9.7314
   21.090    9.2470
   21.105    9.0679
   21.120    9.1206
   21.135    9.1206
   21.150    9.1627
   21.165    8.5413
   21.180    9.0363
   21.195    9.1311
   21.210    9.2891
   21.225    9.2048
   21.240    8.8678
   21.255    9.4365
   21.270    9.2048
   21.285    8.9521
   21.300    9.6051
   21.315    9.3312
   21.330    9.4681
   21.345    9.6367
   21.360    9.3839
   21.375    9.2680
   21.390    9.4260
   21.405    9.4681
   21.420    8.7098
   21.435    9.2470
   21.450    9.4576
   21.465    9.0785
   21.480    9.2891
   21.495    9.0679
   21.510    8.8889
   21.525    8.9521
   21.540    9.1627
   21.555    9.4892
   21.570    9.3628
   21.585    9.1838
   21.600    9.1522
   21.615    9.4260
   21.630    8.9521
   21.645    9.3207
   21.660    9.2048
   21.675    9.1311
   21.690    9.2154
   21.705    9.5840
   21.720    9.8262
   21.735    9.4892
   21.750    9.3312
   21.765    9.6367
   21.780    9.4787
   21.795    9.3839
   21.810    9.1101
   21.825    9.2259
   21.840    9.6472
   21.855    9.7209
   21.870    8.8994
   21.885    8.9205
   21.900    8.8784
   21.915    8.8468
   21.930    9.2259
   21.945    9.0574
   21.960    9.0785
   21.975    8.9100
   21.990    9.4787
   22.005    9.2680
   22.020    8.9415
   22.035    8.7309
   22.050    9.3418
   22.065    8.8573
   22.080    8.9942
   22.095    9.3944
   22.110    9.0679
   22.125    9.2891
   22.140    8.8573
   22.155    9.1943
   22.170    8.6783
   22.185    9.0995
   22.200    9.0574
   22.215    8.9942
   22.230    9.3734
   22.245    9.3523
   22.260    9.1101
   22.275    9.3207
   22.290    9.2048
   22.305    9.4260
   22.320    9.4050
   22.335    8.8994
   22.350    9.0995
   22.365    9.6472
   22.380   10.0579
   22.395    9.7209
   22.410    9.2786
   22.425    9.0574
   22.440    9.3839
   22.455    9.2048
   22.470    9.3839
   22.485    9.2680
   22.500    9.4892
   22.515    9.2364
   22.530    9.7209
   22.545    9.2470
   22.560    9.3839
   22.575    9.2786
   22.590    9.0153
   22.605    9.2891
   22.620    9.4681
   22.635    9.0153
   22.650    9.0363
   22.665    8.8889
   22.680    9.1522
   22.695    9.0574
   22.710    9.3944
   22.725    9.4365
   22.740    8.8889
   22.755    8.9837
   22.770    9.2259
   22.785    9.3102
   22.800    9.2154
   22.815    9.1417
   22.830    9.2786
   22.845    9.2891
   22.860    9.4260
   22.875    9.4681
   22.890    9.5735
   22.905    9.4050
   22.920    9.4365
   22.935    9.1627
   22.950    9.2680
   22.965    9.5103
   22.980    9.5629
   22.995    9.2154
   23.010    9.1627
   23.025    8.8362
   23.040    8.9310
   23.055    9.4576
   23.070    9.2575
   23.085    9.2786
   23.100    8.9626
   23.115    9.0258
   23.130    9.6156
   23.145    9.4471
   23.160    8.8468
   23.175    8.9521
   23.190    9.2154
   23.205    9.0679
   23.220    9.1627
   23.235    9.0574
   23.250    9.0047
   23.265    8.8468
   23.280    9.1732
   23.295    9.2680
   23.310    9.3944
   23.325    9.1311
   23.340    9.0153
   23.355    9.2680
   23.370    8.9837
   23.385    9.1627
   23.400    9.0258
   23.415    9.0574
   23.430    8.8889
   23.445    8.8362
   23.460    9.1417
   23.475    9.4050
   23.490    9.3312
   23.505    9.0469
   23.520    9.1101
   23.535    9.2680
   23.550    9.1311
   23.565    8.6151
   23.580    8.6783
   23.595    8.9205
   23.610    8.8889
   23.625    9.3944
   23.640    9.1627
   23.655    9.3734
   23.670    9.1522
   23.685    9.0574
   23.700    9.4155
   23.715    9.4681
   23.730    9.5103
   23.745    9.0469
   23.760    8.8152
   23.775    8.7941
   23.790    8.9415
   23.805    8.9521
   23.820    8.8784
   23.835    8.8994
   23.850    8.6256
   23.865    8.7730
   23.880    9.0679
   23.895    8.6467
   23.910    9.3734
   23.925    9.3734
   23.940    8.5308
   23.955    8.9731
   23.970    9.1206
   23.985    9.7104
   24.000    9.1627
   24.015    8.9942
   24.030    8.8362
   24.045    9.0258
   24.060    9.1627
   24.075    8.8468
   24.090    9.0785
   24.105    8.4255
   24.120    8.5097
   24.135    8.8784
   24.150    8.7836
   24.165    9.1838
   24.180    8.8678
   24.195    8.9415
   24.210    9.1732
   24.225    8.8678
   24.240    8.8889
   24.255    9.1101
   24.270    8.7836
   24.285    8.8468
   24.300    8.9310
   24.315    9.0679
   24.330    9.0153
   24.345    8.9731
   24.360    8.9731
   24.375    8.4466
   24.390    9.2680
   24.405    9.0363
   24.420    8.7730
   24.435    8.6993
   24.450    8.9731
   24.465    8.9521
   24.480    8.8046
   24.495    8.6783
   24.510    8.8784
   24.525    8.9521
   24.540    8.9837
   24.555    8.7204
   24.570    8.8257
   24.585    8.8257
   24.600    8.6888
   24.615    8.9205
   24.630    8.7098
   24.645    8.8152
   24.660    9.4365
   24.675    9.3523
   24.690    8.8573
   24.705    8.6783
   24.720    8.8784
   24.735    9.0047
   24.750    8.6572
   24.765    8.9626
   24.780    8.8784
   24.795    8.8362
   24.810    9.0363
   24.825    8.6888
   24.840    8.7836
   24.855    8.8046
   24.870    8.9205
   24.885    9.1627
   24.900    8.8362
   24.915    8.4887
   24.930    8.6151
   24.945    8.4887
   24.960    8.9942
   24.975    9.2891
   24.990    9.3207
   25.005    8.9731
   25.020    8.6677
   25.035    8.5413
   25.050    8.8889
   25.065    8.8889
   25.080    8.7625
   25.095    8.7204
   25.110    9.0258
   25.125    8.6361
   25.140    8.7625
   25.155    8.5308
   25.170    8.4150
   25.185    8.7520
   25.200    8.4466
   25.215    8.8573
   25.230    8.6783
   25.245    8.5624
   25.260    8.3623
   25.275    8.8678
   25.290    8.4676
   25.305    8.4360
   25.320    8.4360
   25.335    9.1311
   25.350    8.1833
   25.365    8.6151
   25.380    9.1206
   25.395    8.9310
   25.410    8.9415
   25.425    8.5413
   25.440    8.4255
   25.455    8.6888
   25.470    8.6256
   25.485    8.7414
   25.500    8.5413
   25.515    8.4992
   25.530    8.2359
   25.545    8.9415
   25.560    8.7204
   25.575    8.9626
   25.590    8.5413
   25.605    8.7414
   25.620    8.8573
   25.635    8.5940
   25.650    8.6151
   25.665    8.8573
   25.680    8.7204
   25.695    9.0785
   25.710    8.9626
   25.725    8.9310
   25.740    8.3202
   25.755    8.4781
   25.770    8.7625
   25.785    8.5413
   25.800    8.8468
   25.815    8.2780
   25.830    8.4992
   25.845    8.6993
   25.860    8.6888
   25.875    8.7941
   25.890    8.7098
   25.905    8.4887
   25.920    8.4150
   25.935    8.6467
   25.950    8.7098
   25.965    8.3518
   25.980    8.6256
   25.995    8.5308
   26.010    8.9205
   26.025    8.7414
   26.040    8.7730
   26.055    8.2149
   26.070    8.6151
   26.085    8.4255
   26.100    8.5729
   26.115    8.7098
   26.130    8.8994
   26.145    8.4466
   26.160    8.2254
   26.175    8.5203
   26.190    8.7625
   26.205    8.3096
   26.220    8.6467
   26.235    8.1833
   26.250    8.0569
   26.265    8.0042
   26.280    8.4044
   26.295    8.3939
   26.310    8.5203
   26.325    8.7625
   26.340    8.1938
   26.355    8.2780
   26.370    8.2464
   26.385    8.7414
   26.400    8.8257
   26.415    8.9731
   26.430    8.5835
   26.445    8.5729
   26.460    8.4992
   26.475    8.5940
   26.490    8.7414
   26.505    8.4466
   26.520    8.2254
   26.535    8.3096
   26.550    8.5308
   26.565    8.7520
   26.580    8.4044
   26.595    8.4044
   26.610    8.4676
   26.625    8.1833
   26.640    8.5519
   26.655    9.0047
   26.670    8.7204
   26.685    8.3939
   26.700    8.3728
   26.715    8.0253
   26.730    8.3202
   26.745    8.3096
   26.760    8.4255
   26.775    8.2780
   26.790    8.4887
   26.805    8.5940
   26.820    8.2991
   26.835    8.8257
   26.850    8.6467
   26.865    8.2464
   26.880    8.3412
   26.895    8.6361
   26.910    8.3518
   26.925    8.7098
   26.940    8.3834
   26.955    8.5519
   26.970    8.6677
   26.985    8.7204
   27.000    8.3623
   27.015    8.0147
   27.030    8.1306
   27.045    8.2149
   27.060    8.2886
   27.075    8.7836
   27.090    8.5940
   27.105    8.8257
   27.120    8.7309
   27.135    8.3518
   27.150    8.6256
   27.165    8.7520
   27.180    8.5835
   27.195    8.6361
   27.210    8.3623
   27.225    8.4255
   27.240    8.5729
   27.255    8.2043
   27.270    8.0042
   27.285    7.9937
   27.300    8.7836
   27.315    8.5308
   27.330    8.0885
   27.345    8.0569
   27.360    8.4466
   27.375    8.1306
   27.390    8.5729
   27.405    8.4571
   27.420    8.5729
   27.435    8.9100
   27.450    8.8046
   27.465    8.6045
   27.480    8.4571
   27.495    8.4044
   27.510    8.1833
   27.525    8.3518
   27.540    8.4044
   27.555    8.3939
   27.570    8.5413
   27.585    8.2991
   27.600    8.3623
   27.615    8.3728
   27.630    7.9621
   27.645    8.6256
   27.660    7.9305
   27.675    8.2149
   27.690    8.2886
   27.705    8.2675
   27.720    8.5203
   27.735    8.1727
   27.750    8.2886
   27.765    8.3728
   27.780    8.5308
   27.795    8.2570
   27.810    8.3096
   27.825    8.3518
   27.840    8.4044
   27.855    8.8046
   27.870    8.3307
   27.885    8.2991
   27.900    8.4571
   27.915    8.1201
   27.930    8.0674
   27.945    8.2780
   27.960    8.3518
   27.975    8.3096
   27.990    8.1306
   28.005    8.1517
   28.020    8.5519
   28.035    8.1517
   28.050    8.4571
   28.065    8.2254
   28.080    7.9410
   28.095    8.9205
   28.110    8.3518
   28.125    8.0990
   28.140    8.5203
   28.155    8.4466
   28.170    8.5729
   28.185    9.0679
   28.200    8.6361
   28.215    8.8994
   28.230    8.9205
   28.245    8.4255
   28.260    8.4676
   28.275    8.7204
   28.290    8.5940
   28.305    8.6888
   28.320    8.1517
   28.335    8.5308
   28.350    8.3307
   28.365    8.6256
   28.380    8.4044
   28.395    7.9200
   28.410    8.2991
   28.425    8.5097
   28.440    8.2780
   28.455    8.0358
   28.470    8.3307
   28.485    8.2570
   28.500    7.8884
   28.515    8.0042
   28.530    8.5835
   28.545    8.2043
   28.560    8.4992
   28.575    8.4150
   28.590    8.1622
   28.605    8.2991
   28.620    8.0990
   28.635    8.2359
   28.650    8.2043
   28.665    7.7620
   28.680    8.1622
   28.695    8.1833
   28.710    7.9937
   28.725    7.9200
   28.740    7.8989
   28.755    8.0990
   28.770    8.4255
   28.785    8.1201
   28.800    8.2149
   28.815    8.1517
   28.830    7.8568
   28.845    7.9410
   28.860    8.1833
   28.875    8.2780
   28.890    8.3202
   28.905    7.9621
   28.920    8.5308
   28.935    8.6993
   28.950    8.1411
   28.965    8.0147
   28.980    8.1727
   28.995    7.9621
   29.010    8.0463
   29.025    8.1727
   29.040    7.8989
   29.055    7.8778
   29.070    8.0885
   29.085    7.8041
   29.100    7.8146
   29.115    8.3412
   29.130    8.3202
   29.145    7.7093
   29.160    8.0779
   29.175    7.9937
   29.190    7.7830
   29.205    8.0042
   29.220    8.3307
   29.235    8.2570
   29.250    8.0042
   29.265    8.4781
   29.280    8.6467
   29.295    8.0147
   29.310    8.5835
   29.325    8.3202
   29.340    8.5413
   29.355    8.5940
   29.370    8.2886
   29.385    8.5413
   29.400    8.2991
   29.415    8.2464
   29.430    8.2886
   29.445    8.3202
   29.460    8.1727
   29.475    7.9621
   29.490    8.2149
   29.505    7.6988
   29.520    8.2149
   29.535    8.2043
   29.550    7.9726
   29.565    8.1095
   29.580    8.2359
   29.595    8.1306
   29.610    7.9621
   29.625    7.8568
   29.640    8.1938
   29.655    8.1727
   29.670    8.1306
   29.685    8.3412
   29.700    7.9516
   29.715    7.9094
   29.730    8.1517
   29.745    8.0463
   29.760    8.2675
   29.775    7.9200
   29.790    7.7409
   29.805    8.2359
   29.820    8.2043
   29.835    8.2149
   29.850    8.1306
   29.865    7.9094
   29.880    7.8673
   29.895    8.1411
   29.910    8.0463
   29.925    7.8778
   29.940    7.8252
   29.955    7.9094
   29.970    7.9305
   29.985    8.1517
   30.000    8.1201
   30.015    8.3307
   30.030    7.9200
   30.045    8.3412
   30.060    8.3096
   30.075    8.2359
   30.090    8.7309
   30.105    8.3939
   30.120    8.1938
   30.135    7.6356
   30.150    7.8673
   30.165    7.7304
   30.180    8.2043
   30.195    8.0885
   30.210    8.0463
   30.225    7.9726
   30.240    8.1306
   30.255    8.1727
   30.270    7.9200
   30.285    7.9621
   30.300    8.1727
   30.315    7.8884
   30.330    7.8252
   30.345    8.2991
   30.360    8.2254
   30.375    8.1306
   30.390    8.3307
   30.405    7.9937
   30.420    8.0042
   30.435    8.3307
   30.450    8.0779
   30.465    7.7725
   30.480    7.8462
   30.495    8.0990
   30.510    8.2464
   30.525    7.8041
   30.540    7.9200
   30.555    8.4992
   30.570    7.9726
   30.585    8.3518
   30.600    7.7514
   30.615    7.7304
   30.630    7.9410
   30.645    8.0358
   30.660    7.9726
   30.675    7.9516
   30.690    7.9200
   30.705    7.8041
   30.720    7.6883
   30.735    7.8252
   30.750    7.7409
   30.765    8.2254
   30.780    8.0253
   30.795    7.9094
   30.810    8.5097
   30.825    7.8884
   30.840    7.9305
   30.855    7.5619
   30.870    7.7093
   30.885    7.5197
   30.900    7.9516
   30.915    7.9831
   30.930    8.3728
   30.945    7.9516
   30.960    7.6988
   30.975    7.8673
   30.990    7.9621
   31.005    8.3834
   31.020    8.2149
   31.035    7.8357
   31.050    7.7514
   31.065    7.7830
   31.080    8.3834
   31.095    7.9094
   31.110    8.5940
   31.125    8.0147
   31.140    7.9516
   31.155    7.8462
   31.170    7.9937
   31.185    8.1622
   31.200    8.1306
   31.215    7.8884
   31.230    7.9516
   31.245    7.9621
   31.260    7.8778
   31.275    8.2149
   31.290    8.1938
   31.305    8.0885
   31.320    7.8357
   31.335    7.8146
   31.350    7.5092
   31.365    7.9621
   31.380    7.7830
   31.395    7.7830
   31.410    7.8884
   31.425    7.6567
   31.440    7.6461
   31.455    8.1201
   31.470    8.6361
   31.485    7.9621
   31.500    8.0990
   31.515    7.8357
   31.530    7.4566
   31.545    7.3091
   31.560    7.8673
   31.575    7.8673
   31.590    8.0569
   31.605    8.1727
   31.620    7.8146
   31.635    8.4676
   31.650    7.8884
   31.665    7.6988
   31.680    8.2991
   31.695    7.9937
   31.710    7.9726
   31.725    7.7093
   31.740    8.2991
   31.755    8.0990
   31.770    8.0463
   31.785    7.9094
   31.800    7.7409
   31.815    8.0253
   31.830    7.9094
   31.845    7.9410
   31.860    8.1306
   31.875    8.1727
   31.890    7.4987
   31.905    7.8884
   31.920    7.8568
   31.935    7.8357
   31.950    8.0358
   31.965    7.8252
   31.980    8.1517
   31.995    8.0253
   32.010    8.1201
   32.025    8.3202
   32.040    7.7725
   32.055    7.8673
   32.070    7.6567
   32.085    8.7520
   32.100    8.4571
   32.115    7.6251
   32.130    8.3518
   32.145    7.7304
   32.160    8.0358
   32.175    8.2464
   32.190    7.8778
   32.205    7.7620
   32.220    8.1411
   32.235    8.1306
   32.250    7.8778
   32.265    7.9200
   32.280    7.8462
   32.295    7.6988
   32.310    7.4987
   32.325    7.8884
   32.340    7.5513
   32.355    7.6988
   32.370    8.0569
   32.385    7.8989
   32.400    7.9200
   32.415    8.2570
   32.430    7.7514
   32.445    7.6883
   32.460    8.1517
   32.475    8.1833
   32.490    8.0463
   32.505    7.5935
   32.520    7.8357
   32.535    7.7199
   32.550    7.6777
   32.565    7.2670
   32.580    8.0147
   32.595    8.3202
   32.610    8.1938
   32.625    7.6567
   32.640    7.8989
   32.655    7.9410
   32.670    7.6777
   32.685    7.9726
   32.700    7.7936
   32.715    8.0569
   32.730    7.6145
   32.745    8.0885
   32.760    7.5935
   32.775    7.4987
   32.790    7.4250
   32.805    7.3302
   32.820    8.0463
   32.835    7.4882
   32.850    7.7620
   32.865    7.9726
   32.880    7.5513
   32.895    7.5829
   32.910    7.9621
   32.925    8.1622
   32.940    8.0042
   32.955    7.6461
   32.970    7.4776
   32.985    7.6251
   33.000    7.8462
   33.015    8.0569
   33.030    7.3618
   33.045    7.2880
   33.060    7.2775
   33.075    7.7620
   33.090    7.9831
   33.105    8.1938
   33.120    8.2886
   33.135    8.0147
   33.150    7.5724
   33.165    7.9516
   33.180    7.8673
   33.195    7.8778
   33.210    7.7725
   33.225    7.6777
   33.240    7.5197
   33.255    7.8778
   33.270    7.9621
   33.285    7.5303
   33.300    7.5408
   33.315    7.9410
   33.330    7.8462
   33.345    7.6461
   33.360    7.1511
   33.375    7.8673
   33.390    7.4144
   33.405    7.4144
   33.420    7.6356
   33.435    7.8673
   33.450    7.5303
   33.465    7.4776
   33.480    7.8041
   33.495    7.9200
   33.510    7.4460
   33.525    7.4671
   33.540    7.6461
   33.555    7.4671
   33.570    7.8568
   33.585    7.9516
   33.600    7.5197
   33.615    7.3828
   33.630    7.2986
   33.645    7.6040
   33.660    7.7409
   33.675    7.5935
   33.690    7.6356
   33.705    7.7620
   33.720    7.7936
   33.735    7.4882
   33.750    7.7093
   33.765    7.5092
   33.780    7.3828
   33.795    8.0358
   33.810    7.6883
   33.825    7.5619
   33.840    7.7199
   33.855    7.8884
   33.870    8.0674
   33.885    7.6883
   33.900    7.9621
   33.915    7.8673
   33.930    7.7304
   33.945    7.6461
   33.960    7.5092
   33.975    7.9831
   33.990    7.9516
   34.005    7.8252
   34.020    8.0463
   34.035    7.9410
   34.050    7.8568
   34.065    8.0674
   34.080    7.4039
   34.095    7.9410
   34.110    7.4355
   34.125    7.3512
   34.140    7.9094
   34.155    8.0463
   34.170    8.0042
   34.185    7.7830
   34.200    8.3518
   34.215    7.7199
   34.230    7.6777
   34.245    7.6461
   34.260    8.0463
   34.275    8.2149
   34.290    7.8568
   34.305    7.5619
   34.320    7.5408
   34.335    7.3302
   34.350    7.8673
   34.365    7.7093
   34.380    7.5092
   34.395    7.5303
   34.410    7.7514
   34.425    7.6040
   34.440    7.8041
   34.455    7.4566
   34.470    7.2670
   34.485    7.5303
   34.500    7.6040
   34.515    7.7936
   34.530    7.7830
   34.545    7.7409
   34.560    7.6251
   34.575    7.7409
   34.590    7.5197
   34.605    8.0674
   34.620    7.6883
   34.635    7.4460
   34.650    7.6040
   34.665    7.6461
   34.680    7.6883
   34.695    7.5513
   34.710    7.6777
   34.725    7.7830
   34.740    7.6567
   34.755    7.7514
   34.770    7.7514
   34.785    7.4460
   34.800    7.6356
   34.815    7.4250
   34.830    7.4250
   34.845    7.7725
   34.860    7.8778
   34.875    7.6988
   34.890    7.4355
   34.905    7.5092
   34.920    7.9831
   34.935    7.6567
   34.950    7.6672
   34.965    7.8252
   34.980    8.0147
   34.995    7.7304
   35.010    7.4355
   35.025    7.6040
   35.040    7.4250
   35.055    7.7830
   35.070    7.9937
   35.085    7.6777
   35.100    7.6883
   35.115    7.2249
   35.130    7.7304
   35.145    7.5724
   35.160    7.5724
   35.175    7.4355
   35.190    7.7936
   35.205    7.5197
   35.220    7.4776
   35.235    7.6461
   35.250    7.2459
   35.265    7.5092
   35.280    7.5092
   35.295    7.3934
   35.310    7.6672
   35.325    7.5092
   35.340    7.8884
   35.355    7.7199
   35.370    7.4355
   35.385    7.6988
   35.400    7.7830
   35.415    7.6251
   35.430    7.7725
   35.445    7.8778
   35.460    7.2565
   35.475    7.5619
   35.490    7.9937
   35.505    7.5303
   35.520    7.4987
   35.535    7.3091
   35.550    7.6567
   35.565    7.5619
   35.580    7.8252
   35.595    7.1195
   35.610    7.5197
   35.625    7.7830
   35.640    7.6988
   35.655    7.6461
   35.670    7.9516
   35.685    7.7514
   35.700    7.6567
   35.715    7.6145
   35.730    7.6251
   35.745    7.4250
   35.760    7.8989
   35.775    7.8884
   35.790    7.6988
   35.805    7.2565
   35.820    7.4566
   35.835    7.2459
   35.850    7.4250
   35.865    7.7936
   35.880    7.9831
   35.895    7.8884
   35.910    7.1511
   35.925    7.4355
   35.940    7.5197
   35.955    7.8357
   35.970    7.5619
   35.985    7.4144
   36.000    7.7304
   36.015    7.8568
   36.030    8.1095
   36.045    7.9305
   36.060    7.9305
   36.075    7.7304
   36.090    7.4882
   36.105    7.8041
   36.120    7.7093
   36.135    7.7093
   36.150    7.3512
   36.165    7.4987
   36.180    7.6461
   36.195    7.6988
   36.210    7.5724
   36.225    7.7725
   36.240    7.5935
   36.255    7.5829
   36.270    7.0985
   36.285    7.4355
   36.300    7.3196
   36.315    7.3091
   36.330    7.6672
   36.345    8.2359
   36.360    7.8462
   36.375    7.9305
   36.390    8.2149
   36.405    7.6988
   36.420    7.4882
   36.435    7.8357
   36.450    7.2459
   36.465    7.6672
   36.480    7.8252
   36.495    7.4250
   36.510    7.6672
   36.525    7.2986
   36.540    7.2565
   36.555    7.4355
   36.570    7.9410
   36.585    8.1411
   36.600    7.5619
   36.615    7.4671
   36.630    7.3723
   36.645    7.4671
   36.660    7.3934
   36.675    7.7620
   36.690    7.5935
   36.705    7.1195
   36.720    7.5408
   36.735    7.6883
   36.750    7.5197
   36.765    7.7093
   36.780    7.2670
   36.795    7.2880
   36.810    7.4882
   36.825    7.5092
   36.840    7.5197
   36.855    7.0879
   36.870    7.4460
   36.885    7.6567
   36.900    7.3512
   36.915    7.7199
   36.930    7.6988
   36.945    7.3618
   36.960    7.2565
   36.975    7.7830
   36.990    7.5303
   37.005    7.5724
   37.020    7.4039
   37.035    7.2670
   37.050    7.1827
   37.065    8.1517
   37.080    7.4039
   37.095    7.0563
   37.110    7.3091
   37.125    7.7830
   37.140    7.2565
   37.155    7.4776
   37.170    7.8252
   37.185    7.6777
   37.200    7.6145
   37.215    7.7304
   37.230    7.2880
   37.245    7.3723
   37.260    7.9726
   37.275    7.3828
   37.290    7.4460
   37.305    7.2459
   37.320    7.5092
   37.335    7.2038
   37.350    7.2880
   37.365    7.3196
   37.380    7.5092
   37.395    7.4144
   37.410    7.6251
   37.425    7.2775
   37.440    7.6988
   37.455    7.8041
   37.470    7.4987
   37.485    7.5513
   37.500    7.6251
   37.515    7.5513
   37.530    7.6145
   37.545    7.5408
   37.560    7.3512
   37.575    7.4144
   37.590    7.3828
   37.605    7.2459
   37.620    7.3618
   37.635    7.4671
   37.650    7.5092
   37.665    7.3302
   37.680    7.6567
   37.695    7.2143
   37.710    7.3934
   37.725    7.3723
   37.740    7.3091
   37.755    7.6567
   37.770    7.4144
   37.785    7.9305
   37.800    7.9410
   37.815    7.8357
   37.830    7.6567
   37.845    7.4144
   37.860    7.6145
   37.875    7.5619
   37.890    7.4671
   37.905    7.3302
   37.920    7.3407
   37.935    7.6988
   37.950    7.1406
   37.965    7.3512
   37.980    7.5197
   37.995    7.4039
   38.010    7.3302
   38.025    7.2038
   38.040    7.6461
   38.055    7.3407
   38.070    7.2565
   38.085    7.7304
   38.100    7.4460
   38.115    7.5513
   38.130    7.2775
   38.145    7.7199
   38.160    7.4039
   38.175    8.0463
   38.190    7.4882
   38.205    7.4039
   38.220    7.7199
   38.235    7.6356
   38.250    7.3407
   38.265    6.9932
   38.280    7.1827
   38.295    7.1090
   38.310    7.0879
   38.325    7.3934
   38.340    7.1406
   38.355    7.7199
   38.370    7.6672
   38.385    7.6567
   38.400    7.4987
   38.415    7.5303
   38.430    6.9616
   38.445    7.2775
   38.460    7.6356
   38.475    7.5092
   38.490    7.7725
   38.505    7.8673
   38.520    8.0569
   38.535    7.9200
   38.550    7.3091
   38.565    7.8568
   38.580    8.0885
   38.595    7.6251
   38.610    7.4355
   38.625    7.8041
   38.640    7.9726
   38.655    7.6672
   38.670    7.5303
   38.685    7.7304
   38.700    7.3934
   38.715    7.6567
   38.730    7.5197
   38.745    7.7304
   38.760    7.3407
   38.775    7.0985
   38.790    7.3302
   38.805    7.6145
   38.820    7.1195
   38.835    7.6356
   38.850    7.3723
   38.865    7.3512
   38.880    7.4776
   38.895    7.3302
   38.910    7.6672
   38.925    7.6251
   38.940    7.3512
   38.955    7.6356
   38.970    7.6040
   38.985    7.5513
   39.000    7.0774
   39.015    7.3723
   39.030    7.4566
   39.045    7.1195
   39.060    7.5513
   39.075    7.4882
   39.090    7.5619
   39.105    7.9410
   39.120    7.5513
   39.135    7.1617
   39.150    7.6356
   39.165    7.3828
   39.180    7.3512
   39.195    7.6883
   39.210    7.9726
   39.225    7.5197
   39.240    7.1827
   39.255    7.4566
   39.270    7.3723
   39.285    7.5092
   39.300    7.5619
   39.315    7.7304
   39.330    6.7509
   39.345    7.4144
   39.360    7.3302
   39.375    7.1933
   39.390    7.4355
   39.405    7.3934
   39.420    7.5303
   39.435    7.4250
   39.450    6.9510
   39.465    7.6461
   39.480    7.3723
   39.495    7.2565
   39.510    7.4250
   39.525    7.8357
   39.540    8.0990
   39.555    7.5197
   39.570    7.8989
   39.585    7.5724
   39.600    7.8462
   39.615    7.6777
   39.630    7.1511
   39.645    6.9826
   39.660    7.6145
   39.675    7.6040
   39.690    7.3618
   39.705    7.6356
   39.720    7.4144
   39.735    7.1195
   39.750    7.0037
   39.765    7.3512
   39.780    7.2143
   39.795    7.5303
   39.810    7.6251
   39.825    7.4566
   39.840    7.4460
   39.855    7.2354
   39.870    7.3407
   39.885    7.7725
   39.900    7.3407
   39.915    7.6567
   39.930    7.0774
   39.945    7.3407
   39.960    7.3934
   39.975    7.0985
   39.990    6.9300
