    1.500   13.1999
    1.515   13.1122
    1.530   13.2877
    1.545   12.3925
    1.560   12.4451
    1.575   12.7260
    1.590   12.1467
    1.605   12.3925
    1.620   11.8308
    1.635   12.2696
    1.650   12.1292
    1.665   11.1287
    1.680   11.7957
    1.695   11.1111
    1.710   11.1111
    1.725   11.7079
    1.740   11.6553
    1.755   11.6026
    1.770   11.1813
    1.785   11.1989
    1.800   11.2866
    1.815   10.8829
    1.830   10.4792
    1.845   10.5670
    1.860   10.7776
    1.875   10.3739
    1.890   10.5319
    1.905   10.2335
    1.920   10.5494
    1.935   10.7952
    1.950   10.7074
    1.965   10.5143
    1.980    9.7771
    1.995   10.5494
    2.010   10.6021
    2.025   10.8127
    2.040   10.3037
    2.055    9.8297
    2.070    9.8473
    2.085   10.0930
    2.100    9.8122
    2.115    9.6893
    2.130    9.6015
    2.145    9.8473
    2.160    9.6015
    2.175    9.5489
    2.190    9.2329
    2.205    9.6893
    2.220    9.5138
    2.235    9.1803
    2.250    9.4085
    2.265    9.1452
    2.280    9.0750
    2.295    8.9345
    2.310    8.9872
    2.325    9.1978
    2.340    8.7941
    2.355    9.5840
    2.370    9.1627
    2.385    9.4085
    2.400    9.0574
    2.415    8.8819
    2.430    8.6712
    2.445    8.5659
    2.460    9.4260
    2.475    9.0047
    2.490    8.5133
    2.505    8.4781
    2.520    8.3026
    2.535    8.6010
    2.550    8.4957
    2.565    8.6537
    2.580    8.2500
    2.595    8.1973
    2.610    8.6888
    2.625    8.8819
    2.640    8.8117
    2.655    8.9872
    2.670    8.6361
    2.685    8.2324
    2.700    8.2675
    2.715    8.1271
    2.730    8.5484
    2.745    8.7765
    2.760    8.3553
    2.775    8.0393
    2.790    8.1095
    2.805    8.2500
    2.820    8.3553
    2.835    8.2675
    2.850    8.0393
    2.865    8.4781
    2.880    8.1797
    2.895    8.4606
    2.910    8.6712
    2.925    8.6186
    2.940    8.0920
    2.955    7.7409
    2.970    7.7058
    2.985    8.1271
    3.000    7.8813
    3.015    8.0569
    3.030    8.0042
    3.045    8.6888
    3.060    8.1797
    3.075    8.1271
    3.090    8.0920
    3.105    7.7760
    3.120    8.3553
    3.135    7.6356
    3.150    8.2851
    3.165    8.5308
    3.180    8.0393
    3.195    8.0042
    3.210    8.3728
    3.225    7.9516
    3.240    7.4601
    3.255    7.7234
    3.270    8.1095
    3.285    7.8111
    3.300    8.2500
    3.315    7.8813
    3.330    7.8989
    3.345    7.6005
    3.360    7.4601
    3.375    7.4250
    3.390    7.7409
    3.405    8.2324
    3.420    7.9516
    3.435    7.6883
    3.450    8.1271
    3.465    8.1271
    3.480    7.8813
    3.495    7.5829
    3.510    7.6883
    3.525    8.1095
    3.540    7.7234
    3.555    7.6707
    3.570    7.5829
    3.585    7.5829
    3.600    8.0042
    3.615    8.1446
    3.630    7.6707
    3.645    7.6532
    3.660    7.9867
    3.675    7.7234
    3.690    7.7409
    3.705    7.8813
    3.720    7.7409
    3.735    7.6005
    3.750    7.9340
    3.765    8.0744
    3.780    7.5303
    3.795    7.2845
    3.810    7.8287
    3.825    7.4074
    3.840    7.5829
    3.855    7.3899
    3.870    7.7234
    3.885    7.4601
    3.900    7.5303
    3.915    7.9516
    3.930    8.0042
    3.945    7.4074
    3.960    7.9516
    3.975    8.4781
    3.990    7.7409
    4.005    7.3723
    4.020    7.5303
    4.035    7.7234
    4.050    7.2670
    4.065    7.6883
    4.080    7.6707
    4.095    8.0744
    4.110    8.0744
    4.125    7.5654
    4.140    7.7936
    4.155    7.9340
    4.170    7.6883
    4.185    7.4776
    4.200    7.8111
    4.215    8.1973
    4.230    7.7234
    4.245    7.8111
    4.260    7.7234
    4.275    8.0042
    4.290    7.5829
    4.305    7.6356
    4.320    7.6883
    4.335    7.8638
    4.350    8.0218
    4.365    8.0042
    4.380    7.6707
    4.395    8.0569
    4.410    7.8813
    4.425    7.4074
    4.440    7.7585
    4.455    7.9691
    4.470    7.8638
    4.485    8.0042
    4.500    8.0042
    4.515    7.6707
    4.530    7.9516
    4.545    8.2149
    4.560    8.2149
    4.575    8.0744
    4.590    7.8111
    4.605    8.4781
    4.620    8.3904
    4.635    8.3553
    4.650    8.4430
    4.665    8.1271
    4.680    8.1271
    4.695    8.3377
    4.710    8.0744
    4.725    8.0744
    4.740    8.0920
    4.755    7.9164
    4.770    8.1271
    4.785    8.3553
    4.800    8.4079
    4.815    7.7409
    4.830    8.2149
    4.845    7.8989
    4.860    8.6712
    4.875    8.7063
    4.890    8.5133
    4.905    7.9164
    4.920    8.0393
    4.935    8.7765
    4.950    8.3728
    4.965    8.3553
    4.980    8.3377
    4.995    9.0574
    5.010    8.8292
    5.025    8.5484
    5.040    8.6712
    5.055    9.7771
    5.070    9.3558
    5.085    8.8117
    5.100    8.8292
    5.115    8.8292
    5.130    9.0925
    5.145    9.6015
    5.160    9.2329
    5.175    9.4260
    5.190    9.4611
    5.205   10.4441
    5.220    9.6191
    5.235    9.9526
    5.250   10.0228
    5.265   10.1808
    5.280   10.8127
    5.295   10.6898
    5.310    9.8824
    5.325    9.7244
    5.340   10.0404
    5.355    9.8999
    5.370   10.3212
    5.385    9.7420
    5.400   10.6547
    5.415   10.5845
    5.430   10.6372
    5.445   10.3212
    5.460   10.6723
    5.475   10.9531
    5.490   10.2861
    5.505   10.9356
    5.520   10.6898
    5.535   10.1106
    5.550   10.0579
    5.565   10.4090
    5.580   10.5494
    5.595   10.4792
    5.610   10.7600
    5.625   10.4792
    5.640   10.3739
    5.655   10.6547
    5.670   10.6898
    5.685   10.4616
    5.700   10.0579
    5.715    9.8824
    5.730    9.7420
    5.745    9.5138
    5.760    9.2329
    5.775    9.4260
    5.790    9.5138
    5.805    9.3207
    5.820    9.5664
    5.835    9.0398
    5.850    9.2329
    5.865    9.4611
    5.880    9.6893
    5.895    8.9345
    5.910    8.8292
    5.925    8.8468
    5.940    8.9872
    5.955    8.8994
    5.970    8.7063
    5.985    8.5133
    6.000    8.7765
    6.015    8.6712
    6.030    8.3728
    6.045    8.0744
    6.060    8.0569
    6.075    8.0569
    6.090    7.9867
    6.105    7.8638
    6.120    7.7585
    6.135    7.7058
    6.150    7.7058
    6.165    8.0744
    6.180    8.0218
    6.195    7.7409
    6.210    7.4776
    6.225    7.7058
    6.240    7.4776
    6.255    7.8989
    6.270    8.2500
    6.285    8.1271
    6.300    7.3723
    6.315    7.3899
    6.330    8.0218
    6.345    7.4952
    6.360    7.5654
    6.375    7.8111
    6.390    7.6707
    6.405    7.3196
    6.420    7.7409
    6.435    7.4425
    6.450    7.9164
    6.465    8.0218
    6.480    7.6883
    6.495    7.1441
    6.510    7.1617
    6.525    7.0388
    6.540    6.9510
    6.555    7.1617
    6.570    7.7234
    6.585    6.6175
    6.600    6.7930
    6.615    7.0739
    6.630    6.7053
    6.645    6.9510
    6.660    7.0915
    6.675    7.0563
    6.690    6.8984
    6.705    7.4074
    6.720    7.1090
    6.735    6.9861
    6.750    7.0739
    6.765    7.3723
    6.780    6.8106
    6.795    6.9510
    6.810    6.6526
    6.825    6.6175
    6.840    7.1441
    6.855    6.9861
    6.870    7.4776
    6.885    7.2494
    6.900    7.2319
    6.915    6.8457
    6.930    6.7053
    6.945    6.5824
    6.960    6.7404
    6.975    6.6877
    6.990    6.9686
    7.005    6.4946
    7.020    6.8808
    7.035    6.5473
    7.050    5.8978
    7.065    6.1962
    7.080    6.9861
    7.095    6.1787
    7.110    6.5298
    7.125    6.4069
    7.140    6.6351
    7.155    6.1787
    7.170    6.1260
    7.185    6.3367
    7.200    6.4771
    7.215    6.0383
    7.230    6.5122
    7.245    6.1962
    7.260    6.0909
    7.275    5.9329
    7.290    6.1260
    7.305    6.2489
    7.320    6.5122
    7.335    6.0734
    7.350    6.1436
    7.365    5.8803
    7.380    6.3191
    7.395    6.1260
    7.410    5.6697
    7.425    6.1611
    7.440    5.9154
    7.455    5.4766
    7.470    5.9681
    7.485    5.5994
    7.500    6.0558
    7.515    6.1787
    7.530    5.7399
    7.545    5.8276
    7.560    5.7048
    7.575    6.0734
    7.590    6.1611
    7.605    6.4595
    7.620    6.0383
    7.635    5.5292
    7.650    5.3010
    7.665    5.3888
    7.680    5.6521
    7.695    5.4239
    7.710    5.7925
    7.725    5.3537
    7.740    5.3361
    7.755    5.8978
    7.770    5.8627
    7.785    5.7750
    7.800    5.8978
    7.815    5.7925
    7.830    5.5468
    7.845    5.8276
    7.860    5.6872
    7.875    5.6872
    7.890    5.5819
    7.905    5.2133
    7.920    6.0383
    7.935    5.6345
    7.950    5.7048
    7.965    6.1436
    7.980    5.3537
    7.995    5.7399
    8.010    5.5994
    8.025    5.5468
    8.040    5.5819
    8.055    5.3361
    8.070    5.3888
    8.085    6.0558
    8.100    5.6521
    8.115    5.8276
    8.130    5.8978
    8.145    5.7750
    8.160    6.1787
    8.175    6.1436
    8.190    5.7223
    8.205    5.8101
    8.220    5.3712
    8.235    5.1431
    8.250    5.3186
    8.265    5.3361
    8.280    5.1957
    8.295    5.4766
    8.310    5.3712
    8.325    5.2835
    8.340    5.1255
    8.355    5.1080
    8.370    4.8271
    8.385    5.1080
    8.400    5.3361
    8.415    5.1080
    8.430    4.8447
    8.445    5.3888
    8.460    4.8798
    8.475    4.8095
    8.490    5.0553
    8.505    5.3186
    8.520    5.2835
    8.535    5.4415
    8.550    5.7223
    8.565    5.2484
    8.580    4.6340
    8.595    4.8271
    8.610    5.2835
    8.625    5.0026
    8.640    5.2308
    8.655    4.9500
    8.670    5.2484
    8.685    5.6521
    8.700    5.1255
    8.715    4.9324
    8.730    5.1431
    8.745    4.5463
    8.760    5.2484
    8.775    4.8095
    8.790    5.1431
    8.805    5.1782
    8.820    4.8447
    8.835    5.1080
    8.850    5.0728
    8.865    5.5292
    8.880    5.4590
    8.895    4.8622
    8.910    4.8622
    8.925    4.8447
    8.940    5.0904
    8.955    5.2835
    8.970    4.7920
    8.985    4.7920
    9.000    4.7920
    9.015    5.4239
    9.030    5.4239
    9.045    5.0904
    9.060    4.8622
    9.075    4.6516
    9.090    4.6516
    9.105    4.5287
    9.120    4.6340
    9.135    4.8973
    9.150    5.2308
    9.165    4.9851
    9.180    4.3707
    9.195    4.6691
    9.210    5.0377
    9.225    4.7920
    9.240    4.9149
    9.255    4.7569
    9.270    4.8798
    9.285    4.6516
    9.300    4.6165
    9.315    5.1957
    9.330    5.1080
    9.345    4.9324
    9.360    4.6165
    9.375    5.2659
    9.390    4.5814
    9.405    4.6165
    9.420    4.5111
    9.435    4.6691
    9.450    5.1255
    9.465    4.8447
    9.480    5.1255
    9.495    4.7920
    9.510    5.0202
    9.525    4.6691
    9.540    4.8447
    9.555    5.1431
    9.570    5.1255
    9.585    5.4941
    9.600    5.3361
    9.615    4.5463
    9.630    5.0202
    9.645    4.7569
    9.660    4.9675
    9.675    5.0377
    9.690    4.7569
    9.705    4.8447
    9.720    4.8798
    9.735    4.6340
    9.750    4.9324
    9.765    4.8622
    9.780    4.7393
    9.795    4.6516
    9.810    5.0202
    9.825    5.0904
    9.840    4.8622
    9.855    4.4936
    9.870    4.8973
    9.885    5.0377
    9.900    4.8973
    9.915    4.7218
    9.930    4.9675
    9.945    5.3712
    9.960    5.0728
    9.975    4.4585
    9.990    4.8622
   10.005    5.0728
   10.020    5.1782
   10.035    4.8798
   10.050    4.7569
   10.065    5.5292
   10.080    5.0553
   10.095    5.1255
   10.110    4.6867
   10.125    4.9675
   10.140    5.3010
   10.155    4.7569
   10.170    5.0728
   10.185    5.1080
   10.200    5.1080
   10.215    5.1957
   10.230    5.0202
   10.245    5.0553
   10.260    5.1080
   10.275    5.1606
   10.290    5.2308
   10.305    4.9851
   10.320    5.2308
   10.335    5.4064
   10.350    5.4941
   10.365    5.1782
   10.380    5.2133
   10.395    5.0728
   10.410    5.2133
   10.425    5.4941
   10.440    4.9500
   10.455    5.4941
   10.470    5.4941
   10.485    5.4766
   10.500    5.1606
   10.515    5.0904
   10.530    5.5292
   10.545    5.2133
   10.560    5.4239
   10.575    5.5117
   10.590    5.3010
   10.605    5.7399
   10.620    5.9505
   10.635    6.5824
   10.650    5.8276
   10.665    6.0032
   10.680    7.0915
   10.695    7.3899
   10.710    6.7053
   10.725    6.2665
   10.740    5.2133
   10.755    5.2659
   10.770    5.3186
   10.785    5.0377
   10.800    5.3186
   10.815    5.4766
   10.830    5.1431
   10.845    5.1080
   10.860    5.5994
   10.875    5.2659
   10.890    4.7920
   10.905    5.1080
   10.920    5.0553
   10.935    5.0202
   10.950    5.5994
   10.965    5.2484
   10.980    5.6697
   10.995    5.4064
   11.010    5.4064
   11.025    4.9851
   11.040    5.2133
   11.055    5.0728
   11.070    4.9324
   11.085    5.0728
   11.100    5.6697
   11.115    5.6345
   11.130    5.3010
   11.145    5.2835
   11.160    5.2133
   11.175    4.9324
   11.190    4.9851
   11.205    4.8973
   11.220    5.4590
   11.235    5.4064
   11.250    4.8447
   11.265    5.0202
   11.280    5.4941
   11.295    5.1782
   11.310    5.1782
   11.325    4.6691
   11.340    4.8798
   11.355    5.3010
   11.370    5.2484
   11.385    5.0728
   11.400    5.2484
   11.415    5.5643
   11.430    5.6697
   11.445    5.2308
   11.460    4.8622
   11.475    5.6521
   11.490    5.2659
   11.505    5.3888
   11.520    4.8271
   11.535    5.0904
   11.550    5.4590
   11.565    4.7569
   11.580    5.0026
   11.595    5.0553
   11.610    5.3361
   11.625    5.6345
   11.640    4.9324
   11.655    5.0202
   11.670    5.5292
   11.685    4.8271
   11.700    5.4766
   11.715    5.7399
   11.730    4.6691
   11.745    5.4064
   11.760    5.0553
   11.775    4.9324
   11.790    4.9851
   11.805    5.5117
   11.820    5.0202
   11.835    5.1782
   11.850    5.0553
   11.865    5.0202
   11.880    4.7569
   11.895    5.0202
   11.910    4.7393
   11.925    5.0553
   11.940    5.1782
   11.955    4.6516
   11.970    5.0904
   11.985    4.7042
   12.000    4.7218
   12.015    4.9500
   12.030    5.0026
   12.045    4.9675
   12.060    5.0026
   12.075    5.0026
   12.090    4.7218
   12.105    4.7744
   12.120    4.8095
   12.135    4.8798
   12.150    5.1957
   12.165    4.9675
   12.180    5.3537
   12.195    5.0553
   12.210    4.9324
   12.225    4.9851
   12.240    4.8973
   12.255    4.6165
   12.270    4.7042
   12.285    4.9500
   12.300    5.0202
   12.315    5.0026
   12.330    5.0904
   12.345    4.6340
   12.360    4.6867
   12.375    5.2308
   12.390    4.7920
   12.405    4.7393
   12.420    4.4585
   12.435    4.6867
   12.450    4.5638
   12.465    4.3883
   12.480    4.7042
   12.495    4.7218
   12.510    4.5111
   12.525    4.4585
   12.540    4.5638
   12.555    4.6516
   12.570    4.9675
   12.585    5.1255
   12.600    4.6340
   12.615    4.6867
   12.630    4.6516
   12.645    4.4936
   12.660    4.5463
   12.675    4.5287
   12.690    4.8271
   12.705    4.9851
   12.720    4.7744
   12.735    5.1431
   12.750    4.6165
   12.765    4.4936
   12.780    4.6867
   12.795    4.5287
   12.810    4.7218
   12.825    4.6165
   12.840    4.5111
   12.855    4.7218
   12.870    4.7393
   12.885    4.7920
   12.900    4.6516
   12.915    4.3883
   12.930    4.4936
   12.945    4.0372
   12.960    4.9324
   12.975    4.8798
   12.990    4.5111
   13.005    4.3883
   13.020    4.3181
   13.035    4.7218
   13.050    4.6516
   13.065    4.7042
   13.080    4.7744
   13.095    5.1431
   13.110    4.6516
   13.125    4.3356
   13.140    4.6867
   13.155    4.2654
   13.170    4.3356
   13.185    4.7393
   13.200    4.7920
   13.215    4.7920
   13.230    4.4936
   13.245    4.6867
   13.260    4.8095
   13.275    4.9324
   13.290    5.1957
   13.305    4.3181
   13.320    4.7218
   13.335    4.8447
   13.350    4.8622
   13.365    4.8973
   13.380    4.3532
   13.395    4.6340
   13.410    4.9675
   13.425    4.5463
   13.440    4.0899
   13.455    4.9500
   13.470    4.8622
   13.485    4.7042
   13.500    4.6340
   13.515    4.8622
   13.530    4.8271
   13.545    4.3005
   13.560    4.7218
   13.575    4.9324
   13.590    4.7042
   13.605    4.4058
   13.620    4.7042
   13.635    4.3356
   13.650    4.4234
   13.665    4.7218
   13.680    4.8095
   13.695    4.8271
   13.710    4.6516
   13.725    5.3010
   13.740    5.3537
   13.755    5.3712
   13.770    5.4590
   13.785    5.2835
   13.800    5.0377
   13.815    4.7042
   13.830    4.4058
   13.845    4.7744
   13.860    4.4409
   13.875    4.8095
   13.890    4.7744
   13.905    4.9851
   13.920    5.0377
   13.935    5.0553
   13.950    4.7218
   13.965    4.5814
   13.980    4.6165
   13.995    4.6516
   14.010    5.2133
   14.025    5.0904
   14.040    5.4766
   14.055    5.2659
   14.070    5.3537
   14.085    5.4064
   14.100    5.6345
   14.115    5.5117
   14.130    5.4941
   14.145    5.2308
   14.160    5.0202
   14.175    4.3883
   14.190    4.8973
   14.205    4.9324
   14.220    5.2308
   14.235    5.2659
   14.250    5.0026
   14.265    5.0553
   14.280    5.1255
   14.295    5.4415
   14.310    5.1431
   14.325    5.1255
   14.340    5.0728
   14.355    5.0377
   14.370    5.1080
   14.385    5.8627
   14.400    5.5643
   14.415    5.7925
   14.430    5.3537
   14.445    5.1782
   14.460    5.1957
   14.475    5.2484
   14.490    5.5117
   14.505    5.2484
   14.520    5.3712
   14.535    5.2484
   14.550    5.0026
   14.565    5.0026
   14.580    5.0728
   14.595    5.4415
   14.610    5.4415
   14.625    5.2133
   14.640    5.2308
   14.655    5.1782
   14.670    5.0904
   14.685    5.2835
   14.700    4.8095
   14.715    5.0202
   14.730    5.5117
   14.745    4.8447
   14.760    4.9851
   14.775    4.9324
   14.790    5.2659
   14.805    4.9324
   14.820    4.8271
   14.835    4.4234
   14.850    4.9675
   14.865    5.0553
   14.880    5.4064
   14.895    5.3361
   14.910    4.9851
   14.925    4.9149
   14.940    5.0026
   14.955    4.7920
   14.970    5.1080
   14.985    4.7042
   15.000    4.5989
   15.015    4.3883
   15.030    4.6165
   15.045    5.0904
   15.060    5.1431
   15.075    4.6340
   15.090    4.6340
   15.105    4.7393
   15.120    4.6165
   15.135    5.0553
   15.150    4.9675
   15.165    4.4936
   15.180    4.8973
   15.195    4.3181
   15.210    4.9324
   15.225    4.8973
   15.240    4.9500
   15.255    4.6516
   15.270    4.6340
   15.285    4.5463
   15.300    4.8798
   15.315    4.6691
   15.330    4.7744
   15.345    4.4234
   15.360    4.2127
   15.375    4.1601
   15.390    4.4234
   15.405    4.7393
   15.420    4.9324
   15.435    4.5287
   15.450    4.7393
   15.465    4.7218
   15.480    4.2478
   15.495    4.4585
   15.510    5.1957
   15.525    5.0202
   15.540    4.8447
   15.555    5.3712
   15.570    5.0377
   15.585    4.8095
   15.600    4.6165
   15.615    4.5287
   15.630    4.6516
   15.645    4.4409
   15.660    4.4936
   15.675    4.7393
   15.690    4.4760
   15.705    4.1776
   15.720    4.6340
   15.735    4.3181
   15.750    4.3532
   15.765    4.6516
   15.780    4.4058
   15.795    4.4936
   15.810    4.9675
   15.825    5.0728
   15.840    4.5111
   15.855    4.4409
   15.870    4.3181
   15.885    4.4058
   15.900    4.4585
   15.915    4.6340
   15.930    4.9324
   15.945    5.0377
   15.960    4.6867
   15.975    4.5989
   15.990    4.6691
   16.005    4.9324
   16.020    4.7042
   16.035    4.8447
   16.050    4.5287
   16.065    5.0728
   16.080    4.4760
   16.095    4.3356
   16.110    4.4234
   16.125    4.3356
   16.140    4.6340
   16.155    4.4409
   16.170    4.5111
   16.185    4.4409
   16.200    4.5989
   16.215    4.2478
   16.230    4.3883
   16.245    4.9500
   16.260    4.6165
   16.275    4.5287
   16.290    4.4760
   16.305    4.5638
   16.320    4.5287
   16.335    4.9500
   16.350    5.0904
   16.365    4.8973
   16.380    4.8798
   16.395    4.7920
   16.410    5.3361
   16.425    5.0904
   16.440    5.2133
   16.455    4.9149
   16.470    5.1080
   16.485    5.1606
   16.500    5.3361
   16.515    5.0202
   16.530    4.8095
   16.545    4.8271
   16.560    4.5287
   16.575    4.2830
   16.590    4.0723
   16.605    4.6340
   16.620    4.4936
   16.635    4.5287
   16.650    4.5638
   16.665    4.5463
   16.680    4.4760
   16.695    4.5463
   16.710    4.4936
   16.725    4.5814
   16.740    4.8271
   16.755    5.2133
   16.770    4.6165
   16.785    4.6165
   16.800    4.4936
   16.815    4.5463
   16.830    4.7744
   16.845    4.4409
   16.860    4.7744
   16.875    4.6691
   16.890    5.0026
   16.905    5.1431
   16.920    4.6691
   16.935    4.3356
   16.950    4.4936
   16.965    4.4585
   16.980    4.8447
   16.995    4.6691
   17.010    4.7744
   17.025    4.5111
   17.040    4.2654
   17.055    4.4234
   17.070    4.5111
   17.085    4.5287
   17.100    4.5989
   17.115    4.9500
   17.130    4.6340
   17.145    4.3532
   17.160    4.5287
   17.175    4.7042
   17.190    4.8271
   17.205    4.6165
   17.220    4.5111
   17.235    4.6867
   17.250    4.5463
   17.265    4.6340
   17.280    4.4585
   17.295    4.4760
   17.310    4.8798
   17.325    4.5463
   17.340    4.4234
   17.355    4.4234
   17.370    4.8271
   17.385    4.9500
   17.400    4.7218
   17.415    4.9149
   17.430    4.3356
   17.445    3.9143
   17.460    4.7042
   17.475    4.6165
   17.490    4.6516
   17.505    4.8622
   17.520    5.0904
   17.535    4.4936
   17.550    4.8271
   17.565    4.8622
   17.580    4.5814
   17.595    4.7218
   17.610    4.3707
   17.625    4.5814
   17.640    4.6691
   17.655    4.6867
   17.670    4.3883
   17.685    4.2478
   17.700    4.5638
   17.715    4.3707
   17.730    4.6340
   17.745    4.4585
   17.760    4.8622
   17.775    4.8271
   17.790    5.3361
   17.805    5.2835
   17.820    5.0026
   17.835    5.5468
   17.850    5.3361
   17.865    5.5819
   17.880    5.7574
   17.895    4.9500
   17.910    5.0904
   17.925    4.5989
   17.940    4.8622
   17.955    4.8973
   17.970    4.7744
   17.985    4.6165
   18.000    4.3181
   18.015    4.1776
   18.030    4.3883
   18.045    4.3005
   18.060    4.6165
   18.075    5.0553
   18.090    4.6340
   18.105    4.1250
   18.120    4.3883
   18.135    4.6340
   18.150    3.9319
   18.165    4.5814
   18.180    4.6867
   18.195    4.7569
   18.210    4.7393
   18.225    4.6691
   18.240    4.3883
   18.255    4.3883
   18.270    4.8447
   18.285    4.3181
   18.300    4.7569
   18.315    4.1776
   18.330    4.5287
   18.345    4.5989
   18.360    4.4234
   18.375    4.3532
   18.390    4.5989
   18.405    4.7744
   18.420    4.5638
   18.435    4.4936
   18.450    4.7920
   18.465    5.0026
   18.480    5.5292
   18.495    6.7228
   18.510    6.4595
   18.525    6.3191
   18.540    6.6526
   18.555    6.0909
   18.570    5.2659
   18.585    5.0728
   18.600    4.8447
   18.615    4.7744
   18.630    4.7042
   18.645    4.3005
   18.660    4.2478
   18.675    4.5638
   18.690    4.3532
   18.705    4.6165
   18.720    4.3181
   18.735    3.8266
   18.750    4.4409
   18.765    4.9500
   18.780    4.5814
   18.795    4.4936
   18.810    4.2654
   18.825    4.3005
   18.840    4.3707
   18.855    4.4936
   18.870    4.2654
   18.885    4.0372
   18.900    5.0202
   18.915    5.0728
   18.930    4.7569
   18.945    4.6516
   18.960    4.3883
   18.975    4.5287
   18.990    5.1080
   19.005    4.6516
   19.020    4.5111
   19.035    4.8095
   19.050    4.7218
   19.065    4.6516
   19.080    4.2127
   19.095    4.1952
   19.110    4.4234
   19.125    4.3707
   19.140    4.4234
   19.155    4.4409
   19.170    4.2478
   19.185    4.3181
   19.200    4.3532
   19.215    4.3181
   19.230    4.6340
   19.245    4.7042
   19.260    4.2127
   19.275    4.1952
   19.290    4.4058
   19.305    4.5463
   19.320    4.5989
   19.335    4.5111
   19.350    4.3883
   19.365    4.2127
   19.380    4.7569
   19.395    4.6340
   19.410    4.6165
   19.425    4.3883
   19.440    4.3532
   19.455    4.3532
   19.470    4.6516
   19.485    4.3883
   19.500    4.2830
   19.515    4.3181
   19.530    4.2830
   19.545    4.1425
   19.560    4.5989
   19.575    4.4058
   19.590    4.3356
   19.605    4.1074
   19.620    4.3181
   19.635    4.1776
   19.650    4.3883
   19.665    4.3356
   19.680    3.9494
   19.695    4.2127
   19.710    4.3883
   19.725    4.2478
   19.740    4.2303
   19.755    4.0372
   19.770    4.3532
   19.785    4.3005
   19.800    3.9494
   19.815    4.2303
   19.830    4.3883
   19.845    4.5111
   19.860    4.4936
   19.875    4.3181
   19.890    4.3883
   19.905    4.1074
   19.920    3.7915
   19.935    3.7388
   19.950    3.9670
   19.965    4.3005
   19.980    4.0021
   19.995    4.0021
   20.010    3.9143
   20.025    4.1250
   20.040    4.5989
   20.055    4.1250
   20.070    4.1425
   20.085    3.8968
   20.100    4.3005
   20.115    4.3005
   20.130    4.0723
   20.145    4.3181
   20.160    4.2478
   20.175    4.0197
   20.190    3.9319
   20.205    4.5287
   20.220    4.4760
   20.235    4.3181
   20.250    3.9143
   20.265    4.2127
   20.280    4.0372
   20.295    4.2654
   20.310    3.9846
   20.325    3.6862
   20.340    3.4404
   20.355    3.8090
   20.370    3.9494
   20.385    4.0548
   20.400    4.4058
   20.415    4.4585
   20.430    4.2127
   20.445    4.3532
   20.460    4.2654
   20.475    4.0723
   20.490    4.0372
   20.505    3.8441
   20.520    4.0197
   20.535    4.1250
   20.550    4.2127
   20.565    3.9846
   20.580    4.1952
   20.595    4.4936
   20.610    4.3707
   20.625    3.9319
   20.640    4.1952
   20.655    4.3707
   20.670    4.0723
   20.685    3.9670
   20.700    4.2478
   20.715    4.1074
   20.730    3.9670
   20.745    3.7213
   20.760    3.8968
   20.775    4.2478
   20.790    4.3532
   20.805    4.1074
   20.820    4.0548
   20.835    3.9846
   20.850    3.8792
   20.865    4.1952
   20.880    4.0197
   20.895    3.8617
   20.910    3.9846
   20.925    4.0197
   20.940    4.0548
   20.955    3.8968
   20.970    4.2303
   20.985    3.8792
   21.000    3.6510
   21.015    4.0723
   21.030    3.9494
   21.045    4.0899
   21.060    3.8441
   21.075    4.1776
   21.090    3.8266
   21.105    4.2127
   21.120    3.7388
   21.135    4.1074
   21.150    3.9846
   21.165    3.7915
   21.180    4.0021
   21.195    3.9319
   21.210    3.5984
   21.225    3.9494
   21.240    4.0548
   21.255    4.0548
   21.270    4.1425
   21.285    4.3005
   21.300    4.0899
   21.315    4.2127
   21.330    4.3707
   21.345    4.2654
   21.360    3.9670
   21.375    3.6510
   21.390    4.0548
   21.405    3.7564
   21.420    3.7213
   21.435    3.8266
   21.450    3.5984
   21.465    3.9143
   21.480    3.9846
   21.495    4.0548
   21.510    4.0899
   21.525    4.0021
   21.540    4.1952
   21.555    4.2303
   21.570    4.2654
   21.585    4.3883
   21.600    4.0899
   21.615    4.1250
   21.630    3.8441
   21.645    4.1776
   21.660    4.2654
   21.675    4.0197
   21.690    4.0021
   21.705    3.9670
   21.720    4.3707
   21.735    4.4936
   21.750    4.0723
   21.765    3.7388
   21.780    3.8792
   21.795    3.8441
   21.810    4.2830
   21.825    4.1776
   21.840    3.8090
   21.855    3.6686
   21.870    3.8266
   21.885    4.4058
   21.900    3.8441
   21.915    4.3005
   21.930    4.1952
   21.945    3.9319
   21.960    3.7213
   21.975    3.9494
   21.990    4.0899
   22.005    3.8441
   22.020    3.8090
   22.035    3.7213
   22.050    4.0548
   22.065    3.9319
   22.080    4.0372
   22.095    4.1074
   22.110    3.9319
   22.125    3.5984
   22.140    4.0197
   22.155    4.0197
   22.170    4.1250
   22.185    3.9319
   22.200    3.8090
   22.215    4.0899
   22.230    4.0723
   22.245    3.9670
   22.260    3.5457
   22.275    3.4404
   22.290    4.0197
   22.305    4.1776
   22.320    3.8266
   22.335    3.7915
   22.350    3.7213
   22.365    3.6510
   22.380    3.8266
   22.395    4.1074
   22.410    4.2303
   22.425    3.7739
   22.440    3.3351
   22.455    3.9494
   22.470    4.0197
   22.485    3.8792
   22.500    3.7037
   22.515    3.6159
   22.530    4.0899
   22.545    3.5984
   22.560    3.6335
   22.575    4.0021
   22.590    3.8441
   22.605    3.8266
   22.620    3.7213
   22.635    3.6686
   22.650    3.7213
   22.665    3.4755
   22.680    3.6159
   22.695    3.3877
   22.710    3.6862
   22.725    3.3526
   22.740    3.5633
   22.755    3.8266
   22.770    3.7739
   22.785    3.8441
   22.800    3.7915
   22.815    3.9319
   22.830    3.7915
   22.845    3.5808
   22.860    3.5106
   22.875    3.6335
   22.890    3.8266
   22.905    3.7388
   22.920    3.8968
   22.935    3.7037
   22.950    3.6159
   22.965    3.6510
   22.980    3.5282
   22.995    3.8617
   23.010    3.4931
   23.025    3.5457
   23.040    3.7564
   23.055    3.4229
   23.070    3.7564
   23.085    3.9143
   23.100    3.9846
   23.115    3.8266
   23.130    3.9670
   23.145    3.7564
   23.160    3.5633
   23.175    3.4580
   23.190    3.4229
   23.205    3.6862
   23.220    3.5633
   23.235    3.5282
   23.250    3.8792
   23.265    3.6686
   23.280    3.5106
   23.295    3.8792
   23.310    3.6510
   23.325    3.7213
   23.340    4.1425
   23.355    4.1425
   23.370    3.8266
   23.385    3.8266
   23.400    3.6510
   23.415    3.6159
   23.430    3.6159
   23.445    3.6159
   23.460    3.3877
   23.475    3.5282
   23.490    3.5282
   23.505    3.6686
   23.520    3.5808
   23.535    3.5282
   23.550    3.7915
   23.565    3.6862
   23.580    3.8792
   23.595    3.2122
   23.610    3.0191
   23.625    3.4931
   23.640    3.8441
   23.655    3.8617
   23.670    3.6159
   23.685    3.7739
   23.700    3.9319
   23.715    3.9494
   23.730    3.8617
   23.745    4.2830
   23.760    5.1957
   23.775    5.3712
   23.790    6.1436
   23.805    5.9856
   23.820    5.7574
   23.835    5.7223
   23.850    4.9149
   23.865    4.3356
   23.880    3.7915
   23.895    4.0548
   23.910    3.7213
   23.925    3.5808
   23.940    3.4580
   23.955    3.4404
   23.970    3.3877
   23.985    3.1947
   24.000    3.3526
   24.015    3.4580
   24.030    3.4755
   24.045    3.7213
   24.060    3.3526
   24.075    3.5457
   24.090    3.7915
   24.105    3.9670
   24.120    3.2824
   24.135    3.6159
   24.150    3.4053
   24.165    3.8968
   24.180    3.5984
   24.195    3.8090
   24.210    3.6862
   24.225    3.4755
   24.240    3.5633
   24.255    3.6335
   24.270    3.5633
   24.285    3.5984
   24.300    3.3877
   24.315    3.3351
   24.330    3.3526
   24.345    3.5106
   24.360    3.6335
   24.375    3.8792
   24.390    3.6510
   24.405    3.3175
   24.420    3.3351
   24.435    3.4580
   24.450    3.4931
   24.465    3.1420
   24.480    3.4053
   24.495    3.4229
   24.510    3.4931
   24.525    3.5282
   24.540    3.2298
   24.555    3.4053
   24.570    3.3351
   24.585    3.6510
   24.600    3.3000
   24.615    3.2649
   24.630    3.2298
   24.645    3.5106
   24.660    3.4755
   24.675    3.3526
   24.690    3.2824
   24.705    3.1947
   24.720    3.4404
   24.735    3.6510
   24.750    3.6686
   24.765    3.4755
   24.780    3.1420
   24.795    3.3702
   24.810    3.1771
   24.825    3.3351
   24.840    3.4755
   24.855    3.6686
   24.870    3.5282
   24.885    3.2473
   24.900    3.4053
   24.915    3.5106
   24.930    3.4404
   24.945    3.3175
   24.960    3.3702
   24.975    3.0718
   24.990    3.5106
   25.005    3.4931
   25.020    3.4755
   25.035    3.5106
   25.050    3.6159
   25.065    3.4229
   25.080    3.8090
   25.095    3.2649
   25.110    3.9494
   25.125    4.0021
   25.140    4.0197
   25.155    4.9500
   25.170    5.4766
   25.185    6.4420
   25.200    7.5303
   25.215    7.5829
   25.230    6.9159
   25.245    6.7404
   25.260    5.6872
   25.275    4.5463
   25.290    4.3532
   25.305    3.9494
   25.320    3.6862
   25.335    3.8617
   25.350    3.5633
   25.365    3.3351
   25.380    3.0718
   25.395    3.4229
   25.410    3.3702
   25.425    3.2122
   25.440    3.3877
   25.455    3.4931
   25.470    3.3175
   25.485    3.1771
   25.500    3.3702
   25.515    3.4229
   25.530    3.3351
   25.545    3.5106
   25.560    3.7564
   25.575    3.6335
   25.590    3.2649
   25.605    3.3702
   25.620    3.1947
   25.635    3.4229
   25.650    3.8090
   25.665    3.6335
   25.680    3.5633
   25.695    3.0893
   25.710    3.5457
   25.725    3.3526
   25.740    3.4931
   25.755    3.7564
   25.770    3.8792
   25.785    3.8617
   25.800    3.4053
   25.815    3.1420
   25.830    3.4053
   25.845    3.2473
   25.860    3.3877
   25.875    3.1245
   25.890    3.2122
   25.905    3.2649
   25.920    3.3702
   25.935    3.2473
   25.950    3.0542
   25.965    3.0718
   25.980    3.2473
   25.995    3.0718
   26.010    3.5457
   26.025    3.2298
   26.040    3.3877
   26.055    3.2122
   26.070    2.8260
   26.085    3.2824
   26.100    2.7383
   26.115    2.9314
   26.130    2.8612
   26.145    3.2824
   26.160    3.2298
   26.175    3.3702
   26.190    2.9665
   26.205    3.6335
   26.220    3.0718
   26.235    3.0016
   26.250    2.9314
   26.265    3.3175
   26.280    3.3000
   26.295    3.4229
   26.310    3.2122
   26.325    3.3000
   26.340    3.3000
   26.355    3.2122
   26.370    3.2298
   26.385    3.0542
   26.400    3.7739
   26.415    3.4053
   26.430    3.1420
   26.445    3.6335
   26.460    3.6862
   26.475    3.6335
   26.490    3.8090
   26.505    3.5808
   26.520    3.5808
   26.535    3.2298
   26.550    3.2824
   26.565    3.4053
   26.580    3.5282
   26.595    3.4053
   26.610    3.5106
   26.625    3.5457
   26.640    3.3175
   26.655    3.3526
   26.670    3.8792
   26.685    3.7564
   26.700    3.3702
   26.715    3.7915
   26.730    4.0723
   26.745    4.5638
   26.760    5.5292
   26.775    6.4244
   26.790    6.6702
   26.805    7.1792
   26.820    7.0915
   26.835    6.8984
   26.850    7.4074
   26.865    6.8808
   26.880    6.2313
   26.895    6.1611
   26.910    5.4941
   26.925    4.1952
   26.940    3.7213
   26.955    3.8090
   26.970    3.6510
   26.985    3.5106
   27.000    3.4229
   27.015    3.3351
   27.030    3.6159
   27.045    3.4053
   27.060    3.1245
   27.075    3.0542
   27.090    3.0191
   27.105    3.0893
   27.120    3.1596
   27.135    3.2298
   27.150    3.4755
   27.165    3.7739
   27.180    4.7569
   27.195    5.3186
   27.210    6.3718
   27.225    7.2143
   27.240    7.1792
   27.255    5.8452
   27.270    5.1782
   27.285    4.4936
   27.300    3.7564
   27.315    3.5457
   27.330    3.5633
   27.345    3.1947
   27.360    2.9665
   27.375    3.0367
   27.390    3.3526
   27.405    2.8963
   27.420    3.1069
   27.435    3.1069
   27.450    2.9138
   27.465    3.4229
   27.480    3.0016
   27.495    2.9314
   27.510    3.0367
   27.525    2.8085
   27.540    2.8963
   27.555    3.0016
   27.570    2.9314
   27.585    3.2122
   27.600    3.0367
   27.615    3.1245
   27.630    2.8963
   27.645    3.2122
   27.660    3.1596
   27.675    2.9314
   27.690    3.2473
   27.705    3.4931
   27.720    3.3702
   27.735    3.9670
   27.750    4.2830
   27.765    4.9675
   27.780    4.5989
   27.795    4.3181
   27.810    3.5984
   27.825    3.1245
   27.840    3.2824
   27.855    3.3175
   27.870    2.7734
   27.885    2.8260
   27.900    3.2298
   27.915    3.3175
   27.930    3.0893
   27.945    3.3000
   27.960    3.2649
   27.975    3.0718
   27.990    2.8787
   28.005    3.1420
   28.020    3.1771
   28.035    2.7909
   28.050    3.0016
   28.065    3.3702
   28.080    2.7909
   28.095    3.0718
   28.110    2.8787
   28.125    3.0016
   28.140    3.0718
   28.155    2.9840
   28.170    2.9665
   28.185    2.9138
   28.200    2.8963
   28.215    2.8787
   28.230    2.7909
   28.245    3.1596
   28.260    3.2473
   28.275    2.8436
   28.290    2.6505
   28.305    2.7734
   28.320    3.0016
   28.335    3.0718
   28.350    2.8963
   28.365    2.8436
   28.380    2.8436
   28.395    2.2995
   28.410    2.4223
   28.425    2.7383
   28.440    2.6856
   28.455    2.7734
   28.470    2.6681
   28.485    2.8436
   28.500    2.8260
   28.515    3.0718
   28.530    2.8612
   28.545    3.0016
   28.560    2.7032
   28.575    2.7558
   28.590    2.8963
   28.605    2.8612
   28.620    3.1069
   28.635    3.2824
   28.650    3.1596
   28.665    2.8963
   28.680    2.9840
   28.695    3.4053
   28.710    3.2649
   28.725    3.4053
   28.740    2.9314
   28.755    2.7734
   28.770    2.8612
   28.785    2.7383
   28.800    2.7032
   28.815    2.5452
   28.830    3.0718
   28.845    3.2298
   28.860    2.8612
   28.875    3.2122
   28.890    3.0718
   28.905    3.1771
   28.920    3.3351
   28.935    3.3000
   28.950    3.1771
   28.965    3.4229
   28.980    3.8792
   28.995    3.4580
   29.010    3.0191
   29.025    3.2298
   29.040    3.0367
   29.055    3.0367
   29.070    2.8963
   29.085    3.0191
   29.100    2.8963
   29.115    3.0016
   29.130    2.7734
   29.145    3.3526
   29.160    3.0542
   29.175    2.8787
   29.190    3.0016
   29.205    2.8260
   29.220    2.7734
   29.235    2.5276
   29.250    2.7032
   29.265    2.4750
   29.280    2.7032
   29.295    2.9665
   29.310    2.6330
   29.325    2.4925
   29.340    2.3697
   29.355    2.5452
   29.370    2.5452
   29.385    2.7207
   29.400    2.6505
   29.415    2.9840
   29.430    2.9138
   29.445    2.3872
   29.460    2.3872
   29.475    2.4048
   29.490    2.6681
   29.505    2.5101
   29.520    2.3697
   29.535    2.4925
   29.550    2.6154
   29.565    2.4574
   29.580    2.7207
   29.595    2.7383
   29.610    2.5979
   29.625    2.2468
   29.640    2.4750
   29.655    2.3697
   29.670    2.7383
   29.685    2.5803
   29.700    2.7207
   29.715    2.5979
   29.730    2.5803
   29.745    2.6154
   29.760    2.7032
   29.775    2.5276
   29.790    2.6505
   29.805    2.6330
   29.820    2.5101
   29.835    2.5101
   29.850    2.5979
   29.865    2.2819
   29.880    2.3697
   29.895    2.2819
   29.910    2.7032
   29.925    2.6330
   29.940    2.5101
   29.955    2.5979
   29.970    2.6505
   29.985    2.7558
   30.000    2.3346
   30.015    2.5101
   30.030    2.4048
   30.045    2.1590
   30.060    2.7032
   30.075    2.4574
   30.090    2.4925
   30.105    2.7383
   30.120    2.4750
   30.135    2.5101
   30.150    2.6330
   30.165    2.4925
   30.180    2.4574
   30.195    2.5803
   30.210    2.4048
   30.225    2.2995
   30.240    2.7032
   30.255    2.6330
   30.270    2.3697
   30.285    2.5628
   30.300    2.3697
   30.315    2.5276
   30.330    2.5979
   30.345    2.2995
   30.360    2.5276
   30.375    2.2468
   30.390    2.3697
   30.405    2.2468
   30.420    2.2292
   30.435    2.5276
   30.450    2.3521
   30.465    2.5101
   30.480    2.4223
   30.495    2.2468
   30.510    2.7383
   30.525    2.7032
   30.540    2.7734
   30.555    2.7558
   30.570    2.5276
   30.585    2.7734
   30.600    2.9314
   30.615    2.5101
   30.630    2.4223
   30.645    2.5101
   30.660    2.5101
   30.675    2.6330
   30.690    2.2819
   30.705    2.5276
   30.720    2.6154
   30.735    2.3872
   30.750    2.0362
   30.765    2.3346
   30.780    2.2468
   30.795    2.1941
   30.810    2.3521
   30.825    2.1415
   30.840    1.9835
   30.855    2.2819
   30.870    2.2643
   30.885    2.3521
   30.900    2.2995
   30.915    2.5628
   30.930    2.0888
   30.945    2.2643
   30.960    2.3697
   30.975    2.1415
   30.990    2.2117
   31.005    2.5276
   31.020    2.3521
   31.035    2.4925
   31.050    2.4574
   31.065    2.3170
   31.080    2.1941
   31.095    2.4574
   31.110    2.4925
   31.125    2.1590
   31.140    1.8606
   31.155    2.0186
   31.170    2.1766
   31.185    2.3170
   31.200    2.1590
   31.215    2.6856
   31.230    2.4750
   31.245    2.0888
   31.260    2.1590
   31.275    2.4223
   31.290    2.3872
   31.305    2.3521
   31.320    2.1941
   31.335    2.4750
   31.350    2.4750
   31.365    2.4048
   31.380    2.2819
   31.395    2.1415
   31.410    2.4750
   31.425    2.5803
   31.440    2.4399
   31.455    2.2995
   31.470    2.4925
   31.485    2.2819
   31.500    2.1941
   31.515    1.9308
   31.530    2.1941
   31.545    1.9133
   31.560    1.9308
   31.575    2.2117
   31.590    2.4223
   31.605    2.2468
   31.620    2.2117
   31.635    2.1064
   31.650    2.4399
   31.665    2.3697
   31.680    2.1766
   31.695    2.2117
   31.710    2.2292
   31.725    2.5979
   31.740    2.4223
   31.755    2.3697
   31.770    2.2292
   31.785    2.4925
   31.800    2.3346
   31.815    2.2819
   31.830    1.9308
   31.845    2.0537
   31.860    2.1239
   31.875    2.1415
   31.890    2.1590
   31.905    2.1590
   31.920    2.1239
   31.935    2.1941
   31.950    2.0713
   31.965    2.2995
   31.980    2.2117
   31.995    2.2643
   32.010    2.3697
   32.025    2.1415
   32.040    2.5803
   32.055    2.7734
   32.070    2.7558
   32.085    2.8260
   32.100    2.5628
   32.115    2.5276
   32.130    2.5803
   32.145    2.3872
   32.160    2.3346
   32.175    2.4750
   32.190    2.1941
   32.205    2.2468
   32.220    2.2292
   32.235    2.5276
   32.250    2.5628
   32.265    2.1590
   32.280    2.0888
   32.295    2.2117
   32.310    1.9659
   32.325    2.0888
   32.340    2.2292
   32.355    2.1415
   32.370    2.0888
   32.385    2.0888
   32.400    2.2468
   32.415    2.2292
   32.430    1.9308
   32.445    2.0011
   32.460    2.4048
   32.475    2.5803
   32.490    2.0362
   32.505    2.1415
   32.520    2.4574
   32.535    2.4925
   32.550    2.1064
   32.565    2.0537
   32.580    2.4925
   32.595    2.4574
   32.610    2.6154
   32.625    1.8080
   32.640    1.8957
   32.655    2.0888
   32.670    2.2117
   32.685    2.2995
   32.700    2.1239
   32.715    2.0186
   32.730    2.0713
   32.745    2.3170
   32.760    2.0713
   32.775    2.0362
   32.790    2.0888
   32.805    2.0713
   32.820    1.9835
   32.835    1.9659
   32.850    1.9308
   32.865    1.9133
   32.880    2.1239
   32.895    1.8782
   32.910    2.2819
   32.925    2.0362
   32.940    1.9659
   32.955    2.1239
   32.970    2.3170
   32.985    2.0537
   33.000    1.7027
   33.015    1.8431
   33.030    1.9835
   33.045    1.9308
   33.060    2.2117
   33.075    1.8782
   33.090    1.8255
   33.105    2.0888
   33.120    1.9835
   33.135    1.9133
   33.150    1.9133
   33.165    1.8431
   33.180    2.1064
   33.195    2.1590
   33.210    2.1415
   33.225    1.7729
   33.240    1.8782
   33.255    1.8782
   33.270    2.2292
   33.285    2.1239
   33.300    2.1415
   33.315    2.1590
   33.330    2.0186
   33.345    2.0011
   33.360    2.1239
   33.375    2.0888
   33.390    1.9484
   33.405    1.9308
   33.420    2.1590
   33.435    2.2292
   33.450    1.9484
   33.465    1.8255
   33.480    1.9659
   33.495    2.0011
   33.510    1.8782
   33.525    1.7729
   33.540    1.9484
   33.555    2.0713
   33.570    2.0011
   33.585    1.7904
   33.600    1.9308
   33.615    1.8606
   33.630    2.0186
   33.645    1.9659
   33.660    2.2468
   33.675    1.9659
   33.690    1.7378
   33.705    1.9484
   33.720    2.2643
   33.735    2.0011
   33.750    1.9308
   33.765    2.0011
   33.780    2.0011
   33.795    2.3346
   33.810    2.3872
   33.825    2.2995
   33.840    2.0537
   33.855    1.8782
   33.870    1.8957
   33.885    2.1590
   33.900    2.1590
   33.915    2.2643
   33.930    2.1766
   33.945    1.8606
   33.960    1.8431
   33.975    2.0186
   33.990    2.0537
   34.005    2.1590
   34.020    2.2995
   34.035    1.7378
   34.050    1.8957
   34.065    2.1064
   34.080    1.9659
   34.095    1.8431
   34.110    1.9133
   34.125    2.0186
   34.140    2.0713
   34.155    1.8782
   34.170    1.5447
   34.185    1.6851
   34.200    1.8782
   34.215    1.9659
   34.230    1.7378
   34.245    1.8606
   34.260    2.0362
   34.275    2.0713
   34.290    1.8431
   34.305    1.8957
   34.320    2.1590
   34.335    2.0713
   34.350    1.9484
   34.365    1.8431
   34.380    1.8957
   34.395    1.7729
   34.410    2.0011
   34.425    1.9133
   34.440    1.7027
   34.455    1.8431
   34.470    1.8255
   34.485    1.8255
   34.500    1.9659
   34.515    2.0362
   34.530    2.0713
   34.545    1.9659
   34.560    1.9659
   34.575    1.5973
   34.590    2.0011
   34.605    2.2468
   34.620    1.9308
   34.635    1.9659
   34.650    2.0362
   34.665    2.0888
   34.680    2.1766
   34.695    2.0362
   34.710    1.8782
   34.725    1.7729
   34.740    1.5973
   34.755    1.9133
   34.770    1.8431
   34.785    1.8080
   34.800    1.9484
   34.815    1.7027
   34.830    1.5798
   34.845    1.6500
   34.860    1.9308
   34.875    2.1590
   34.890    1.9484
   34.905    2.1415
   34.920    1.8957
   34.935    1.8080
   34.950    1.9133
   34.965    2.1239
   34.980    1.8606
   34.995    1.8255
   35.010    1.8782
   35.025    1.8606
   35.040    2.0362
   35.055    2.0713
   35.070    2.0888
   35.085    1.8957
   35.100    1.9484
   35.115    2.1590
   35.130    2.0186
   35.145    1.9133
   35.160    1.7553
   35.175    1.9659
   35.190    1.9484
   35.205    1.9484
   35.220    2.1590
   35.235    1.8782
   35.250    1.8080
   35.265    1.8782
   35.280    1.6500
   35.295    1.8431
   35.310    1.8606
   35.325    1.7378
   35.340    1.9659
   35.355    2.1239
   35.370    1.6675
   35.385    1.6851
   35.400    1.8431
   35.415    2.0186
   35.430    1.7202
   35.445    1.9835
   35.460    2.0362
   35.475    1.6500
   35.490    1.6675
   35.505    2.0713
   35.520    1.9835
   35.535    1.9484
   35.550    1.9659
   35.565    1.7729
   35.580    1.9835
   35.595    1.7904
   35.610    1.9308
   35.625    1.6675
   35.640    1.6675
   35.655    1.8782
   35.670    1.8957
   35.685    1.9484
   35.700    1.8782
   35.715    1.6149
   35.730    1.8255
   35.745    1.7378
   35.760    2.0888
   35.775    1.9133
   35.790    1.9659
   35.805    2.2468
   35.820    2.1766
   35.835    1.9133
   35.850    2.0713
   35.865    2.1941
   35.880    2.0537
   35.895    1.8255
   35.910    1.8957
   35.925    1.8606
   35.940    1.7904
   35.955    1.9133
   35.970    1.9308
   35.985    1.6500
   36.000    1.7553
   36.015    2.0011
   36.030    2.1941
   36.045    1.9659
   36.060    1.7378
   36.075    1.8782
   36.090    1.8255
   36.105    1.9484
   36.120    1.7027
   36.135    1.8782
   36.150    1.7729
   36.165    1.6851
   36.180    1.9659
   36.195    1.6324
   36.210    2.1239
   36.225    2.1766
   36.240    2.2468
   36.255    2.1239
   36.270    1.7202
   36.285    1.8255
   36.300    2.0186
   36.315    1.9659
   36.330    2.1064
   36.345    2.0011
   36.360    1.8606
   36.375    1.9484
   36.390    2.0362
   36.405    1.9659
   36.420    2.1239
   36.435    2.0186
   36.450    1.8957
   36.465    2.1239
   36.480    1.7729
   36.495    1.8957
   36.510    1.8431
   36.525    1.7378
   36.540    1.8782
   36.555    1.7904
   36.570    1.8255
   36.585    1.9133
   36.600    1.8080
   36.615    1.7904
   36.630    1.7553
   36.645    1.8606
   36.660    1.7027
   36.675    1.6324
   36.690    1.7553
   36.705    2.2292
   36.720    2.2995
   36.735    1.9659
   36.750    1.7378
   36.765    1.7202
   36.780    1.9308
   36.795    1.6675
   36.810    1.6675
   36.825    1.7202
   36.840    1.7729
   36.855    1.8957
   36.870    1.7027
   36.885    1.6324
   36.900    1.8255
   36.915    1.8255
   36.930    1.7202
   36.945    1.7729
   36.960    1.7202
   36.975    1.8080
   36.990    1.8080
   37.005    1.6851
   37.020    1.7904
   37.035    1.4394
   37.050    1.7202
   37.065    1.7553
   37.080    1.7553
   37.095    1.7378
   37.110    1.8606
   37.125    1.8431
   37.140    1.6675
   37.155    1.4569
   37.170    1.8080
   37.185    1.8606
   37.200    1.8255
   37.215    1.8606
   37.230    1.8782
   37.245    1.9308
   37.260    1.6675
   37.275    1.5271
   37.290    1.6675
   37.305    1.8080
   37.320    1.8431
   37.335    1.6675
   37.350    1.6851
   37.365    1.6500
   37.380    1.7553
   37.395    1.6149
   37.410    1.8431
   37.425    1.7202
   37.440    1.7729
   37.455    1.6675
   37.470    1.7202
   37.485    1.6324
   37.500    1.6324
   37.515    1.6149
   37.530    1.6851
   37.545    1.8957
   37.560    1.7202
   37.575    1.7202
   37.590    1.7553
   37.605    1.8080
   37.620    1.8782
   37.635    2.2995
   37.650    1.9835
   37.665    1.7729
   37.680    1.8431
   37.695    1.6851
   37.710    1.8606
   37.725    1.7378
   37.740    1.9308
   37.755    1.8255
   37.770    1.7553
   37.785    2.0186
   37.800    1.7904
   37.815    1.7553
   37.830    1.6149
   37.845    1.7378
   37.860    1.5271
   37.875    1.7378
   37.890    1.9659
   37.905    1.8080
   37.920    1.9659
   37.935    1.8255
   37.950    1.7904
   37.965    1.6149
   37.980    1.6500
   37.995    1.8080
   38.010    1.6324
   38.025    1.4569
   38.040    1.8431
   38.055    1.9308
   38.070    2.0186
   38.085    1.9133
   38.100    1.8957
   38.115    1.7027
   38.130    1.8957
   38.145    1.8431
   38.160    1.7378
   38.175    1.8255
   38.190    2.1064
   38.205    1.8255
   38.220    1.6675
   38.235    1.8431
   38.250    1.7729
   38.265    1.8782
   38.280    1.6324
   38.295    1.7553
   38.310    2.0011
   38.325    2.0186
   38.340    1.8782
   38.355    1.7904
   38.370    1.5798
   38.385    1.7027
   38.400    2.0186
   38.415    1.8957
   38.430    1.7027
   38.445    1.6500
   38.460    1.6500
   38.475    1.4218
   38.490    2.0362
   38.505    1.8431
   38.520    1.7378
   38.535    1.8080
   38.550    1.6149
   38.565    1.8255
   38.580    1.7027
   38.595    1.7553
   38.610    1.9133
   38.625    1.8255
   38.640    1.8431
   38.655    1.9659
   38.670    1.9484
   38.685    1.5798
   38.700    1.7553
   38.715    1.9133
   38.730    1.8431
   38.745    1.7202
   38.760    1.8431
   38.775    1.8080
   38.790    1.9308
   38.805    2.1064
   38.820    1.9484
   38.835    1.7027
   38.850    1.7553
   38.865    1.7378
   38.880    1.4218
   38.895    1.7378
   38.910    2.0011
   38.925    1.8255
   38.940    2.1415
   38.955    2.0362
   38.970    1.8431
   38.985    1.9659
   39.000    1.7553
   39.015    1.4745
   39.030    1.6851
   39.045    1.5622
   39.060    1.5447
   39.075    1.7553
   39.090    1.6149
   39.105    1.4920
   39.120    1.6149
   39.135    1.6851
   39.150    1.7553
   39.165    1.6675
   39.180    1.6851
   39.195    1.9659
   39.210    1.8782
   39.225    1.9484
   39.240    1.7729
   39.255    1.7904
   39.270    1.6324
   39.285    1.7553
   39.300    1.7904
   39.315    1.7904
   39.330    1.4042
   39.345    1.6675
   39.360    1.8957
   39.375    1.8957
   39.390    1.7553
   39.405    1.8255
   39.420    1.7202
   39.435    1.7904
   39.450    1.8431
   39.465    1.8431
   39.480    1.6851
   39.495    1.5622
   39.510    1.6851
   39.525    1.5447
   39.540    1.7904
   39.555    1.8606
   39.570    1.7202
   39.585    1.6149
   39.600    1.6500
   39.615    1.4920
   39.630    1.5096
   39.645    1.7027
   39.660    1.6500
   39.675    1.6149
   39.690    1.6500
   39.705    1.5447
   39.720    1.5096
   39.735    1.5973
   39.750    1.6324
   39.765    1.7202
   39.780    1.7027
   39.795    1.6324
   39.810    1.5973
   39.825    1.7027
   39.840    1.6324
   39.855    1.4920
   39.870    1.8957
   39.885    1.7729
   39.900    1.5096
   39.915    1.7553
   39.930    1.7904
   39.945    1.8431
   39.960    1.9484
   39.975    1.5096
   39.990    1.7378
