    1.500   15.7873
    1.515   15.9242
    1.530   15.6503
    1.545   16.1032
    1.560   15.9979
    1.575   15.8083
    1.590   15.1869
    1.605   14.7657
    1.620   14.9026
    1.635   14.6603
    1.650   14.7762
    1.665   14.6603
    1.680   14.4392
    1.695   14.2601
    1.710   14.5656
    1.725   14.6709
    1.740   14.7341
    1.755   14.4076
    1.770   14.6498
    1.785   14.6498
    1.800   14.0916
    1.815   14.3549
    1.830   13.6704
    1.845   13.8283
    1.860   14.2917
    1.875   13.9547
    1.890   14.1759
    1.905   14.0600
    1.920   13.7757
    1.935   14.4392
    1.950   14.5234
    1.965   14.0284
    1.980   14.1232
    1.995   14.2075
    2.010   13.8494
    2.025   14.7025
    2.040   14.6814
    2.055   14.8394
    2.070   14.7446
    2.085   14.5761
    2.100   14.8605
    2.115   14.7341
    2.130   13.8389
    2.145   14.3760
    2.160   14.7867
    2.175   14.2075
    2.190   14.5866
    2.205   15.0606
    2.220   15.5661
    2.235   15.0606
    2.250   15.4292
    2.265   15.7135
    2.280   15.4924
    2.295   15.7557
    2.310   15.4924
    2.325   16.4613
    2.340   16.2612
    2.355   16.5350
    2.370   16.8299
    2.385   15.9242
    2.400   15.9136
    2.415   16.8404
    2.430   16.6930
    2.445   16.5140
    2.460   17.8199
    2.475   16.8931
    2.490   18.0305
    2.505   18.4518
    2.520   18.1148
    2.535   18.4202
    2.550   17.9989
    2.565   18.7888
    2.580   19.5155
    2.595   19.1785
    2.610   20.0421
    2.625   20.5477
    2.640   20.5477
    2.655   21.1269
    2.670   20.8215
    2.685   21.5271
    2.700   22.0011
    2.715   21.7483
    2.730   22.4645
    2.745   22.5276
    2.760   22.6435
    2.775   23.1912
    2.790   24.1917
    2.805   24.4023
    2.820   25.4450
    2.835   25.2238
    2.850   25.0974
    2.865   26.3928
    2.880   27.9094
    2.895   28.0463
    2.910   28.7625
    2.925   29.4576
    2.940   30.0053
    2.955   30.8478
    2.970   31.0058
    2.985   32.1432
    3.000   33.0595
    3.015   33.5545
    3.030   35.6187
    3.045   36.5982
    3.060   36.4192
    3.075   37.5355
    3.090   38.4729
    3.105   40.2106
    3.120   40.3476
    3.135   42.5592
    3.150   44.1496
    3.165   45.9926
    3.180   48.0358
    3.195   49.2996
    3.210   50.7741
    3.225   51.7325
    3.240   54.2496
    3.255   56.1980
    3.270   59.2417
    3.285   61.9800
    3.300   66.2454
    3.315   67.9516
    3.330   70.6582
    3.345   74.1654
    3.360   79.0837
    3.375   82.5908
    3.390   88.7204
    3.405   91.6482
    3.420   96.8826
    3.435  101.2217
    3.450  104.0758
    3.465  106.6877
    3.480  106.2875
    3.495  104.8552
    3.510  100.7056
    3.525   93.5229
    3.540   86.4982
    3.555   78.1780
    3.570   70.9531
    3.585   64.6130
    3.600   60.2738
    3.615   56.7035
    3.630   53.7862
    3.645   53.3860
    3.660   52.0379
    3.675   51.7325
    3.690   52.8489
    3.705   52.5224
    3.720   53.8810
    3.735   55.0500
    3.750   56.8615
    3.765   58.3044
    3.780   61.1059
    3.795   60.6003
    3.810   63.2754
    3.825   64.5708
    3.840   65.0869
    3.855   65.2765
    3.870   65.2238
    3.885   65.0764
    3.900   63.9810
    3.915   62.1801
    3.930   58.6730
    3.945   54.8499
    3.960   51.8062
    3.975   45.7188
    3.990   40.4845
    4.005   37.3354
    4.020   34.5761
    4.035   30.9426
    4.050   27.6251
    4.065   24.6340
    4.080   22.7593
    4.095   20.2844
    4.110   18.1780
    4.125   16.5245
    4.140   15.3976
    4.155   14.7657
    4.170   13.6388
    4.185   12.6698
    4.200   11.9115
    4.215   11.2059
    4.230   10.6688
    4.245   10.4371
    4.260   10.2159
    4.275    9.0469
    4.290    8.8994
    4.305    8.8046
    4.320    8.3518
    4.335    8.1095
    4.350    8.2991
    4.365    8.0042
    4.380    7.9516
    4.395    7.4882
    4.410    7.4566
    4.425    7.2565
    4.440    7.0985
    4.455    6.9616
    4.470    6.6667
    4.485    6.4876
    4.500    6.2243
    4.515    6.3402
    4.530    6.0348
    4.545    6.0874
    4.560    6.0348
    4.575    5.8768
    4.590    5.7715
    4.605    6.0137
    4.620    6.1717
    4.635    6.1085
    4.650    5.8347
    4.665    5.7715
    4.680    6.0348
    4.695    5.6767
    4.710    5.5398
    4.725    5.8768
    4.740    5.7293
    4.755    5.6767
    4.770    5.5714
    4.785    6.1085
    4.800    5.5819
    4.815    5.8873
    4.830    5.7188
    4.845    5.6767
    4.860    5.4555
    4.875    5.7399
    4.890    5.3923
    4.905    5.1080
    4.920    5.5924
    4.935    5.4134
    4.950    5.7188
    4.965    5.4976
    4.980    5.6661
    4.995    5.8452
    5.010    5.5819
    5.025    5.6135
    5.040    5.3186
    5.055    5.5608
    5.070    5.4766
    5.085    5.4555
    5.100    5.4344
    5.115    5.6451
    5.130    5.6872
    5.145    5.4450
    5.160    5.5819
    5.175    5.2975
    5.190    5.4976
    5.205    5.6029
    5.220    5.7188
    5.235    5.7293
    5.250    5.6135
    5.265    6.0979
    5.280    5.9400
    5.295    6.2454
    5.310    5.8452
    5.325    6.0453
    5.340    5.9716
    5.355    5.5398
    5.370    5.7925
    5.385    5.7820
    5.400    5.5503
    5.415    6.0874
    5.430    5.6556
    5.445    5.6872
    5.460    5.8662
    5.475    6.0664
    5.490    6.3296
    5.505    6.6561
    5.520    6.6667
    5.535    6.7930
    5.550    7.0563
    5.565    6.4455
    5.580    5.8873
    5.595    5.1290
    5.610    5.0869
    5.625    5.2343
    5.640    4.7604
    5.655    4.7499
    5.670    4.7604
    5.685    4.8447
    5.700    4.8552
    5.715    4.8025
    5.730    4.9710
    5.745    4.6130
    5.760    4.7183
    5.775    4.6656
    5.790    4.6972
    5.805    4.8236
    5.820    4.9605
    5.835    4.6656
    5.850    4.6972
    5.865    4.9289
    5.880    4.7183
    5.895    4.7499
    5.910    4.6656
    5.925    4.8341
    5.940    4.7288
    5.955    4.7499
    5.970    4.6972
    5.985    4.5814
    6.000    4.8447
    6.015    4.6130
    6.030    5.1501
    6.045    4.9605
    6.060    5.2238
    6.075    5.4660
    6.090    4.7499
    6.105    4.8552
    6.120    4.9710
    6.135    4.9078
    6.150    5.1606
    6.165    5.0342
    6.180    5.2343
    6.195    5.1501
    6.210    5.1290
    6.225    5.0869
    6.240    5.3291
    6.255    5.0658
    6.270    5.2975
    6.285    5.8241
    6.300    5.4134
    6.315    5.3186
    6.330    5.4134
    6.345    5.1185
    6.360    5.1606
    6.375    5.3397
    6.390    5.8347
    6.405    5.8452
    6.420    5.7083
    6.435    5.4871
    6.450    5.8873
    6.465    6.3191
    6.480    6.1927
    6.495    6.2454
    6.510    6.3928
    6.525    6.5929
    6.540    6.5192
    6.555    6.9194
    6.570    7.3302
    6.585    7.1090
    6.600    7.3407
    6.615    7.7725
    6.630    7.2880
    6.645    7.8989
    6.660    7.8989
    6.675    8.2780
    6.690    8.8046
    6.705    9.0995
    6.720    9.0785
    6.735    9.6472
    6.750   10.4581
    6.765   10.5635
    6.780   11.5534
    6.795   12.1748
    6.810   12.5645
    6.825   12.8699
    6.840   13.5229
    6.855   13.4702
    6.870   14.9236
    6.885   15.7978
    6.900   15.9347
    6.915   16.8299
    6.930   17.8199
    6.945   18.3570
    6.960   18.2938
    6.975   18.6519
    6.990   18.2622
    7.005   17.7778
    7.020   16.0190
    7.035   14.6182
    7.050   14.3339
    7.065   12.3012
    7.080   11.0900
    7.095    9.6472
    7.110    9.0995
    7.125    8.6783
    7.140    8.0990
    7.155    8.2254
    7.170    7.3723
    7.185    7.2986
    7.200    6.9721
    7.215    7.1301
    7.230    6.6772
    7.245    6.4350
    7.260    6.7615
    7.275    6.8352
    7.290    6.5929
    7.305    6.7720
    7.320    6.9194
    7.335    7.1511
    7.350    7.0353
    7.365    6.2138
    7.380    6.6983
    7.395    6.9616
    7.410    7.1090
    7.425    7.4250
    7.440    7.9831
    7.455    8.0253
    7.470    8.0779
    7.485    8.4571
    7.500    8.3518
    7.515    8.5308
    7.530    8.8362
    7.545    8.9837
    7.560    9.2680
    7.575   10.0790
    7.590    9.8368
    7.605    9.8157
    7.620   10.6477
    7.635   11.6693
    7.650   11.8694
    7.665   12.2170
    7.680   12.4908
    7.695   12.7962
    7.710   13.6282
    7.725   14.5761
    7.740   14.6919
    7.755   15.2185
    7.770   14.7973
    7.785   14.8078
    7.800   15.2817
    7.815   14.8605
    7.830   15.0184
    7.845   14.2917
    7.860   14.2285
    7.875   14.1654
    7.890   13.4176
    7.905   12.6172
    7.920   11.7641
    7.935   10.8899
    7.950   10.8162
    7.965   10.1632
    7.980    9.5945
    7.995    8.9521
    8.010    8.4044
    8.025    8.2359
    8.040    8.2359
    8.055    7.4355
    8.070    7.2670
    8.085    7.1195
    8.100    6.7930
    8.115    6.3612
    8.130    6.0558
    8.145    6.1717
    8.160    5.9084
    8.175    5.7399
    8.190    5.6029
    8.205    5.6451
    8.220    5.6661
    8.235    5.6451
    8.250    5.4766
    8.265    5.2343
    8.280    5.1080
    8.295    5.1711
    8.310    5.5503
    8.325    5.0869
    8.340    5.2343
    8.355    5.0026
    8.370    5.0869
    8.385    4.7604
    8.400    4.8868
    8.415    5.0237
    8.430    4.7077
    8.445    4.4866
    8.460    4.5603
    8.475    4.6445
    8.490    4.9184
    8.505    4.7709
    8.520    4.8341
    8.535    4.7815
    8.550    4.6130
    8.565    4.1390
    8.580    4.1074
    8.595    4.8447
    8.610    4.6235
    8.625    4.4866
    8.640    4.4550
    8.655    4.6340
    8.670    4.7288
    8.685    4.4550
    8.700    4.6024
    8.715    4.4339
    8.730    4.2022
    8.745    4.6761
    8.760    4.5708
    8.775    4.4234
    8.790    4.2970
    8.805    4.3813
    8.820    4.2233
    8.835    4.2549
    8.850    4.5814
    8.865    4.2759
    8.880    4.4023
    8.895    4.4866
    8.910    4.2233
    8.925    4.3391
    8.940    4.1601
    8.955    4.5814
    8.970    4.4444
    8.985    4.0548
    9.000    4.1706
    9.015    4.5392
    9.030    4.2443
    9.045    4.3497
    9.060    4.4971
    9.075    4.1285
    9.090    4.3181
    9.105    4.3075
    9.120    4.0864
    9.135    4.5708
    9.150    4.6656
    9.165    4.3813
    9.180    4.3918
    9.195    4.2233
    9.210    4.1496
    9.225    4.0864
    9.240    4.4023
    9.255    4.2443
    9.270    4.2233
    9.285    4.5182
    9.300    4.3497
    9.315    4.3707
    9.330    4.6130
    9.345    4.6024
    9.360    4.0653
    9.375    4.1706
    9.390    4.5182
    9.405    4.4444
    9.420    4.3286
    9.435    4.5919
    9.450    4.4234
    9.465    4.3497
    9.480    4.3602
    9.495    4.6340
    9.510    4.4023
    9.525    4.8025
    9.540    4.6972
    9.555    4.7183
    9.570    4.9500
    9.585    5.3081
    9.600    4.8973
    9.615    5.5819
    9.630    5.5608
    9.645    4.8763
    9.660    4.5392
    9.675    4.4866
    9.690    4.3391
    9.705    4.5708
    9.720    4.3075
    9.735    4.1706
    9.750    4.5498
    9.765    4.6656
    9.780    4.2233
    9.795    4.2759
    9.810    4.0758
    9.825    4.2233
    9.840    4.3707
    9.855    4.1601
    9.870    4.3391
    9.885    4.1285
    9.900    4.5498
    9.915    4.0232
    9.930    4.2233
    9.945    4.1180
    9.960    4.3391
    9.975    4.7077
    9.990    4.0864
   10.005    4.1390
   10.020    4.2654
   10.035    4.3918
   10.050    4.3181
   10.065    4.5076
   10.080    4.2443
   10.095    4.2443
   10.110    4.0126
   10.125    4.1180
   10.140    4.5814
   10.155    4.1811
   10.170    4.4128
   10.185    4.1180
   10.200    4.2970
   10.215    4.4655
   10.230    4.2338
   10.245    4.5603
   10.260    4.4655
   10.275    4.3707
   10.290    4.4550
   10.305    4.7604
   10.320    4.6761
   10.335    4.8025
   10.350    4.4760
   10.365    4.7288
   10.380    4.7604
   10.395    4.4971
   10.410    4.6867
   10.425    4.6656
   10.440    4.8657
   10.455    5.2343
   10.470    5.0658
   10.485    4.5287
   10.500    4.4444
   10.515    4.2759
   10.530    4.5814
   10.545    4.8236
   10.560    4.7077
   10.575    4.4128
   10.590    4.4655
   10.605    4.4866
   10.620    4.3497
   10.635    4.1180
   10.650    4.0653
   10.665    4.2654
   10.680    4.4234
   10.695    4.3181
   10.710    4.3075
   10.725    4.3707
   10.740    4.5076
   10.755    4.4971
   10.770    4.3181
   10.785    4.3391
   10.800    4.2443
   10.815    4.0758
   10.830    4.2022
   10.845    3.9494
   10.860    4.3707
   10.875    4.5498
   10.890    4.0337
   10.905    4.4866
   10.920    4.5182
   10.935    4.3918
   10.950    4.3813
   10.965    4.2549
   10.980    4.2865
   10.995    4.4971
   11.010    4.4971
   11.025    4.4444
   11.040    4.6340
   11.055    4.3707
   11.070    4.3813
   11.085    4.3602
   11.100    4.4550
   11.115    4.6235
   11.130    4.7183
   11.145    4.5076
   11.160    4.4655
   11.175    4.4234
   11.190    4.5919
   11.205    4.6340
   11.220    4.3813
   11.235    4.6235
   11.250    4.3813
   11.265    4.8657
   11.280    4.6867
   11.295    4.6340
   11.310    4.4971
   11.325    4.6445
   11.340    4.3391
   11.355    4.2127
   11.370    4.6972
   11.385    4.8131
   11.400    4.5708
   11.415    4.5814
   11.430    4.8025
   11.445    4.6656
   11.460    4.8552
   11.475    4.5814
   11.490    4.7604
   11.505    4.9500
   11.520    4.7815
   11.535    4.8657
   11.550    4.9184
   11.565    4.9500
   11.580    5.2765
   11.595    5.4239
   11.610    5.6135
   11.625    5.2343
   11.640    5.4344
   11.655    5.0764
   11.670    5.5187
   11.685    5.4660
   11.700    5.3502
   11.715    5.3607
   11.730    5.6451
   11.745    5.4239
   11.760    5.7188
   11.775    5.3291
   11.790    5.4450
   11.805    5.1922
   11.820    5.6451
   11.835    5.4028
   11.850    5.2765
   11.865    5.2238
   11.880    5.0658
   11.895    5.2238
   11.910    5.0132
   11.925    4.9710
   11.940    5.2027
   11.955    5.3186
   11.970    5.0869
   11.985    4.9289
   12.000    5.0448
   12.015    4.8552
   12.030    4.4444
   12.045    4.4550
   12.060    4.5603
   12.075    4.6867
   12.090    4.7499
   12.105    4.8973
   12.120    4.8131
   12.135    4.7393
   12.150    4.4655
   12.165    4.7077
   12.180    4.6340
   12.195    4.6340
   12.210    4.4339
   12.225    4.5603
   12.240    4.3813
   12.255    4.6445
   12.270    4.4655
   12.285    4.2970
   12.300    4.6867
   12.315    4.5919
   12.330    4.3075
   12.345    4.3286
   12.360    4.2233
   12.375    4.6656
   12.390    4.4866
   12.405    4.4550
   12.420    4.2233
   12.435    4.3391
   12.450    4.6130
   12.465    4.6761
   12.480    4.6867
   12.495    4.3497
   12.510    4.6867
   12.525    4.7709
   12.540    4.7077
   12.555    4.3497
   12.570    4.3602
   12.585    4.5498
   12.600    4.3707
   12.615    4.4234
   12.630    4.3391
   12.645    4.3602
   12.660    4.4866
   12.675    4.5814
   12.690    4.4444
   12.705    4.5287
   12.720    4.2970
   12.735    4.3497
   12.750    4.6130
   12.765    4.8025
   12.780    4.3497
   12.795    4.4655
   12.810    4.8657
   12.825    4.5603
   12.840    4.6656
   12.855    4.5498
   12.870    4.5392
   12.885    4.5287
   12.900    4.4866
   12.915    4.6656
   12.930    4.6235
   12.945    4.7393
   12.960    4.3391
   12.975    4.5182
   12.990    4.5498
   13.005    4.8973
   13.020    4.8552
   13.035    4.7920
   13.050    4.8657
   13.065    4.6024
   13.080    4.7077
   13.095    4.6340
   13.110    4.5392
   13.125    4.6235
   13.140    4.3813
   13.155    4.4655
   13.170    4.4971
   13.185    4.5392
   13.200    4.4444
   13.215    4.0653
   13.230    4.4760
   13.245    4.4444
   13.260    4.4655
   13.275    4.5603
   13.290    4.7077
   13.305    4.7499
   13.320    4.5498
   13.335    4.4128
   13.350    4.6340
   13.365    4.6024
   13.380    4.4550
   13.395    4.3286
   13.410    4.7393
   13.425    4.4128
   13.440    4.2549
   13.455    4.7709
   13.470    4.9078
   13.485    4.2654
   13.500    4.5919
   13.515    4.7604
   13.530    4.6024
   13.545    4.4760
   13.560    4.2654
   13.575    4.3391
   13.590    4.4760
   13.605    4.6656
   13.620    4.5814
   13.635    4.3918
   13.650    4.2970
   13.665    4.4444
   13.680    4.4550
   13.695    4.3075
   13.710    4.4444
   13.725    4.1496
   13.740    4.4023
   13.755    4.4444
   13.770    4.3602
   13.785    4.4760
   13.800    4.4971
   13.815    4.3181
   13.830    4.4550
   13.845    4.3813
   13.860    4.5287
   13.875    4.4866
   13.890    4.3918
   13.905    3.9810
   13.920    4.5076
   13.935    4.5076
   13.950    4.6972
   13.965    4.7288
   13.980    4.1180
   13.995    4.2022
   14.010    4.2970
   14.025    4.5919
   14.040    4.7604
   14.055    4.2970
   14.070    4.2338
   14.085    4.3918
   14.100    4.8868
   14.115    4.3918
   14.130    4.3286
   14.145    4.6340
   14.160    4.3181
   14.175    4.5182
   14.190    4.1706
   14.205    4.3918
   14.220    4.3497
   14.235    4.0337
   14.250    4.1811
   14.265    4.3181
   14.280    4.2759
   14.295    4.1496
   14.310    4.2233
   14.325    4.1811
   14.340    4.3918
   14.355    4.2338
   14.370    4.0337
   14.385    4.0548
   14.400    4.3707
   14.415    4.3181
   14.430    4.4234
   14.445    4.1706
   14.460    4.0969
   14.475    4.2549
   14.490    4.3075
   14.505    4.2759
   14.520    4.0548
   14.535    4.2970
   14.550    4.4339
   14.565    4.3181
   14.580    4.3391
   14.595    4.2443
   14.610    4.3075
   14.625    4.2127
   14.640    4.0442
   14.655    4.0232
   14.670    4.0969
   14.685    4.5919
   14.700    4.1917
   14.715    4.0758
   14.730    4.2759
   14.745    4.3391
   14.760    4.1706
   14.775    4.3918
   14.790    4.5287
   14.805    4.3181
   14.820    4.5182
   14.835    4.6024
   14.850    4.4866
   14.865    4.3602
   14.880    4.6130
   14.895    4.5498
   14.910    4.5814
   14.925    4.5182
   14.940    4.4339
   14.955    3.9073
   14.970    4.3602
   14.985    4.3813
   15.000    4.3391
   15.015    4.4550
   15.030    4.6340
   15.045    4.4655
   15.060    4.4760
   15.075    4.2338
   15.090    4.6130
   15.105    4.5287
   15.120    4.2549
   15.135    4.4023
   15.150    4.2022
   15.165    4.0548
   15.180    4.2865
   15.195    4.0653
   15.210    4.2338
   15.225    4.3813
   15.240    4.4866
   15.255    4.6867
   15.270    4.2233
   15.285    4.3286
   15.300    4.6972
   15.315    4.4655
   15.330    4.5076
   15.345    4.1285
   15.360    4.2865
   15.375    4.5498
   15.390    4.2970
   15.405    4.6551
   15.420    4.6972
   15.435    4.4234
   15.450    4.2865
   15.465    4.1917
   15.480    4.2022
   15.495    4.5076
   15.510    4.6235
   15.525    4.6551
   15.540    4.7077
   15.555    4.4866
   15.570    4.6130
   15.585    4.8763
   15.600    4.7604
   15.615    4.5498
   15.630    4.5814
   15.645    4.4128
   15.660    4.6867
   15.675    4.6551
   15.690    4.4866
   15.705    4.1917
   15.720    4.6761
   15.735    4.2127
   15.750    4.6972
   15.765    4.9500
   15.780    4.5182
   15.795    4.4655
   15.810    4.2970
   15.825    4.5708
   15.840    4.3707
   15.855    4.4234
   15.870    4.4655
   15.885    4.3391
   15.900    4.5708
   15.915    4.5603
   15.930    4.5076
   15.945    4.7288
   15.960    4.5708
   15.975    4.4128
   15.990    4.1811
   16.005    4.3707
   16.020    4.3602
   16.035    4.3286
   16.050    4.2233
   16.065    4.1285
   16.080    4.3391
   16.095    4.1074
   16.110    4.5814
   16.125    4.1496
   16.140    4.2970
   16.155    4.1811
   16.170    4.4444
   16.185    4.4655
   16.200    4.6024
   16.215    4.8131
   16.230    4.6761
   16.245    4.1074
   16.260    4.1180
   16.275    4.3181
   16.290    4.4339
   16.305    4.5603
   16.320    4.1496
   16.335    4.0758
   16.350    3.8231
   16.365    4.3602
   16.380    4.1811
   16.395    4.3602
   16.410    4.2338
   16.425    4.0442
   16.440    4.2127
   16.455    4.5182
   16.470    4.2127
   16.485    4.1285
   16.500    4.1390
   16.515    4.2549
   16.530    4.4128
   16.545    4.4023
   16.560    4.3391
   16.575    4.2865
   16.590    4.3391
   16.605    4.3813
   16.620    3.8757
   16.635    4.6024
   16.650    4.4234
   16.665    4.1706
   16.680    4.4550
   16.695    4.2443
   16.710    4.4128
   16.725    4.1706
   16.740    4.2338
   16.755    4.2443
   16.770    4.3391
   16.785    4.0758
   16.800    4.2759
   16.815    4.2865
   16.830    4.4234
   16.845    4.3602
   16.860    4.2443
   16.875    4.4444
   16.890    4.4760
   16.905    4.1496
   16.920    4.1601
   16.935    4.4444
   16.950    4.2759
   16.965    4.3918
   16.980    4.2865
   16.995    4.3391
   17.010    4.5814
   17.025    4.5182
   17.040    4.4339
   17.055    4.3391
   17.070    4.4234
   17.085    4.5182
   17.100    4.4234
   17.115    4.4550
   17.130    4.3602
   17.145    4.3918
   17.160    4.5814
   17.175    4.4550
   17.190    4.4023
   17.205    4.3391
   17.220    4.2759
   17.235    4.4971
   17.250    4.1706
   17.265    4.2549
   17.280    4.4655
   17.295    4.3602
   17.310    4.3813
   17.325    4.2759
   17.340    4.4444
   17.355    4.4655
   17.370    4.4023
   17.385    4.1496
   17.400    4.6656
   17.415    4.7604
   17.430    4.6761
   17.445    4.6024
   17.460    4.3181
   17.475    4.4234
   17.490    4.6867
   17.505    4.3813
   17.520    4.3181
   17.535    4.4971
   17.550    4.4971
   17.565    4.4655
   17.580    4.2865
   17.595    4.6130
   17.610    4.2338
   17.625    4.6340
   17.640    4.6024
   17.655    4.6445
   17.670    4.1074
   17.685    4.5076
   17.700    4.3286
   17.715    4.4339
   17.730    4.3391
   17.745    4.5708
   17.760    4.4444
   17.775    4.3286
   17.790    4.1811
   17.805    4.2233
   17.820    4.2970
   17.835    4.4444
   17.850    4.6656
   17.865    4.8657
   17.880    4.3602
   17.895    4.2549
   17.910    4.2759
   17.925    4.1496
   17.940    4.2022
   17.955    4.4866
   17.970    4.6235
   17.985    4.3813
   18.000    4.3602
   18.015    4.4444
   18.030    4.7920
   18.045    4.7499
   18.060    4.6445
   18.075    4.3391
   18.090    4.3707
   18.105    4.5182
   18.120    4.8341
   18.135    4.5498
   18.150    4.4339
   18.165    4.5498
   18.180    4.6656
   18.195    4.3497
   18.210    4.4655
   18.225    4.5392
   18.240    4.4550
   18.255    4.4866
   18.270    4.4128
   18.285    4.5498
   18.300    4.6761
   18.315    4.4655
   18.330    4.6445
   18.345    4.4023
   18.360    4.3497
   18.375    4.3602
   18.390    4.3181
   18.405    4.4760
   18.420    4.5603
   18.435    4.4760
   18.450    4.3602
   18.465    4.3075
   18.480    4.5814
   18.495    4.4971
   18.510    4.3602
   18.525    4.2338
   18.540    4.8868
   18.555    4.5603
   18.570    4.3813
   18.585    4.4023
   18.600    4.2549
   18.615    4.4234
   18.630    4.6445
   18.645    4.2443
   18.660    4.4550
   18.675    4.1706
   18.690    3.9916
   18.705    4.5287
   18.720    4.1706
   18.735    4.2654
   18.750    4.5919
   18.765    4.6761
   18.780    4.4128
   18.795    4.3707
   18.810    4.6867
   18.825    4.3602
   18.840    4.4234
   18.855    4.5182
   18.870    4.4128
   18.885    4.5392
   18.900    4.4760
   18.915    4.4444
   18.930    4.5076
   18.945    4.7077
   18.960    4.5392
   18.975    4.7709
   18.990    4.4023
   19.005    4.7604
   19.020    4.5814
   19.035    4.5814
   19.050    4.2549
   19.065    4.4550
   19.080    4.4866
   19.095    4.3497
   19.110    4.2549
   19.125    4.7288
   19.140    4.6024
   19.155    4.6024
   19.170    4.5708
   19.185    4.5392
   19.200    4.4655
   19.215    4.4339
   19.230    4.7393
   19.245    4.8025
   19.260    4.4234
   19.275    4.2443
   19.290    4.1390
   19.305    4.6551
   19.320    4.3075
   19.335    4.1706
   19.350    4.5392
   19.365    4.4655
   19.380    4.3813
   19.395    4.5498
   19.410    4.5919
   19.425    4.3286
   19.440    4.8236
   19.455    5.0026
   19.470    4.7183
   19.485    4.4339
   19.500    4.6656
   19.515    4.3918
   19.530    4.4339
   19.545    4.6235
   19.560    4.7077
   19.575    4.8341
   19.590    4.6656
   19.605    4.6972
   19.620    4.5603
   19.635    4.7077
   19.650    4.5182
   19.665    4.6235
   19.680    4.6972
   19.695    4.5603
   19.710    4.4760
   19.725    4.6445
   19.740    4.7183
   19.755    4.9289
   19.770    4.7077
   19.785    4.8973
   19.800    4.9078
   19.815    4.6235
   19.830    4.7920
   19.845    4.7604
   19.860    4.5708
   19.875    5.1080
   19.890    4.7077
   19.905    4.7920
   19.920    5.1817
   19.935    4.8868
   19.950    4.8131
   19.965    4.8763
   19.980    5.0553
   19.995    4.6867
   20.010    4.8763
   20.025    5.0974
   20.040    4.6235
   20.055    4.8973
   20.070    4.6024
   20.085    4.8131
   20.100    4.9078
   20.115    4.9184
   20.130    4.8447
   20.145    5.1185
   20.160    5.1395
   20.175    4.9710
   20.190    4.6972
   20.205    5.0132
   20.220    5.0342
   20.235    5.3081
   20.250    4.8025
   20.265    5.2449
   20.280    5.1817
   20.295    4.9394
   20.310    5.2975
   20.325    5.1185
   20.340    4.9605
   20.355    4.9078
   20.370    5.2343
   20.385    5.3607
   20.400    4.9184
   20.415    4.9289
   20.430    5.1922
   20.445    4.9500
   20.460    5.0342
   20.475    5.0132
   20.490    5.1080
   20.505    5.0026
   20.520    4.9394
   20.535    4.9921
   20.550    4.8973
   20.565    4.9289
   20.580    4.6972
   20.595    4.8657
   20.610    5.0448
   20.625    4.9500
   20.640    4.7815
   20.655    5.1711
   20.670    4.8341
   20.685    5.1711
   20.700    5.0342
   20.715    4.5392
   20.730    4.7288
   20.745    4.7183
   20.760    5.0869
   20.775    5.0132
   20.790    5.1711
   20.805    4.9500
   20.820    5.0026
   20.835    4.8868
   20.850    5.2975
   20.865    5.2554
   20.880    5.2238
   20.895    4.9921
   20.910    5.1711
   20.925    5.2449
   20.940    5.1711
   20.955    5.2027
   20.970    5.3081
   20.985    5.3186
   21.000    4.9078
   21.015    5.0974
   21.030    4.9184
   21.045    5.2975
   21.060    5.1922
   21.075    4.8973
   21.090    5.0132
   21.105    5.0026
   21.120    5.3607
   21.135    5.3186
   21.150    5.5187
   21.165    5.3081
   21.180    5.8347
   21.195    5.3081
   21.210    5.2765
   21.225    5.2870
   21.240    5.1711
   21.255    5.3923
   21.270    5.3818
   21.285    5.4660
   21.300    4.9921
   21.315    5.3186
   21.330    5.5292
   21.345    5.4028
   21.360    5.3502
   21.375    5.2870
   21.390    5.0237
   21.405    4.9184
   21.420    5.1606
   21.435    4.8236
   21.450    5.1501
   21.465    5.2554
   21.480    5.1922
   21.495    5.0764
   21.510    5.1185
   21.525    5.2449
   21.540    5.3607
   21.555    4.7920
   21.570    4.5287
   21.585    4.8868
   21.600    5.3397
   21.615    5.4028
   21.630    5.3818
   21.645    5.2449
   21.660    5.0342
   21.675    5.0553
   21.690    4.9921
   21.705    4.9605
   21.720    5.0658
   21.735    4.9078
   21.750    4.7709
   21.765    5.2554
   21.780    5.0026
   21.795    5.1395
   21.810    4.7499
   21.825    4.9289
   21.840    5.0764
   21.855    4.9289
   21.870    5.0869
   21.885    4.6445
   21.900    4.7920
   21.915    5.0237
   21.930    4.9921
   21.945    5.0026
   21.960    4.9816
   21.975    5.2765
   21.990    5.2133
   22.005    4.9394
   22.020    5.0448
   22.035    5.2027
   22.050    5.0553
   22.065    5.2554
   22.080    4.9184
   22.095    5.0974
   22.110    5.3818
   22.125    5.4134
   22.140    5.1922
   22.155    5.1606
   22.170    5.1501
   22.185    5.0974
   22.200    4.8868
   22.215    4.9289
   22.230    5.3397
   22.245    5.1817
   22.260    5.2133
   22.275    5.0132
   22.290    5.2870
   22.305    5.3818
   22.320    5.0658
   22.335    5.2027
   22.350    5.1606
   22.365    5.2027
   22.380    5.1080
   22.395    4.9500
   22.410    4.9289
   22.425    5.2554
   22.440    5.6135
   22.455    5.3397
   22.470    5.2238
   22.485    5.3397
   22.500    4.9710
   22.515    4.8868
   22.530    5.0869
   22.545    5.3081
   22.560    5.3291
   22.575    5.3186
   22.590    5.2449
   22.605    5.2975
   22.620    5.5187
   22.635    5.3818
   22.650    5.7504
   22.665    5.7399
   22.680    5.3081
   22.695    5.1922
   22.710    5.5819
   22.725    5.1185
   22.740    5.5714
   22.755    5.4344
   22.770    5.2554
   22.785    5.8662
   22.800    5.8241
   22.815    5.6029
   22.830    5.4028
   22.845    5.4239
   22.860    5.4766
   22.875    5.5082
   22.890    5.1501
   22.905    5.2238
   22.920    5.3712
   22.935    5.5187
   22.950    5.5819
   22.965    5.3081
   22.980    5.6135
   22.995    5.4766
   23.010    5.0132
   23.025    5.3186
   23.040    5.4239
   23.055    5.2554
   23.070    5.4871
   23.085    5.2449
   23.100    5.1711
   23.115    5.0448
   23.130    5.2870
   23.145    4.7288
   23.160    5.2133
   23.175    5.3081
   23.190    5.3186
   23.205    4.7604
   23.220    4.9500
   23.235    5.0764
   23.250    4.7604
   23.265    4.7815
   23.280    4.9816
   23.295    4.8341
   23.310    4.6551
   23.325    5.0448
   23.340    5.1185
   23.355    5.1395
   23.370    5.2343
   23.385    5.0026
   23.400    4.9500
   23.415    5.2238
   23.430    5.1922
   23.445    4.7920
   23.460    4.9289
   23.475    4.7393
   23.490    4.8236
   23.505    4.8657
   23.520    4.7815
   23.535    4.6656
   23.550    4.8552
   23.565    4.9184
   23.580    4.9816
   23.595    5.2554
   23.610    5.0342
   23.625    4.6761
   23.640    4.7709
   23.655    5.0974
   23.670    4.8973
   23.685    5.0869
   23.700    4.8868
   23.715    4.4339
   23.730    4.5392
   23.745    4.3391
   23.760    4.5603
   23.775    4.4023
   23.790    4.6551
   23.805    4.7920
   23.820    5.0342
   23.835    5.0237
   23.850    5.0026
   23.865    4.8763
   23.880    4.6130
   23.895    4.6656
   23.910    5.0237
   23.925    4.8763
   23.940    4.7183
   23.955    4.7183
   23.970    5.0237
   23.985    5.0342
   24.000    4.6867
   24.015    4.4128
   24.030    4.7920
   24.045    4.5287
   24.060    4.7077
   24.075    4.8447
   24.090    4.9394
   24.105    5.0026
   24.120    4.9500
   24.135    4.7288
   24.150    4.9500
   24.165    4.6972
   24.180    4.6761
   24.195    4.9921
   24.210    4.6024
   24.225    4.8552
   24.240    4.5603
   24.255    4.7393
   24.270    4.4550
   24.285    4.8025
   24.300    4.6761
   24.315    5.1290
   24.330    4.9289
   24.345    4.8447
   24.360    4.7077
   24.375    4.8025
   24.390    4.5498
   24.405    4.9078
   24.420    4.7393
   24.435    4.6761
   24.450    4.7393
   24.465    4.9184
   24.480    5.0764
   24.495    5.0448
   24.510    5.0764
   24.525    4.9710
   24.540    4.8552
   24.555    4.9921
   24.570    4.8973
   24.585    4.5919
   24.600    5.1711
   24.615    4.9816
   24.630    4.8763
   24.645    4.8236
   24.660    4.9710
   24.675    4.8131
   24.690    4.7183
   24.705    4.8341
   24.720    4.7815
   24.735    4.8341
   24.750    4.8447
   24.765    4.7709
   24.780    4.8657
   24.795    5.0342
   24.810    4.7604
   24.825    4.9500
   24.840    5.1395
   24.855    4.6972
   24.870    4.6130
   24.885    5.0132
   24.900    5.0869
   24.915    4.6235
   24.930    4.6656
   24.945    5.0869
   24.960    4.8868
   24.975    4.7604
   24.990    4.6340
   25.005    4.5076
   25.020    4.6024
   25.035    5.0974
   25.050    4.6130
   25.065    4.5498
   25.080    4.9500
   25.095    4.8131
   25.110    4.6972
   25.125    4.6656
   25.140    4.5392
   25.155    4.6445
   25.170    4.5076
   25.185    4.8973
   25.200    4.6130
   25.215    4.8025
   25.230    5.0448
   25.245    4.4866
   25.260    4.3813
   25.275    4.4023
   25.290    4.4234
   25.305    4.4550
   25.320    4.2970
   25.335    4.4128
   25.350    4.6340
   25.365    4.7815
   25.380    4.2970
   25.395    4.3286
   25.410    4.4655
   25.425    4.3918
   25.440    4.3391
   25.455    4.2865
   25.470    4.4550
   25.485    4.4550
   25.500    4.5814
   25.515    4.1601
   25.530    4.0969
   25.545    4.2338
   25.560    4.3391
   25.575    4.6656
   25.590    4.5814
   25.605    4.3497
   25.620    4.2759
   25.635    4.5498
   25.650    4.3707
   25.665    4.2549
   25.680    4.5603
   25.695    4.4444
   25.710    4.5392
   25.725    4.3497
   25.740    4.4128
   25.755    4.6761
   25.770    4.2759
   25.785    4.4234
   25.800    4.4023
   25.815    4.5076
   25.830    4.3707
   25.845    4.3497
   25.860    4.4128
   25.875    4.5603
   25.890    4.4550
   25.905    4.4339
   25.920    4.4550
   25.935    4.3918
   25.950    4.5076
   25.965    4.5392
   25.980    4.3497
   25.995    4.5708
   26.010    4.7815
   26.025    4.5498
   26.040    4.4128
   26.055    4.3602
   26.070    4.0864
   26.085    4.2443
   26.100    4.5603
   26.115    4.4339
   26.130    4.2970
   26.145    4.0442
   26.160    4.3918
   26.175    4.3813
   26.190    4.1180
   26.205    4.1074
   26.220    4.0442
   26.235    4.1496
   26.250    4.4023
   26.265    4.2127
   26.280    4.1917
   26.295    4.4760
   26.310    4.8025
   26.325    4.3286
   26.340    4.2443
   26.355    4.0758
   26.370    4.2338
   26.385    4.4866
   26.400    4.2970
   26.415    4.2549
   26.430    4.2865
   26.445    4.4023
   26.460    4.3707
   26.475    4.5603
   26.490    4.4234
   26.505    4.5498
   26.520    4.4760
   26.535    4.1917
   26.550    4.5182
   26.565    4.3918
   26.580    4.3707
   26.595    4.4655
   26.610    4.3602
   26.625    4.3918
   26.640    4.2865
   26.655    4.1180
   26.670    4.2022
   26.685    4.4866
   26.700    4.5287
   26.715    4.0969
   26.730    4.3602
   26.745    4.5708
   26.760    4.4550
   26.775    4.3181
   26.790    4.2970
   26.805    4.4234
   26.820    4.2233
   26.835    4.2654
   26.850    4.4444
   26.865    4.3181
   26.880    4.4444
   26.895    4.5287
   26.910    4.6551
   26.925    4.5919
   26.940    4.4760
   26.955    4.4444
   26.970    4.2127
   26.985    4.5076
   27.000    4.6235
   27.015    4.5392
   27.030    4.0758
   27.045    4.2970
   27.060    4.3391
   27.075    4.2970
   27.090    4.2338
   27.105    4.0126
   27.120    4.1706
   27.135    4.4339
   27.150    4.5708
   27.165    4.0126
   27.180    4.2970
   27.195    4.1180
   27.210    4.3286
   27.225    4.1601
   27.240    4.2338
   27.255    4.4655
   27.270    4.0864
   27.285    4.3075
   27.300    4.2759
   27.315    4.0442
   27.330    3.9600
   27.345    4.2127
   27.360    4.3286
   27.375    4.2338
   27.390    4.1180
   27.405    4.3497
   27.420    4.0548
   27.435    4.1917
   27.450    4.4023
   27.465    3.7283
   27.480    4.1180
   27.495    4.3286
   27.510    4.3918
   27.525    4.4128
   27.540    4.2443
   27.555    4.3075
   27.570    4.2338
   27.585    4.0758
   27.600    4.2022
   27.615    4.0021
   27.630    4.1180
   27.645    3.9284
   27.660    4.0126
   27.675    4.2443
   27.690    4.2865
   27.705    4.5603
   27.720    4.1706
   27.735    4.4655
   27.750    4.0864
   27.765    4.2865
   27.780    4.1390
   27.795    3.8441
   27.810    4.1917
   27.825    4.3813
   27.840    4.3497
   27.855    4.4128
   27.870    3.9600
   27.885    3.9600
   27.900    4.2127
   27.915    3.9600
   27.930    4.2654
   27.945    4.1601
   27.960    4.1285
   27.975    4.0232
   27.990    4.4128
   28.005    4.4550
   28.020    4.4339
   28.035    4.2233
   28.050    4.4339
   28.065    4.1074
   28.080    4.1811
   28.095    4.0232
   28.110    3.8231
   28.125    4.4023
   28.140    4.3391
   28.155    4.1811
   28.170    3.9916
   28.185    4.2338
   28.200    4.3707
   28.215    4.2338
   28.230    4.3181
   28.245    4.4760
   28.260    4.0126
   28.275    4.2970
   28.290    4.2549
   28.305    4.2654
   28.320    4.1390
   28.335    4.2443
   28.350    4.0758
   28.365    4.2443
   28.380    4.1917
   28.395    4.1285
   28.410    4.3391
   28.425    4.2549
   28.440    4.0337
   28.455    3.7599
   28.470    4.2865
   28.485    4.0232
   28.500    4.1496
   28.515    4.1706
   28.530    4.0442
   28.545    3.9494
   28.560    4.0442
   28.575    4.2654
   28.590    4.3813
   28.605    4.1601
   28.620    4.1811
   28.635    4.0864
   28.650    3.9916
   28.665    4.1390
   28.680    4.1285
   28.695    4.1074
   28.710    3.8968
   28.725    3.9916
   28.740    3.9494
   28.755    4.0548
   28.770    4.0864
   28.785    3.9810
   28.800    4.0758
   28.815    4.1074
   28.830    3.8020
   28.845    4.0442
   28.860    4.0442
   28.875    4.1706
   28.890    4.1706
   28.905    3.8863
   28.920    4.1601
   28.935    3.9916
   28.950    3.9494
   28.965    3.9916
   28.980    3.9810
   28.995    3.9389
   29.010    4.0758
   29.025    4.1180
   29.040    3.9600
   29.055    4.0021
   29.070    3.7704
   29.085    4.2549
   29.100    3.9284
   29.115    4.2549
   29.130    4.3181
   29.145    4.0232
   29.160    4.1917
   29.175    3.8652
   29.190    4.1074
   29.205    4.0653
   29.220    3.8441
   29.235    3.8336
   29.250    3.8125
   29.265    3.9389
   29.280    3.9600
   29.295    4.1811
   29.310    4.0337
   29.325    4.1180
   29.340    4.2127
   29.355    4.0548
   29.370    4.0021
   29.385    4.0653
   29.400    4.0126
   29.415    4.1496
   29.430    3.8968
   29.445    4.2127
   29.460    4.2338
   29.475    4.0021
   29.490    3.9389
   29.505    4.2549
   29.520    4.1074
   29.535    4.1811
   29.550    3.8020
   29.565    4.0337
   29.580    4.1074
   29.595    4.1285
   29.610    4.0442
   29.625    4.0232
   29.640    3.8863
   29.655    3.9073
   29.670    3.9810
   29.685    3.8020
   29.700    3.9705
   29.715    4.0232
   29.730    3.8757
   29.745    3.8441
   29.760    3.8968
   29.775    4.0864
   29.790    3.9916
   29.805    4.0969
   29.820    3.8652
   29.835    3.8020
   29.850    3.9179
   29.865    3.9810
   29.880    3.9600
   29.895    4.1917
   29.910    3.9284
   29.925    3.8231
   29.940    3.6862
   29.955    4.1180
   29.970    3.6967
   29.985    3.9073
   30.000    3.7704
   30.015    3.9179
   30.030    3.8968
   30.045    3.8125
   30.060    3.9179
   30.075    3.8125
   30.090    4.0548
   30.105    3.7283
   30.120    3.7493
   30.135    3.8231
   30.150    3.9494
   30.165    3.9494
   30.180    4.0758
   30.195    3.8336
   30.210    4.0969
   30.225    3.8547
   30.240    3.9389
   30.255    3.7704
   30.270    4.0653
   30.285    3.7915
   30.300    3.7388
   30.315    4.0442
   30.330    4.1074
   30.345    3.6862
   30.360    3.9073
   30.375    4.1074
   30.390    4.0126
   30.405    3.9810
   30.420    3.8547
   30.435    3.9916
   30.450    3.8863
   30.465    3.8231
   30.480    3.7388
   30.495    4.0969
   30.510    3.8336
   30.525    4.1390
   30.540    3.8757
   30.555    3.6230
   30.570    4.1285
   30.585    3.9073
   30.600    3.8863
   30.615    3.7809
   30.630    3.6230
   30.645    3.7388
   30.660    3.7283
   30.675    3.8547
   30.690    3.8547
   30.705    3.8231
   30.720    3.5071
   30.735    3.5914
   30.750    3.6967
   30.765    3.7072
   30.780    3.9389
   30.795    3.7809
   30.810    3.9705
   30.825    3.6862
   30.840    3.6756
   30.855    3.5808
   30.870    3.8125
   30.885    3.6124
   30.900    3.5176
   30.915    3.7809
   30.930    3.9284
   30.945    3.8231
   30.960    3.7809
   30.975    3.4650
   30.990    3.6862
   31.005    3.7493
   31.020    3.8863
   31.035    3.9705
   31.050    3.6546
   31.065    3.6019
   31.080    3.9073
   31.095    3.9179
   31.110    3.7177
   31.125    3.5808
   31.140    3.8020
   31.155    4.0442
   31.170    3.8336
   31.185    3.3913
   31.200    3.7809
   31.215    3.8968
   31.230    4.0126
   31.245    3.7809
   31.260    3.7177
   31.275    3.5808
   31.290    3.6546
   31.305    4.0021
   31.320    3.7493
   31.335    3.6967
   31.350    3.8441
   31.365    3.6967
   31.380    3.9284
   31.395    3.7599
   31.410    3.6546
   31.425    3.4544
   31.440    3.6019
   31.455    3.6230
   31.470    4.0758
   31.485    4.0126
   31.500    3.7809
   31.515    3.9284
   31.530    3.7915
   31.545    3.6862
   31.560    3.7283
   31.575    3.7599
   31.590    3.9179
   31.605    3.6546
   31.620    3.8125
   31.635    3.6546
   31.650    3.7177
   31.665    3.6546
   31.680    3.6124
   31.695    3.7704
   31.710    3.9810
   31.725    3.7599
   31.740    3.8757
   31.755    3.7388
   31.770    3.8441
   31.785    3.7493
   31.800    3.8231
   31.815    4.0548
   31.830    3.8441
   31.845    3.6546
   31.860    3.8231
   31.875    3.5808
   31.890    3.6124
   31.905    3.9600
   31.920    4.0758
   31.935    3.8231
   31.950    3.6862
   31.965    3.7072
   31.980    3.5808
   31.995    3.8336
   32.010    3.5492
   32.025    3.4860
   32.040    3.4544
   32.055    3.6967
   32.070    3.5387
   32.085    3.5176
   32.100    3.6967
   32.115    4.0442
   32.130    3.5282
   32.145    3.6124
   32.160    3.7283
   32.175    3.7915
   32.190    3.6335
   32.205    3.6546
   32.220    4.0126
   32.235    3.7283
   32.250    3.8652
   32.265    3.8547
   32.280    3.7283
   32.295    3.4650
   32.310    3.2438
   32.325    3.3281
   32.340    3.7809
   32.355    3.6651
   32.370    3.3913
   32.385    3.4544
   32.400    3.6124
   32.415    3.5703
   32.430    3.7177
   32.445    3.3491
   32.460    3.7177
   32.475    3.7915
   32.490    3.4544
   32.505    3.6862
   32.520    3.7915
   32.535    3.7809
   32.550    3.5282
   32.565    3.9179
   32.580    3.3281
   32.595    3.5598
   32.610    3.4334
   32.625    3.7915
   32.640    3.7283
   32.655    3.4334
   32.670    3.8863
   32.685    3.4860
   32.700    3.5282
   32.715    3.5176
   32.730    3.5703
   32.745    3.7177
   32.760    3.8020
   32.775    3.5282
   32.790    3.2859
   32.805    3.6440
   32.820    3.7177
   32.835    3.8020
   32.850    3.5071
   32.865    3.6756
   32.880    3.6230
   32.895    3.3702
   32.910    3.4018
   32.925    3.4229
   32.940    3.6019
   32.955    3.5703
   32.970    3.3597
   32.985    3.5071
   33.000    3.5387
   33.015    3.4755
   33.030    3.4439
   33.045    3.6124
   33.060    3.3702
   33.075    3.3702
   33.090    3.6124
   33.105    3.6862
   33.120    3.6335
   33.135    3.4334
   33.150    3.1069
   33.165    3.4123
   33.180    3.3597
   33.195    3.2649
   33.210    3.4123
   33.225    3.4755
   33.240    3.2438
   33.255    3.5914
   33.270    3.7388
   33.285    3.5492
   33.300    3.2438
   33.315    3.3913
   33.330    3.1806
   33.345    3.3281
   33.360    3.4439
   33.375    3.6124
   33.390    3.4860
   33.405    3.5387
   33.420    3.1385
   33.435    3.2754
   33.450    3.1596
   33.465    3.1701
   33.480    3.2543
   33.495    3.3491
   33.510    3.5176
   33.525    3.3175
   33.540    3.3597
   33.555    3.2754
   33.570    3.0648
   33.585    3.3807
   33.600    3.4334
   33.615    3.3702
   33.630    3.1701
   33.645    3.5598
   33.660    3.3175
   33.675    3.2227
   33.690    3.2543
   33.705    3.2438
   33.720    3.2543
   33.735    3.3491
   33.750    3.0648
   33.765    3.5176
   33.780    3.5808
   33.795    3.3702
   33.810    3.2017
   33.825    3.4439
   33.840    3.1806
   33.855    3.6546
   33.870    3.3597
   33.885    3.1174
   33.900    3.2227
   33.915    3.6230
   33.930    3.3175
   33.945    3.1174
   33.960    3.2859
   33.975    3.3702
   33.990    3.1490
   34.005    3.1806
   34.020    3.1069
   34.035    3.2543
   34.050    3.1385
   34.065    3.1069
   34.080    3.2543
   34.095    3.2965
   34.110    3.2965
   34.125    3.2754
   34.140    3.4229
   34.155    3.4439
   34.170    3.3491
   34.185    3.1490
   34.200    3.0648
   34.215    3.1912
   34.230    3.0226
   34.245    3.2017
   34.260    3.0332
   34.275    3.0753
   34.290    3.3491
   34.305    3.0332
   34.320    3.2754
   34.335    3.1490
   34.350    3.1069
   34.365    3.3070
   34.380    3.2649
   34.395    3.3491
   34.410    3.1174
   34.425    3.3702
   34.440    3.0753
   34.455    3.3281
   34.470    3.0437
   34.485    3.0121
   34.500    3.2227
   34.515    3.2754
   34.530    3.2227
   34.545    3.3491
   34.560    2.9279
   34.575    3.3281
   34.590    3.1912
   34.605    2.7699
   34.620    2.9805
   34.635    2.9805
   34.650    3.0648
   34.665    3.0964
   34.680    3.3913
   34.695    3.3807
   34.710    2.9489
   34.725    3.1701
   34.740    2.7909
   34.755    3.0648
   34.770    3.2017
   34.785    3.2754
   34.800    3.3175
   34.815    3.0332
   34.830    3.0437
   34.845    3.2333
   34.860    2.8331
   34.875    3.0016
   34.890    3.2333
   34.905    3.0437
   34.920    2.8225
   34.935    3.0437
   34.950    3.2649
   34.965    3.2333
   34.980    3.1069
   34.995    3.0542
   35.010    3.3175
   35.025    3.3175
   35.040    3.2227
   35.055    3.0016
   35.070    3.0332
   35.085    3.1490
   35.100    3.0648
   35.115    2.8647
   35.130    3.0332
   35.145    3.1701
   35.160    3.1280
   35.175    3.2649
   35.190    3.2333
   35.205    3.5703
   35.220    3.1701
   35.235    3.2543
   35.250    3.3807
   35.265    3.0121
   35.280    2.8015
   35.295    3.2227
   35.310    3.2543
   35.325    2.9384
   35.340    3.1069
   35.355    3.0542
   35.370    3.1385
   35.385    3.0858
   35.400    3.1280
   35.415    3.0542
   35.430    2.7909
   35.445    2.9700
   35.460    2.9489
   35.475    2.8015
   35.490    3.0753
   35.505    3.0964
   35.520    3.1490
   35.535    3.0226
   35.550    3.2754
   35.565    3.2859
   35.580    3.0016
   35.595    3.1174
   35.610    3.0542
   35.625    2.8857
   35.640    3.0016
   35.655    3.1912
   35.670    2.8647
   35.685    2.8120
   35.700    2.9805
   35.715    2.9489
   35.730    3.2649
   35.745    2.8752
   35.760    2.9173
   35.775    2.8225
   35.790    2.9068
   35.805    2.9173
   35.820    2.9805
   35.835    3.2859
   35.850    2.8752
   35.865    2.7067
   35.880    2.8015
   35.895    3.1912
   35.910    3.3913
   35.925    2.9489
   35.940    2.6540
   35.955    2.8120
   35.970    3.0648
   35.985    2.9384
   36.000    2.9489
   36.015    3.0016
   36.030    3.0016
   36.045    2.9910
   36.060    2.6856
   36.075    2.9489
   36.090    2.9068
   36.105    3.0437
   36.120    3.2649
   36.135    2.8541
   36.150    3.0542
   36.165    2.9700
   36.180    2.9279
   36.195    2.8647
   36.210    3.2333
   36.225    2.9173
   36.240    2.8225
   36.255    2.8963
   36.270    2.8015
   36.285    2.9595
   36.300    3.1806
   36.315    2.9805
   36.330    2.8647
   36.345    2.9700
   36.360    2.6856
   36.375    2.8963
   36.390    3.0648
   36.405    2.8752
   36.420    2.8120
   36.435    2.9489
   36.450    3.1280
   36.465    3.0121
   36.480    2.9279
   36.495    2.9068
   36.510    2.9595
   36.525    2.9700
   36.540    2.8015
   36.555    3.2227
   36.570    3.1490
   36.585    2.9173
   36.600    2.8752
   36.615    2.7804
   36.630    2.9279
   36.645    2.8331
   36.660    2.8120
   36.675    2.8015
   36.690    2.7172
   36.705    2.8541
   36.720    2.5276
   36.735    2.4750
   36.750    2.8015
   36.765    2.8541
   36.780    2.7593
   36.795    2.7593
   36.810    3.0016
   36.825    3.0542
   36.840    2.7488
   36.855    2.5276
   36.870    2.8225
   36.885    2.8647
   36.900    2.9700
   36.915    2.7909
   36.930    2.8857
   36.945    2.8015
   36.960    2.7593
   36.975    2.9384
   36.990    2.9700
   37.005    2.8857
   37.020    3.0332
   37.035    2.9595
   37.050    2.7909
   37.065    2.7067
   37.080    2.8857
   37.095    2.8541
   37.110    2.9489
   37.125    3.0016
   37.140    2.8647
   37.155    2.8225
   37.170    2.8015
   37.185    2.8436
   37.200    2.9279
   37.215    2.7593
   37.230    2.9173
   37.245    3.1385
   37.260    2.8963
   37.275    2.9910
   37.290    2.8331
   37.305    2.5908
   37.320    2.8647
   37.335    3.0226
   37.350    2.7488
   37.365    2.6962
   37.380    2.6962
   37.395    2.9279
   37.410    3.0332
   37.425    2.9489
   37.440    2.8015
   37.455    2.7278
   37.470    2.9489
   37.485    2.9489
   37.500    2.8225
   37.515    3.0542
   37.530    2.8752
   37.545    2.6435
   37.560    2.7699
   37.575    2.8225
   37.590    2.7172
   37.605    2.7699
   37.620    2.7383
   37.635    2.8963
   37.650    2.7278
   37.665    2.7278
   37.680    2.9384
   37.695    3.0753
   37.710    2.6646
   37.725    2.7699
   37.740    2.6856
   37.755    2.6119
   37.770    2.6646
   37.785    2.7804
   37.800    2.8331
   37.815    2.7278
   37.830    2.8857
   37.845    2.8436
   37.860    2.7909
   37.875    2.9700
   37.890    2.7909
   37.905    2.8752
   37.920    2.8015
   37.935    2.6962
   37.950    2.6119
   37.965    2.6224
   37.980    2.8225
   37.995    2.7172
   38.010    2.7278
   38.025    2.8857
   38.040    2.8015
   38.055    2.7909
   38.070    2.7067
   38.085    2.6330
   38.100    2.6224
   38.115    3.1385
   38.130    2.8963
   38.145    2.9173
   38.160    2.6856
   38.175    2.7699
   38.190    2.8015
   38.205    2.6224
   38.220    2.5592
   38.235    2.7804
   38.250    2.7804
   38.265    2.7067
   38.280    2.8120
   38.295    2.7909
   38.310    2.6540
   38.325    2.8752
   38.340    2.6435
   38.355    2.8015
   38.370    2.8120
   38.385    2.7172
   38.400    2.8331
   38.415    2.8015
   38.430    2.7593
   38.445    2.8647
   38.460    3.0437
   38.475    2.8541
   38.490    2.5803
   38.505    2.7909
   38.520    2.8752
   38.535    2.6962
   38.550    2.9068
   38.565    2.7383
   38.580    2.8120
   38.595    2.6962
   38.610    2.9279
   38.625    2.8963
   38.640    2.8436
   38.655    2.8647
   38.670    3.0753
   38.685    2.8647
   38.700    2.6962
   38.715    2.6330
   38.730    2.8120
   38.745    2.9173
   38.760    2.6330
   38.775    2.6962
   38.790    2.8015
   38.805    2.8436
   38.820    2.6540
   38.835    2.6435
   38.850    2.7278
   38.865    2.8647
   38.880    2.7909
   38.895    2.7488
   38.910    2.5908
   38.925    2.6751
   38.940    2.3697
   38.955    2.8015
   38.970    2.7067
   38.985    2.8541
   39.000    2.7699
   39.015    2.8541
   39.030    2.7699
   39.045    2.7278
   39.060    2.8752
   39.075    2.8647
   39.090    2.9068
   39.105    2.7804
   39.120    2.9700
   39.135    2.6435
   39.150    2.6330
   39.165    2.5698
   39.180    2.8647
   39.195    2.8541
   39.210    2.6751
   39.225    2.6119
   39.240    2.8120
   39.255    2.8541
   39.270    2.6119
   39.285    2.6856
   39.300    2.7488
   39.315    2.7278
   39.330    2.8541
   39.345    2.6751
   39.360    2.6540
   39.375    2.7278
   39.390    2.5908
   39.405    2.5487
   39.420    2.6014
   39.435    2.7383
   39.450    2.7172
   39.465    2.8436
   39.480    2.9279
   39.495    2.6014
   39.510    2.4223
   39.525    2.5487
   39.540    2.6224
   39.555    2.8541
   39.570    2.6856
   39.585    2.7488
   39.600    2.5066
   39.615    2.4961
   39.630    2.6646
   39.645    2.6224
   39.660    2.6435
   39.675    2.7593
   39.690    2.8225
   39.705    2.8541
   39.720    2.8752
   39.735    2.7278
   39.750    2.7172
   39.765    2.4329
   39.780    2.7383
   39.795    2.6540
   39.810    2.6540
   39.825    2.5908
   39.840    2.5698
   39.855    2.6435
   39.870    3.0016
   39.885    2.9700
   39.900    2.9068
   39.915    2.4855
   39.930    2.3697
   39.945    2.6646
   39.960    2.6119
   39.975    2.7383
   39.990    2.7699
