    1.500   27.7181
    1.515   27.9314
    1.530   27.5048
    1.545   27.0792
    1.560   26.6052
    1.575   26.2243
    1.590   25.8434
    1.605   25.7390
    1.620   25.5327
    1.635   25.1237
    1.650   24.9263
    1.665   24.4760
    1.680   24.1381
    1.695   23.9512
    1.710   23.9389
    1.725   23.6019
    1.740   23.3921
    1.755   23.2078
    1.770   22.9612
    1.785   22.7005
    1.800   22.1239
    1.815   22.0283
    1.830   21.8852
    1.845   21.9238
    1.860   21.4236
    1.875   21.2384
    1.890   21.0944
    1.905   20.8899
    1.920   21.0014
    1.935   21.0040
    1.950   20.7127
    1.965   20.6135
    1.980   20.3265
    1.995   20.2010
    2.010   20.0298
    2.025   20.0105
    2.040   19.9263
    2.055   19.8736
    2.070   19.6630
    2.085   19.6051
    2.100   19.5313
    2.115   19.4286
    2.130   19.3681
    2.145   19.1689
    2.160   19.0302
    2.175   19.0758
    2.190   19.0837
    2.205   18.9942
    2.220   18.7081
    2.235   18.8362
    2.250   18.7283
    2.265   18.7090
    2.280   18.8266
    2.295   18.8002
    2.310   18.8433
    2.325   18.6791
    2.340   18.6019
    2.355   18.5089
    2.370   18.5598
    2.385   18.5729
    2.400   18.7265
    2.415   18.7687
    2.430   18.6844
    2.445   18.7186
    2.460   18.7853
    2.475   18.8450
    2.490   18.8810
    2.505   19.0723
    2.520   19.1592
    2.535   19.2101
    2.550   19.4128
    2.565   19.3576
    2.580   19.3365
    2.595   19.4146
    2.610   19.5384
    2.625   19.6568
    2.640   19.8411
    2.655   19.9587
    2.670   20.0053
    2.685   20.2589
    2.700   20.4002
    2.715   20.2923
    2.730   20.5731
    2.745   20.9321
    2.760   21.0558
    2.775   21.0971
    2.790   21.5921
    2.805   21.6974
    2.820   21.8896
    2.835   22.0379
    2.850   22.2213
    2.865   22.8383
    2.880   22.9805
    2.895   23.1947
    2.910   23.5712
    2.925   23.8204
    2.940   24.3523
    2.955   24.6244
    2.970   24.9772
    2.985   25.4862
    3.000   25.8487
    3.015   26.3683
    3.030   26.6675
    3.045   27.3556
    3.060   27.9331
    3.075   28.0025
    3.090   28.3281
    3.105   29.2127
    3.120   29.9745
    3.135   30.5450
    3.150   31.1041
    3.165   31.8580
    3.180   32.4662
    3.195   33.2210
    3.210   33.9240
    3.225   34.9544
    3.240   35.6512
    3.255   36.8080
    3.270   37.9419
    3.285   38.9170
    3.300   39.9956
    3.315   40.9716
    3.330   42.3328
    3.345   43.8555
    3.360   44.6595
    3.375   46.0304
    3.390   47.3495
    3.405   49.1557
    3.420   51.1761
    3.435   52.7918
    3.450   54.6051
    3.465   56.2691
    3.480   58.4764
    3.495   61.0014
    3.510   63.2701
    3.525   65.7407
    3.540   68.7476
    3.555   71.7149
    3.570   74.5217
    3.585   78.1982
    3.600   82.1055
    3.615   86.5877
    3.630   90.7864
    3.645   95.9610
    3.660  101.3893
    3.675  107.3723
    3.690  114.5972
    3.705  122.3293
    3.720  131.3542
    3.735  142.5487
    3.750  155.0904
    3.765  171.1752
    3.780  192.1266
    3.795  220.9312
    3.810  261.1313
    3.825  299.5357
    3.840  314.4699
    3.855  296.1576
    3.870  250.8083
    3.885  187.2512
    3.900  115.9101
    3.915   58.4430
    3.930   29.7367
    3.945   19.2628
    3.960   15.7802
    3.975   13.7967
    3.990   12.8471
    4.005   12.0572
    4.020   11.4850
    4.035   11.1023
    4.050   10.8601
    4.065   10.7311
    4.080   10.4801
    4.095   10.3063
    4.110   10.2414
    4.125   10.0167
    4.140   10.0184
    4.155    9.8315
    4.170    9.7911
    4.185    9.7771
    4.200    9.7148
    4.215    9.7560
    4.230    9.7630
    4.245    9.5305
    4.260    9.5340
    4.275    9.6498
    4.290    9.5761
    4.305    9.5936
    4.320    9.6507
    4.335    9.5269
    4.350    9.6876
    4.365    9.6235
    4.380    9.5963
    4.395    9.5822
    4.410    9.5963
    4.425    9.6524
    4.440    9.5533
    4.455    9.5761
    4.470    9.4901
    4.485    9.6595
    4.500    9.7060
    4.515    9.6700
    4.530    9.6182
    4.545    9.7420
    4.560    9.8104
    4.575    9.9245
    4.590    9.8508
    4.605    9.9377
    4.620   10.0474
    4.635   10.0764
    4.650   10.1202
    4.665   10.0667
    4.680   10.0114
    4.695   10.1413
    4.710   10.3037
    4.725   10.4774
    4.740   10.5231
    4.755   10.5055
    4.770   10.6898
    4.785   10.8425
    4.800   10.8891
    4.815   11.1418
    4.830   11.2471
    4.845   11.3937
    4.860   11.3876
    4.875   11.7053
    4.890   11.8053
    4.905   12.0063
    4.920   12.3942
    4.935   12.4293
    4.950   12.4732
    4.965   12.8576
    4.980   13.0823
    4.995   13.0077
    5.010   13.5141
    5.025   13.9056
    5.040   14.1601
    5.055   14.4128
    5.070   14.8596
    5.085   15.3037
    5.100   15.8180
    5.115   16.1436
    5.130   16.5903
    5.145   17.1819
    5.160   17.5671
    5.175   18.2464
    5.190   19.1250
    5.205   19.7692
    5.220   20.5389
    5.235   21.4165
    5.250   22.4092
    5.265   23.3825
    5.280   24.7104
    5.295   26.1295
    5.310   27.7339
    5.325   29.6524
    5.340   31.5789
    5.355   33.7792
    5.370   36.7386
    5.385   40.3616
    5.400   44.9535
    5.415   50.9382
    5.430   59.7727
    5.445   68.5229
    5.460   72.6681
    5.475   69.1689
    5.490   60.6240
    5.505   47.6022
    5.520   32.6496
    5.535   20.1755
    5.550   13.3992
    5.565   10.5257
    5.580    9.4076
    5.595    9.0793
    5.610    8.7379
    5.625    8.5264
    5.640    8.5413
    5.655    8.3702
    5.670    8.3842
    5.685    8.3210
    5.700    8.0858
    5.715    8.2254
    5.730    8.1560
    5.745    8.2473
    5.760    8.0630
    5.775    7.9717
    5.790    8.0463
    5.805    8.1332
    5.820    8.0490
    5.835    8.0814
    5.850    8.0007
    5.865    7.9674
    5.880    7.9761
    5.895    7.9375
    5.910    8.0165
    5.925    7.9840
    5.940    7.9252
    5.955    7.9831
    5.970    7.9050
    5.985    8.0104
    6.000    7.9445
    6.015    7.9121
    6.030    8.1087
    6.045    7.8576
    6.060    7.8410
    6.075    8.0042
    6.090    8.0218
    6.105    7.9305
    6.120    7.9094
    6.135    7.9998
    6.150    8.1288
    6.165    8.1166
    6.180    7.9428
    6.195    7.9726
    6.210    8.1148
    6.225    8.0788
    6.240    8.0893
    6.255    8.1253
    6.270    8.0920
    6.285    8.0367
    6.300    8.1850
    6.315    8.2377
    6.330    8.2412
    6.345    8.3623
    6.360    8.2306
    6.375    8.2464
    6.390    8.3632
    6.405    8.4343
    6.420    8.4992
    6.435    8.4860
    6.450    8.4773
    6.465    8.6098
    6.480    8.8038
    6.495    8.8494
    6.510    8.8204
    6.525    9.0012
    6.540    9.1302
    6.555    9.3286
    6.570    9.4971
    6.585    9.7507
    6.600    9.9438
    6.615   10.2001
    6.630   10.5652
    6.645   10.9988
    6.660   11.5570
    6.675   12.4873
    6.690   13.1376
    6.705   13.6563
    6.720   13.3790
    6.735   12.7199
    6.750   11.5341
    6.765   10.1071
    6.780    8.8441
    6.795    8.2192
    6.810    7.7918
    6.825    7.8059
    6.840    7.8928
    6.855    7.8699
    6.870    7.9419
    6.885    7.9217
    6.900    7.7453
    6.915    7.8778
    6.930    7.8278
    6.945    7.7383
    6.960    7.7462
    6.975    7.7892
    6.990    7.9507
    7.005    7.8067
    7.020    7.8322
    7.035    7.9647
    7.050    7.9077
    7.065    8.0174
    7.080    7.9507
    7.095    7.9428
    7.110    8.0595
    7.125    8.0314
    7.140    8.0630
    7.155    8.0621
    7.170    8.0191
    7.185    8.2658
    7.200    8.2579
    7.215    8.2965
    7.230    8.4106
    7.245    8.3877
    7.260    8.4193
    7.275    8.5940
    7.290    8.6124
    7.305    8.7871
    7.320    8.9240
    7.335    8.9626
    7.350    9.2180
    7.365    9.3628
    7.380    9.3005
    7.395    9.6094
    7.410    9.8429
    7.425    9.9702
    7.440   10.1948
    7.455   10.4248
    7.470   10.5950
    7.485   11.0067
    7.500   11.3498
    7.515   11.6430
    7.530   12.1590
    7.545   12.5645
    7.560   13.2017
    7.575   13.6221
    7.590   14.3374
    7.605   15.0272
    7.620   15.8417
    7.635   16.9028
    7.650   18.1675
    7.665   19.5638
    7.680   21.6105
    7.695   23.7678
    7.710   26.8036
    7.725   31.2349
    7.740   34.9245
    7.755   36.9045
    7.770   36.1418
    7.785   32.4171
    7.800   26.2498
    7.815   19.4365
    7.830   13.7520
    7.845   10.1360
    7.860    8.6273
    7.875    8.0665
    7.890    7.7672
    7.905    7.6558
    7.920    7.6417
    7.935    7.6198
    7.950    7.5162
    7.965    7.3311
    7.980    7.3653
    7.995    7.4293
    8.010    7.4302
    8.025    7.4004
    8.040    7.3846
    8.055    7.4662
    8.070    7.3644
    8.085    7.3574
    8.100    7.3978
    8.115    7.2863
    8.130    7.3170
    8.145    7.2942
    8.160    7.2880
    8.175    7.3723
    8.190    7.4846
    8.205    7.3284
    8.220    7.3776
    8.235    7.5031
    8.250    7.4978
    8.265    7.3916
    8.280    7.4846
    8.295    7.6040
    8.310    7.5382
    8.325    7.5048
    8.340    7.6646
    8.355    7.6725
    8.370    7.7593
    8.385    7.8076
    8.400    7.7383
    8.415    7.9015
    8.430    7.9805
    8.445    7.9700
    8.460    8.0727
    8.475    8.2087
    8.490    8.3158
    8.505    8.3649
    8.520    8.3763
    8.535    8.5387
    8.550    8.8406
    8.565    9.1610
    8.580    9.3663
    8.595    9.7042
    8.610   10.2036
    8.625   10.7249
    8.640   11.4815
    8.655   12.4206
    8.670   13.2886
    8.685   13.3439
    8.700   12.9770
    8.715   12.1029
    8.730   10.8092
    8.745    9.4453
    8.760    8.2895
    8.775    7.6251
    8.790    7.4425
    8.805    7.3670
    8.820    7.3978
    8.835    7.3855
    8.850    7.4372
    8.865    7.4609
    8.880    7.3802
    8.895    7.4136
    8.910    7.4671
    8.925    7.4618
    8.940    7.6488
    8.955    7.6338
    8.970    7.7005
    8.985    7.6303
    9.000    7.8805
    9.015    8.0086
    9.030    8.0183
    9.045    8.2508
    9.060    8.2649
    9.075    8.4430
    9.090    8.6765
    9.105    8.7695
    9.120    8.9477
    9.135    9.0477
    9.150    9.3962
    9.165    9.5778
    9.180    9.8139
    9.195   10.2054
    9.210   10.5643
    9.225   10.9224
    9.240   11.4350
    9.255   11.8747
    9.270   12.4329
    9.285   13.2061
    9.300   13.6423
    9.315   14.5805
    9.330   15.3958
    9.345   16.3542
    9.360   17.4838
    9.375   18.9530
    9.390   20.2949
    9.405   22.2415
    9.420   24.7297
    9.435   27.1792
    9.450   31.0154
    9.465   35.8820
    9.480   42.3960
    9.495   49.5498
    9.510   54.9816
    9.525   55.6012
    9.540   51.9212
    9.555   44.1355
    9.570   33.7493
    9.585   23.2061
    9.600   15.2370
    9.615   10.6284
    9.630    8.8573
    9.645    8.2772
    9.660    7.9200
    9.675    7.5979
    9.690    7.5031
    9.705    7.3363
    9.720    7.3925
    9.735    7.2986
    9.750    7.2775
    9.765    7.1599
    9.780    7.2512
    9.795    7.2696
    9.810    7.1775
    9.825    7.2407
    9.840    7.1810
    9.855    7.1371
    9.870    7.1371
    9.885    7.1573
    9.900    7.1441
    9.915    7.2371
    9.930    7.2731
    9.945    7.2257
    9.960    7.3872
    9.975    7.4653
    9.990    7.5031
   10.005    7.5496
   10.020    7.5900
   10.035    7.6137
   10.050    7.6891
   10.065    7.6540
   10.080    7.9358
   10.095    8.0016
   10.110    8.2543
   10.125    8.2561
   10.140    8.4316
   10.155    8.5685
   10.170    8.7221
   10.185    9.1689
   10.200    9.6191
   10.215    9.9824
   10.230   10.5819
   10.245   11.3990
   10.260   12.3337
   10.275   13.2122
   10.290   13.4316
   10.305   13.2877
   10.320   12.4952
   10.335   11.0532
   10.350    9.6138
   10.365    8.4922
   10.380    7.6189
   10.395    7.2573
   10.410    7.0792
   10.425    7.0397
   10.440    7.1415
   10.455    6.9870
   10.470    6.8984
   10.485    6.9844
   10.500    7.0915
   10.515    7.0151
   10.530    7.0599
   10.545    7.1476
   10.560    7.1309
   10.575    7.1239
   10.590    7.1643
   10.605    7.1783
   10.620    7.1775
   10.635    7.1950
   10.650    7.3626
   10.665    7.4618
   10.680    7.4478
   10.695    7.5487
   10.710    7.7049
   10.725    7.8111
   10.740    7.8427
   10.755    8.0384
   10.770    8.2798
   10.785    8.2535
   10.800    8.4904
   10.815    8.8880
   10.830    9.1750
   10.845    9.3918
   10.860    9.7929
   10.875   10.1466
   10.890   10.7767
   10.905   11.4666
   10.920   12.2073
   10.935   13.0885
   10.950   14.5050
   10.965   16.2296
   10.980   18.3184
   10.995   19.9684
   11.010   20.5547
   11.025   20.0456
   11.040   17.9182
   11.055   15.1668
   11.070   12.2459
   11.085    9.7481
   11.100    8.2324
   11.115    7.3942
   11.130    7.2152
   11.145    7.0704
   11.160    6.9501
   11.175    6.9817
   11.190    6.9501
   11.205    6.9194
   11.220    6.8931
   11.235    6.7650
   11.250    6.8905
   11.265    7.0335
   11.280    7.0283
   11.295    7.1792
   11.310    7.0484
   11.325    7.0484
   11.340    7.1503
   11.355    7.1661
   11.370    7.3091
   11.385    7.2784
   11.400    7.4794
   11.415    7.4732
   11.430    7.6610
   11.445    7.7927
   11.460    7.8761
   11.475    8.0560
   11.490    8.0709
   11.505    8.2350
   11.520    8.5255
   11.535    8.7976
   11.550    9.1109
   11.565    9.6147
   11.580   10.3151
   11.595   10.7039
   11.610   11.3209
   11.625   12.2863
   11.640   13.7423
   11.655   15.2966
   11.670   16.3463
   11.685   16.6904
   11.700   16.3261
   11.715   14.7341
   11.730   12.8717
   11.745   10.8232
   11.760    8.9512
   11.775    7.7883
   11.790    7.3030
   11.805    6.9782
   11.820    6.9519
   11.835    6.8045
   11.850    6.8589
   11.865    6.8992
   11.880    6.8975
   11.895    6.8290
   11.910    6.9089
   11.925    6.9308
   11.940    6.7816
   11.955    6.8896
   11.970    6.8246
   11.985    6.8668
   12.000    6.7930
   12.015    6.9186
   12.030    6.7465
   12.045    6.9124
   12.060    6.8194
   12.075    6.9317
   12.090    6.8088
   12.105    6.9107
   12.120    7.0063
   12.135    6.9651
   12.150    6.9212
   12.165    7.0528
   12.180    7.1696
   12.195    7.1248
   12.210    7.2740
   12.225    7.2687
   12.240    7.5136
   12.255    7.6303
   12.270    7.7111
   12.285    7.9972
   12.300    8.3632
   12.315    8.4571
   12.330    8.4290
   12.345    8.3886
   12.360    8.0621
   12.375    7.6540
   12.390    7.4127
   12.405    7.0809
   12.420    6.8817
   12.435    6.8018
   12.450    6.7650
   12.465    6.7079
   12.480    6.6833
   12.495    6.6658
   12.510    6.8334
   12.525    6.7650
   12.540    6.8273
   12.555    6.8580
   12.570    6.9273
   12.585    6.7852
   12.600    6.8562
   12.615    6.8729
   12.630    6.9186
   12.645    6.9554
   12.660    7.0502
   12.675    7.0520
   12.690    7.1380
   12.705    7.3021
   12.720    7.3416
   12.735    7.4329
   12.750    7.4065
   12.765    7.5101
   12.780    7.6277
   12.795    7.8664
   12.810    8.0709
   12.825    8.2403
   12.840    8.5694
   12.855    8.9916
   12.870    9.6314
   12.885   10.2861
   12.900   11.1287
   12.915   11.7316
   12.930   11.8940
   12.945   11.6596
   12.960   10.9839
   12.975    9.9754
   12.990    8.9100
   13.005    8.0156
   13.020    7.2705
   13.035    6.9028
   13.050    6.8317
   13.065    6.7141
   13.080    6.7694
   13.095    6.8536
   13.110    6.6956
   13.125    6.6895
   13.140    6.6333
   13.155    6.5956
   13.170    6.8124
   13.185    6.8606
   13.200    6.9080
   13.215    6.7808
   13.230    6.8141
   13.245    6.8097
   13.260    6.7922
   13.275    6.8694
   13.290    6.7500
   13.305    6.8562
   13.320    6.9168
   13.335    6.9800
   13.350    7.0028
   13.365    6.9344
   13.380    7.0502
   13.395    7.2117
   13.410    7.2512
   13.425    7.3556
   13.440    7.4381
   13.455    7.6909
   13.470    7.8726
   13.485    8.1569
   13.500    8.3614
   13.515    8.3886
   13.530    8.2851
   13.545    8.0586
   13.560    7.7400
   13.575    7.3512
   13.590    7.0853
   13.605    7.0177
   13.620    6.9168
   13.635    6.8071
   13.650    6.7070
   13.665    6.7176
   13.680    6.7413
   13.695    6.7018
   13.710    6.7694
   13.725    6.7834
   13.740    6.8167
   13.755    6.9361
   13.770    6.8887
   13.785    6.9545
   13.800    6.8975
   13.815    6.9774
   13.830    7.0994
   13.845    7.2328
   13.860    7.3223
   13.875    7.3319
   13.890    7.4355
   13.905    7.5522
   13.920    7.7400
   13.935    7.8471
   13.950    8.1402
   13.965    8.2991
   13.980    8.7704
   13.995    9.0864
   14.010    9.7253
   14.025   10.4889
   14.040   11.1181
   14.055   11.6491
   14.070   11.8352
   14.085   11.5534
   14.100   10.9593
   14.115    9.9666
   14.130    8.7994
   14.145    7.9068
   14.160    7.2661
   14.175    7.0204
   14.190    6.7176
   14.205    6.8352
   14.220    6.8001
   14.235    6.6930
   14.250    6.7483
   14.265    6.6886
   14.280    6.7237
   14.295    6.7755
   14.310    6.8185
   14.325    6.7720
   14.340    6.6193
   14.355    6.7158
   14.370    6.7930
   14.385    6.6693
   14.400    6.7439
   14.415    6.7272
   14.430    6.6877
   14.445    6.7597
   14.460    6.7957
   14.475    6.6263
   14.490    6.7509
   14.505    6.7650
   14.520    6.8018
   14.535    6.6412
   14.550    6.6623
   14.565    6.7536
   14.580    6.7597
   14.595    6.6833
   14.610    6.6245
   14.625    6.7158
   14.640    6.6324
   14.655    6.5254
   14.670    6.6772
   14.685    6.6640
   14.700    6.5701
   14.715    6.6482
   14.730    6.7237
   14.745    6.7070
   14.760    6.7922
   14.775    6.6351
   14.790    6.7299
   14.805    6.8088
   14.820    6.6956
   14.835    6.8694
   14.850    6.7439
   14.865    6.7167
   14.880    6.7729
   14.895    6.8676
   14.910    6.9063
   14.925    6.8404
   14.940    6.9449
   14.955    6.9853
   14.970    6.9914
   14.985    6.9458
   15.000    6.9580
   15.015    7.2029
   15.030    7.2082
   15.045    7.4803
   15.060    7.5241
   15.075    7.7383
   15.090    7.8857
   15.105    8.0735
   15.120    8.0972
   15.135    8.0885
   15.150    7.9744
   15.165    7.6847
   15.180    7.4583
   15.195    7.1906
   15.210    7.1459
   15.225    6.8852
   15.240    6.7290
   15.255    6.6623
   15.270    6.6096
   15.285    6.7246
   15.300    6.6052
   15.315    6.6702
   15.330    6.7070
   15.345    6.6895
   15.360    6.6912
   15.375    6.7799
   15.390    6.6491
   15.405    6.5798
   15.420    6.8071
   15.435    6.7457
   15.450    6.6544
   15.465    6.7878
   15.480    6.6983
   15.495    6.6395
   15.510    6.8036
   15.525    6.6614
   15.540    6.8334
   15.555    6.8843
   15.570    6.7597
   15.585    6.8045
   15.600    6.8387
   15.615    6.9466
   15.630    6.8510
   15.645    6.7781
   15.660    6.7395
   15.675    6.8694
   15.690    6.7720
   15.705    6.8422
   15.720    6.7132
   15.735    6.7623
   15.750    6.7062
   15.765    6.8001
   15.780    6.7720
   15.795    6.7272
   15.810    6.8001
   15.825    6.7167
   15.840    6.8782
   15.855    6.8325
   15.870    6.8062
   15.885    6.9589
   15.900    6.9150
   15.915    6.9984
   15.930    7.0116
   15.945    7.0458
   15.960    7.2477
   15.975    7.3232
   15.990    7.4583
   16.005    7.6453
   16.020    7.8963
   16.035    8.1499
   16.050    8.5589
   16.065    9.1381
   16.080    9.5357
   16.095    9.8701
   16.110   10.1123
   16.125    9.8894
   16.140    9.2382
   16.155    8.9091
   16.170    8.2315
   16.185    7.5926
   16.200    7.2477
   16.215    6.9817
   16.230    6.9484
   16.245    6.7483
   16.260    6.7325
   16.275    6.7790
   16.290    6.7290
   16.305    6.8685
   16.320    6.7518
   16.335    6.7869
   16.350    6.9071
   16.365    6.8510
   16.380    6.6807
   16.395    6.7579
   16.410    6.7395
   16.425    6.8834
   16.440    6.9229
   16.455    7.0195
   16.470    6.8896
   16.485    7.0107
   16.500    6.9265
   16.515    6.9879
   16.530    7.1968
   16.545    7.2301
   16.560    7.3161
   16.575    7.2828
   16.590    7.3881
   16.605    7.4127
   16.620    7.2091
   16.635    7.2845
   16.650    7.0344
   16.665    6.8791
   16.680    6.9545
   16.695    6.9221
   16.710    6.8264
   16.725    6.8387
   16.740    6.9080
   16.755    7.0414
   16.770    7.1178
   16.785    7.2091
   16.800    7.2652
   16.815    7.3697
   16.830    7.3881
   16.845    7.5154
   16.860    7.6453
   16.875    7.8910
   16.890    8.0253
   16.905    8.3798
   16.920    8.8152
   16.935    9.2979
   16.950    9.8174
   16.965   10.5196
   16.980   11.5719
   16.995   12.9138
   17.010   13.9117
   17.025   14.8754
   17.040   15.1580
   17.055   14.9719
   17.070   14.0653
   17.085   12.8497
   17.100   11.3858
   17.115    9.7551
   17.130    8.4466
   17.145    7.6549
   17.160    6.9826
   17.175    6.9528
   17.190    7.0546
   17.205    6.9545
   17.220    6.9616
   17.235    6.9756
   17.250    6.9616
   17.265    6.9774
   17.280    6.8826
   17.295    6.9229
   17.310    6.9659
   17.325    6.8843
   17.340    7.0432
   17.355    7.0932
   17.370    7.2819
   17.385    7.2775
   17.400    7.4153
   17.415    7.4741
   17.430    7.6698
   17.445    7.8585
   17.460    8.0305
   17.475    8.2824
   17.490    8.2359
   17.505    8.2017
   17.520    8.0744
   17.535    7.8155
   17.550    7.5118
   17.565    7.3793
   17.580    7.1151
   17.595    7.0195
   17.610    7.0484
   17.625    6.8852
   17.640    6.8343
   17.655    6.9229
   17.670    6.8290
   17.685    6.9080
   17.700    7.0397
   17.715    6.9800
   17.730    6.9835
   17.745    7.0081
   17.760    6.9668
   17.775    6.9387
   17.790    7.1090
   17.805    7.1353
   17.820    7.2854
   17.835    7.3837
   17.850    7.4996
   17.865    7.7242
   17.880    7.9164
   17.895    8.0639
   17.910    8.1446
   17.925    8.2438
   17.940    8.2043
   17.955    7.9902
   17.970    7.8647
   17.985    7.8041
   18.000    7.4715
   18.015    7.3635
   18.030    7.2020
   18.045    7.1573
   18.060    7.0941
   18.075    7.2099
   18.090    6.9940
   18.105    6.8905
   18.120    6.8913
   18.135    7.0116
   18.150    7.0160
   18.165    6.9554
   18.180    7.1652
   18.195    7.0063
   18.210    6.9616
   18.225    7.0300
   18.240    7.0528
   18.255    7.0730
   18.270    7.0862
   18.285    7.1239
   18.300    7.3539
   18.315    7.4741
   18.330    7.6303
   18.345    7.5022
   18.360    7.5443
   18.375    7.4750
   18.390    7.4487
   18.405    7.2371
   18.420    7.1309
   18.435    6.9967
   18.450    6.9695
   18.465    6.9229
   18.480    6.8747
   18.495    6.8545
   18.510    6.8203
   18.525    6.8501
   18.540    6.9335
   18.555    6.8009
   18.570    6.9554
   18.585    6.9896
   18.600    6.9317
   18.615    6.8676
   18.630    6.9738
   18.645    6.9879
   18.660    6.9949
   18.675    6.9554
   18.690    6.9668
   18.705    7.0985
   18.720    7.1362
   18.735    7.2292
   18.750    7.4258
   18.765    7.3214
   18.780    7.3705
   18.795    7.3144
   18.810    7.2047
   18.825    7.1704
   18.840    7.0704
   18.855    6.9256
   18.870    6.8992
   18.885    6.8992
   18.900    6.9984
   18.915    6.8685
   18.930    6.7641
   18.945    6.7571
   18.960    6.6456
   18.975    6.8159
   18.990    6.7974
   19.005    6.7579
   19.020    6.7843
   19.035    6.9405
   19.050    6.7351
   19.065    6.6974
   19.080    6.8475
   19.095    6.7711
   19.110    6.8203
   19.125    6.8966
   19.140    6.9686
   19.155    6.8062
   19.170    6.8045
   19.185    7.0177
   19.200    6.9449
   19.215    6.8703
   19.230    6.8413
   19.245    6.7781
   19.260    6.7913
   19.275    6.8159
   19.290    6.8378
   19.305    6.8404
   19.320    6.8826
   19.335    6.7904
   19.350    6.8905
   19.365    6.9387
   19.380    7.0054
   19.395    6.9738
   19.410    7.1810
   19.425    7.1661
   19.440    7.2231
   19.455    7.4372
   19.470    7.4557
   19.485    7.6584
   19.500    7.7883
   19.515    8.0964
   19.530    8.3869
   19.545    8.8678
   19.560    9.1890
   19.575    9.2566
   19.590    9.3874
   19.605    9.1768
   19.620    8.7423
   19.635    8.5080
   19.650    7.9612
   19.665    7.5268
   19.680    7.2363
   19.695    6.9800
   19.710    6.9335
   19.725    6.9133
   19.740    6.9370
   19.755    6.8422
   19.770    6.7035
   19.785    6.7825
   19.800    6.9133
   19.815    6.8922
   19.830    6.9888
   19.845    6.9142
   19.860    6.9089
   19.875    7.0300
   19.890    7.2442
   19.905    7.2810
   19.920    7.3319
   19.935    7.3170
   19.950    7.3600
   19.965    7.5724
   19.980    7.6295
   19.995    7.5101
   20.010    7.3705
   20.025    7.3214
   20.040    7.1731
   20.055    7.1731
   20.070    7.0537
   20.085    6.9765
   20.100    6.9659
   20.115    7.0230
   20.130    6.9624
   20.145    7.0730
   20.160    7.0827
   20.175    7.1538
   20.190    7.1204
   20.205    7.2617
   20.220    7.3969
   20.235    7.4618
   20.250    7.7172
   20.265    7.8910
   20.280    8.2851
   20.295    8.6897
   20.310    9.2400
   20.325    9.6042
   20.340   10.0641
   20.355   10.1123
   20.370   10.0465
   20.385    9.9289
   20.400    9.5226
   20.415    9.1355
   20.430    8.4255
   20.445    7.8770
   20.460    7.3986
   20.475    7.0309
   20.490    7.0011
   20.505    6.9844
   20.520    6.8290
   20.535    6.7948
   20.550    6.7799
   20.565    6.7623
   20.580    6.7439
   20.595    6.8712
   20.610    6.7843
   20.625    6.7904
   20.640    6.9405
   20.655    6.8834
   20.670    6.8922
   20.685    6.8834
   20.700    7.0107
   20.715    7.0897
   20.730    7.0546
   20.745    7.0458
   20.760    6.9352
   20.775    7.0116
   20.790    6.9844
   20.805    6.9835
   20.820    6.8527
   20.835    6.8887
   20.850    6.9089
   20.865    6.9159
   20.880    6.8097
   20.895    6.8413
   20.910    6.8325
   20.925    6.7694
   20.940    6.9133
   20.955    6.9361
   20.970    6.8870
   20.985    6.9308
   21.000    6.9221
   21.015    6.9001
   21.030    6.8150
   21.045    6.9300
   21.060    6.9300
   21.075    6.7299
   21.090    6.8176
   21.105    6.8062
   21.120    6.9528
   21.135    6.8369
   21.150    6.8141
   21.165    6.8413
   21.180    6.8922
   21.195    6.8088
   21.210    6.8773
   21.225    6.7790
   21.240    6.7667
   21.255    6.7395
   21.270    6.8861
   21.285    6.9256
   21.300    6.7974
   21.315    6.7974
   21.330    6.8712
   21.345    6.8273
   21.360    6.8387
   21.375    6.8124
   21.390    6.7176
   21.405    6.7948
   21.420    6.8905
   21.435    6.8905
   21.450    6.8466
   21.465    6.8598
   21.480    6.8045
   21.495    6.8246
   21.510    6.8843
   21.525    6.8273
   21.540    6.9756
   21.555    6.9475
   21.570    6.8940
   21.585    6.8431
   21.600    6.9616
   21.615    6.9273
   21.630    7.0195
   21.645    6.9703
   21.660    6.9651
   21.675    6.9624
   21.690    7.0704
   21.705    7.1204
   21.720    7.2187
   21.735    7.2696
   21.750    7.3100
   21.765    7.4925
   21.780    7.7128
   21.795    7.9674
   21.810    8.1394
   21.825    8.2298
   21.840    8.3009
   21.855    8.2965
   21.870    8.1411
   21.885    7.9217
   21.900    7.6453
   21.915    7.4899
   21.930    7.3925
   21.945    7.0581
   21.960    7.0695
   21.975    7.0397
   21.990    6.9493
   22.005    6.9247
   22.020    6.9045
   22.035    7.0730
   22.050    7.1108
   22.065    7.1406
   22.080    7.1424
   22.095    7.2407
   22.110    7.4478
   22.125    7.5048
   22.140    7.7155
   22.155    7.9173
   22.170    8.1078
   22.185    8.1139
   22.200    8.0841
   22.215    8.1130
   22.230    8.0534
   22.245    7.7971
   22.260    7.6058
   22.275    7.3969
   22.290    7.1906
   22.305    7.1643
   22.320    7.2872
   22.335    7.4065
   22.350    7.2521
   22.365    7.2749
   22.380    7.5610
   22.395    7.8418
   22.410    8.1885
   22.425    8.4193
   22.440    8.7037
   22.455    9.4269
   22.470   10.2177
   22.485   11.1936
   22.500   11.8404
   22.515   12.7980
   22.530   13.3395
   22.545   13.5580
   22.560   13.2903
   22.575   12.8111
   22.590   11.9291
   22.605   11.1181
   22.620    9.9596
   22.635    9.0249
   22.650    8.1060
   22.665    7.7690
   22.680    7.6031
   22.695    7.4232
   22.710    7.4144
   22.725    7.4539
   22.740    7.6716
   22.755    7.8594
   22.770    8.0656
   22.785    8.3965
   22.800    8.9609
   22.815    9.4813
   22.830   10.4020
   22.845   11.3156
   22.860   11.7641
   22.875   12.3477
   22.890   12.5224
   22.905   12.3688
   22.920   11.9028
   22.935   10.9768
   22.950   10.1255
   22.965    9.3576
   22.980    8.5141
   22.995    7.9761
   23.010    7.4355
   23.025    7.3626
   23.040    7.1388
   23.055    7.0678
   23.070    7.0730
   23.085    7.2178
   23.100    7.1862
   23.115    7.3328
   23.130    7.4118
   23.145    7.5268
   23.160    7.7251
   23.175    8.0200
   23.190    8.1938
   23.205    8.1912
   23.220    8.2280
   23.235    8.3623
   23.250    8.3939
   23.265    8.0814
   23.280    7.8269
   23.295    7.5803
   23.310    7.3670
   23.325    7.2521
   23.340    7.1459
   23.355    7.1432
   23.370    6.9563
   23.385    7.1713
   23.400    7.0011
   23.415    7.0484
   23.430    7.2503
   23.445    7.1582
   23.460    7.2424
   23.475    7.3714
   23.490    7.6031
   23.505    7.6988
   23.520    7.8541
   23.535    8.0332
   23.550    8.0446
   23.565    8.1508
   23.580    8.0692
   23.595    7.8822
   23.610    7.7357
   23.625    7.4978
   23.640    7.3600
   23.655    7.3363
   23.670    7.1309
   23.685    7.0072
   23.700    7.0923
   23.715    6.9642
   23.730    6.9835
   23.745    7.0221
   23.760    7.1643
   23.775    7.3346
   23.790    7.4276
   23.805    7.6058
   23.820    7.8375
   23.835    8.3052
   23.850    8.4755
   23.865    8.7967
   23.880    9.0986
   23.895    9.0890
   23.910    9.1223
   23.925    8.8002
   23.940    8.7028
   23.955    8.3404
   23.970    7.9331
   23.985    7.4996
   24.000    7.2600
   24.015    7.2565
   24.030    7.0520
   24.045    6.9563
   24.060    6.8203
   24.075    6.8720
   24.090    6.8440
   24.105    6.9300
   24.120    6.8913
   24.135    7.0634
   24.150    7.0502
   24.165    7.2196
   24.180    7.2091
   24.195    7.3407
   24.210    7.4258
   24.225    7.3214
   24.240    7.2880
   24.255    7.3547
   24.270    7.3144
   24.285    7.0923
   24.300    6.9282
   24.315    6.8440
   24.330    6.8141
   24.345    6.8606
   24.360    6.8185
   24.375    6.8422
   24.390    6.8071
   24.405    6.7808
   24.420    6.8878
   24.435    6.9431
   24.450    6.9949
   24.465    7.1318
   24.480    7.1608
   24.495    7.2301
   24.510    7.3486
   24.525    7.5162
   24.540    7.5417
   24.555    7.4609
   24.570    7.3337
   24.585    7.2880
   24.600    7.2108
   24.615    7.1222
   24.630    7.0011
   24.645    6.9747
   24.660    6.8764
   24.675    6.8571
   24.690    6.7474
   24.705    6.8606
   24.720    6.7764
   24.735    6.8466
   24.750    6.8483
   24.765    6.7930
   24.780    6.9247
   24.795    6.9458
   24.810    6.9361
   24.825    7.0476
   24.840    7.0326
   24.855    6.9738
   24.870    7.0757
   24.885    7.0397
   24.900    6.9203
   24.915    6.9791
   24.930    6.8492
   24.945    6.8580
   24.960    6.8325
   24.975    6.7764
   24.990    6.7500
   25.005    6.8097
   25.020    6.8246
   25.035    6.7650
   25.050    6.7658
   25.065    6.8062
   25.080    6.8896
   25.095    7.0748
   25.110    7.3556
   25.125    7.3223
   25.140    7.4478
   25.155    7.5276
   25.170    7.6716
   25.185    7.5487
   25.200    7.6830
   25.215    7.4337
   25.230    7.2828
   25.245    7.2082
   25.260    6.9826
   25.275    6.9853
   25.290    6.8957
   25.305    6.9563
   25.320    6.8729
   25.335    6.8027
   25.350    6.7852
   25.365    6.8712
   25.380    6.9844
   25.395    6.8685
   25.410    7.0748
   25.425    7.1810
   25.440    7.3021
   25.455    7.3539
   25.470    7.4741
   25.485    7.5101
   25.500    7.4250
   25.515    7.5224
   25.530    7.3293
   25.545    7.2916
   25.560    7.1669
   25.575    7.1450
   25.590    7.0116
   25.605    7.0335
   25.620    7.0467
   25.635    7.0537
   25.650    7.2178
   25.665    7.5180
   25.680    7.6128
   25.695    8.0077
   25.710    8.4843
   25.725    9.0960
   25.740    9.8017
   25.755   10.3976
   25.770   11.0365
   25.785   11.2436
   25.800   11.4903
   25.815   11.2498
   25.830   10.8794
   25.845   10.3405
   25.860    9.8253
   25.875    9.1873
   25.890    8.4106
   25.905    7.6514
   25.920    7.2766
   25.935    7.0353
   25.950    6.8132
   25.965    6.7667
   25.980    6.7500
   25.995    6.8519
   26.010    6.8913
   26.025    6.8413
   26.040    6.8352
   26.055    7.0300
   26.070    6.9449
   26.085    7.0441
   26.100    7.0546
   26.115    7.1002
   26.130    6.9984
   26.145    7.0388
   26.160    6.8887
   26.175    6.7860
   26.190    6.7579
   26.205    6.8062
   26.220    6.8053
   26.235    6.7053
   26.250    6.6570
   26.265    6.7413
   26.280    6.8562
   26.295    7.0291
   26.310    6.9905
   26.325    7.0388
   26.340    7.2670
   26.355    7.5250
   26.370    7.5391
   26.385    7.6409
   26.400    7.7260
   26.415    7.8375
   26.430    7.7936
   26.445    7.6944
   26.460    7.4083
   26.475    7.2415
   26.490    7.0651
   26.505    6.9150
   26.520    6.7474
   26.535    6.5710
   26.550    6.7281
   26.565    6.6087
   26.580    6.5710
   26.595    6.6105
   26.610    6.6140
   26.625    6.5631
   26.640    6.3849
   26.655    6.5482
   26.670    6.5236
   26.685    6.5315
   26.700    6.4973
   26.715    6.5420
   26.730    6.5403
   26.745    6.5008
   26.760    6.4815
   26.775    6.5605
   26.790    6.6509
   26.805    6.5991
   26.820    6.5061
   26.835    6.6588
   26.850    6.7755
   26.865    6.9001
   26.880    6.9967
   26.895    7.2249
   26.910    7.4443
   26.925    7.7427
   26.940    8.0507
   26.955    8.3377
   26.970    8.5352
   26.985    8.7107
   27.000    8.7116
   27.015    8.6405
   27.030    8.5264
   27.045    8.3246
   27.060    8.0814
   27.075    7.6338
   27.090    7.2407
   27.105    7.0414
   27.120    6.7246
   27.135    6.6412
   27.150    6.5719
   27.165    6.5078
   27.180    6.4516
   27.195    6.4508
   27.210    6.3674
   27.225    6.3648
   27.240    6.5227
   27.255    6.4683
   27.270    6.5517
   27.285    6.5034
   27.300    6.5684
   27.315    6.6149
   27.330    6.5341
   27.345    6.5236
   27.360    6.4885
   27.375    6.5692
   27.390    6.4631
   27.405    6.5034
   27.420    6.5543
   27.435    6.6263
   27.450    6.6395
   27.465    6.6070
   27.480    6.7448
   27.495    6.8738
   27.510    7.0757
   27.525    7.2407
   27.540    7.2986
   27.555    7.5013
   27.570    7.6733
   27.585    7.5443
   27.600    7.5145
   27.615    7.4021
   27.630    7.2573
   27.645    7.1731
   27.660    7.0836
   27.675    6.7536
   27.690    6.6675
   27.705    6.4797
   27.720    6.5210
   27.735    6.4595
   27.750    6.6026
   27.765    6.5868
   27.780    6.7843
   27.795    6.8624
   27.810    6.9651
   27.825    6.9835
   27.840    7.0002
   27.855    7.1134
   27.870    7.1151
   27.885    7.0923
   27.900    7.0028
   27.915    6.9344
   27.930    6.9659
   27.945    6.8650
   27.960    6.7509
   27.975    6.6684
   27.990    6.6833
   28.005    6.5859
   28.020    6.5947
   28.035    6.7053
   28.050    6.7518
   28.065    6.9361
   28.080    7.1880
   28.095    7.3986
   28.110    7.5979
   28.125    7.5399
   28.140    7.6847
   28.155    7.6962
   28.170    7.7392
   28.185    7.5926
   28.200    7.6031
   28.215    7.3126
   28.230    7.2161
   28.245    7.0528
   28.260    6.8255
   28.275    6.7211
   28.290    6.7378
   28.305    6.6623
   28.320    6.6886
   28.335    6.7869
   28.350    7.0607
   28.365    7.3302
   28.380    7.4057
   28.395    7.7067
   28.410    7.7286
   28.425    7.8339
   28.440    8.0393
   28.455    7.8181
   28.470    7.6514
   28.485    7.5382
   28.500    7.3995
   28.515    7.1380
   28.530    6.8150
   28.545    6.7079
   28.560    6.5807
   28.575    6.5438
   28.590    6.5587
   28.605    6.5227
   28.620    6.5104
   28.635    6.5166
   28.650    6.6158
   28.665    6.7658
   28.680    6.6772
   28.695    6.5684
   28.710    6.6219
   28.725    6.8246
   28.740    6.6245
   28.755    6.5587
   28.770    6.4850
   28.785    6.5807
   28.800    6.4745
   28.815    6.3182
   28.830    6.4385
   28.845    6.4788
   28.860    6.4192
   28.875    6.4964
   28.890    6.5385
   28.905    6.6210
   28.920    6.6175
   28.935    6.7000
   28.950    6.7676
   28.965    6.8404
   28.980    6.8448
   28.995    6.8413
   29.010    6.9168
   29.025    6.7527
   29.040    6.7228
   29.055    6.6509
   29.070    6.6640
   29.085    6.5341
   29.100    6.4832
   29.115    6.5973
   29.130    6.4516
   29.145    6.5499
   29.160    6.7509
   29.175    6.9563
   29.190    7.1178
   29.205    7.2319
   29.220    7.4162
   29.235    7.5592
   29.250    7.7111
   29.265    7.6444
   29.280    7.6435
   29.295    7.6444
   29.310    7.4759
   29.325    7.2635
   29.340    7.0520
   29.355    6.7623
   29.370    6.6842
   29.385    6.4709
   29.400    6.3911
   29.415    6.2805
   29.430    6.3103
   29.445    6.2981
   29.460    6.2375
   29.475    6.2945
   29.490    6.3411
   29.505    6.2752
   29.520    6.1190
   29.535    6.1804
   29.550    6.2902
   29.565    6.3305
   29.580    6.4148
   29.595    6.2226
   29.610    6.1840
   29.625    6.2787
   29.640    6.3077
   29.655    6.2805
   29.670    6.3138
   29.685    6.2717
   29.700    6.4350
   29.715    6.5771
   29.730    6.6395
   29.745    6.7299
   29.760    6.8457
   29.775    6.9545
   29.790    6.9036
   29.805    7.0283
   29.820    6.9273
   29.835    6.8097
   29.850    6.8483
   29.865    6.7474
   29.880    6.6728
   29.895    6.6702
   29.910    6.5025
   29.925    6.2744
   29.940    6.3244
   29.955    6.2831
   29.970    6.3972
   29.985    6.3779
   30.000    6.3867
   30.015    6.4525
   30.030    6.4982
   30.045    6.5403
   30.060    6.6579
   30.075    6.5227
   30.090    6.3990
   30.105    6.4631
   30.120    6.4306
   30.135    6.4543
   30.150    6.3384
   30.165    6.2823
   30.180    6.2963
   30.195    6.2322
   30.210    6.1980
   30.225    6.1488
   30.240    6.2866
   30.255    6.3727
   30.270    6.4016
   30.285    6.4420
   30.300    6.4499
   30.315    6.5043
   30.330    6.4209
   30.345    6.3604
   30.360    6.4297
   30.375    6.4473
   30.390    6.3095
   30.405    6.3963
   30.420    6.3639
   30.435    6.3612
   30.450    6.3516
   30.465    6.2085
   30.480    6.2498
   30.495    6.2594
   30.510    6.3200
   30.525    6.4341
   30.540    6.6061
   30.555    6.7597
   30.570    6.8448
   30.585    6.8949
   30.600    6.8852
   30.615    6.7483
   30.630    6.7720
   30.645    6.7299
   30.660    6.6114
   30.675    6.4727
   30.690    6.3358
   30.705    6.1927
   30.720    6.0699
   30.735    6.1673
   30.750    6.0277
   30.765    6.0620
   30.780    6.0216
   30.795    6.0927
   30.810    6.1840
   30.825    6.2191
   30.840    6.2033
   30.855    6.2094
   30.870    6.1559
   30.885    6.2138
   30.900    6.1190
   30.915    6.0418
   30.930    6.1076
   30.945    5.9751
   30.960    5.9707
   30.975    6.0295
   30.990    6.0181
   31.005    5.9610
   31.020    5.9435
   31.035    5.9049
   31.050    5.9014
   31.065    5.8566
   31.080    6.0067
   31.095    5.9014
   31.110    5.9619
   31.125    5.9470
   31.140    6.0032
   31.155    6.0409
   31.170    5.8891
   31.185    5.9250
   31.200    6.0444
   31.215    6.1225
   31.230    6.0532
   31.245    6.0936
   31.260    6.1260
   31.275    6.2542
   31.290    6.2831
   31.305    6.4683
   31.320    6.4508
   31.335    6.6202
   31.350    6.7351
   31.365    6.6895
   31.380    6.6763
   31.395    6.7342
   31.410    6.6491
   31.425    6.5236
   31.440    6.4420
   31.455    6.2577
   31.470    6.2217
   31.485    6.2077
   31.500    6.1445
   31.515    6.0172
   31.530    6.0312
   31.545    6.1708
   31.560    6.1295
   31.575    6.2550
   31.590    6.4297
   31.605    6.3437
   31.620    6.3981
   31.635    6.4332
   31.650    6.5096
   31.665    6.4762
   31.680    6.5912
   31.695    6.6272
   31.710    6.6114
   31.725    6.5543
   31.740    6.5157
   31.755    6.6491
   31.770    6.6570
   31.785    6.5649
   31.800    6.5684
   31.815    6.6675
   31.830    6.7483
   31.845    6.7869
   31.860    6.6316
   31.875    6.6087
   31.890    6.6842
   31.905    6.3902
   31.920    6.3525
   31.935    6.3560
   31.950    6.3033
   31.965    6.0014
   31.980    6.0690
   31.995    6.0962
   32.010    6.1313
   32.025    6.0479
   32.040    5.9961
   32.055    5.9961
   32.070    6.0488
   32.085    6.1927
   32.100    6.2006
   32.115    6.2261
   32.130    6.2173
   32.145    6.3068
   32.160    6.2313
   32.175    6.2050
   32.190    6.2208
   32.205    6.1655
   32.220    6.1348
   32.235    5.9689
   32.250    6.0532
   32.265    5.9821
   32.280    5.9373
   32.295    5.9514
   32.310    5.9689
   32.325    5.9681
   32.340    6.0576
   32.355    6.0813
   32.370    6.0427
   32.385    5.9663
   32.400    5.9215
   32.415    5.9566
   32.430    6.0971
   32.445    6.0084
   32.460    5.8346
   32.475    5.8873
   32.490    5.7162
   32.505    5.7258
   32.520    5.8162
   32.535    5.6802
   32.550    5.7925
   32.565    5.7776
   32.580    5.7820
   32.595    5.8355
   32.610    5.8118
   32.625    5.8838
   32.640    5.7767
   32.655    5.8311
   32.670    5.7750
   32.685    5.7522
   32.700    5.7715
   32.715    5.8136
   32.730    5.8215
   32.745    5.7574
   32.760    5.7908
   32.775    5.8847
   32.790    5.9724
   32.805    6.0874
   32.820    6.0971
   32.835    6.1471
   32.850    6.2059
   32.865    6.1418
   32.880    6.2638
   32.895    6.2384
   32.910    6.3103
   32.925    6.1769
   32.940    6.1734
   32.955    6.1322
   32.970    5.9224
   32.985    5.9505
   33.000    5.7285
   33.015    5.6345
   33.030    5.6337
   33.045    5.6714
   33.060    5.7223
   33.075    5.5819
   33.090    5.5722
   33.105    5.6293
   33.120    5.7135
   33.135    5.6284
   33.150    5.7065
   33.165    5.5968
   33.180    5.5889
   33.195    5.6363
   33.210    5.6495
   33.225    5.6223
   33.240    5.6073
   33.255    5.6012
   33.270    5.5433
   33.285    5.6758
   33.300    5.6495
   33.315    5.6056
   33.330    5.6223
   33.345    5.5608
   33.360    5.6196
   33.375    5.4485
   33.390    5.5450
   33.405    5.6144
   33.420    5.5187
   33.435    5.4379
   33.450    5.5503
   33.465    5.5433
   33.480    5.5520
   33.495    5.5073
   33.510    5.6345
   33.525    5.6846
   33.540    5.6547
   33.555    5.8048
   33.570    5.8935
   33.585    5.8522
   33.600    5.8777
   33.615    5.7679
   33.630    5.8083
   33.645    5.8487
   33.660    5.8364
   33.675    5.8083
   33.690    5.7899
   33.705    5.6688
   33.720    5.7592
   33.735    5.8303
   33.750    5.9996
   33.765    6.0418
   33.780    6.0997
   33.795    6.3700
   33.810    6.4569
   33.825    6.5262
   33.840    6.5561
   33.855    6.7027
   33.870    6.6693
   33.885    6.7193
   33.900    6.6368
   33.915    6.5561
   33.930    6.4271
   33.945    6.2015
   33.960    6.1032
   33.975    6.0198
   33.990    5.9373
   34.005    5.9075
   34.020    5.9163
   34.035    5.8145
   34.050    5.7934
   34.065    5.6977
   34.080    5.6767
   34.095    5.7960
   34.110    5.7214
   34.125    5.7144
   34.140    5.6337
   34.155    5.6530
   34.170    5.6749
   34.185    5.5854
   34.200    5.6512
   34.215    5.5959
   34.230    5.5907
   34.245    5.6363
   34.260    5.7030
   34.275    5.5503
   34.290    5.6003
   34.305    5.6539
   34.320    5.6881
   34.335    5.6240
   34.350    5.6293
   34.365    5.5231
   34.380    5.6819
   34.395    5.6477
   34.410    5.6477
   34.425    5.5310
   34.440    5.4573
   34.455    5.4871
   34.470    5.4783
   34.485    5.5090
   34.500    5.3318
   34.515    5.4195
   34.530    5.5038
   34.545    5.4783
   34.560    5.3748
   34.575    5.4362
   34.590    5.3695
   34.605    5.3879
   34.620    5.4125
   34.635    5.4783
   34.650    5.5389
   34.665    5.4616
   34.680    5.5731
   34.695    5.5222
   34.710    5.4090
   34.725    5.6223
   34.740    5.6977
   34.755    5.5547
   34.770    5.6363
   34.785    5.7258
   34.800    5.8057
   34.815    5.8487
   34.830    5.6547
   34.845    5.7109
   34.860    5.6740
   34.875    5.4880
   34.890    5.4783
   34.905    5.5099
   34.920    5.4186
   34.935    5.3326
   34.950    5.2545
   34.965    5.2475
   34.980    5.2861
   34.995    5.1834
   35.010    5.3177
   35.025    5.2633
   35.040    5.2256
   35.055    5.2668
   35.070    5.2238
   35.085    5.2326
   35.100    5.3212
   35.115    5.2651
   35.130    5.2299
   35.145    5.2817
   35.160    5.2835
   35.175    5.4213
   35.190    5.3467
   35.205    5.3818
   35.220    5.5003
   35.235    5.4801
   35.250    5.3958
   35.265    5.4336
   35.280    5.4941
   35.295    5.4467
   35.310    5.5055
   35.325    5.4081
   35.340    5.3353
   35.355    5.2317
   35.370    5.2817
   35.385    5.2677
   35.400    5.2738
   35.415    5.3274
   35.430    5.3133
   35.445    5.3353
   35.460    5.1992
   35.475    5.2036
   35.490    5.2852
   35.505    5.2387
   35.520    5.3072
   35.535    5.2668
   35.550    5.2343
   35.565    5.2071
   35.580    5.1764
   35.595    5.1966
   35.610    5.3230
   35.625    5.2405
   35.640    5.2405
   35.655    5.3590
   35.670    5.2870
   35.685    5.3353
   35.700    5.4265
   35.715    5.3212
   35.730    5.3256
   35.745    5.4704
   35.760    5.4362
   35.775    5.3054
   35.790    5.2984
   35.805    5.3037
   35.820    5.3081
   35.835    5.2887
   35.850    5.3432
   35.865    5.3344
   35.880    5.4889
   35.895    5.5117
   35.910    5.4274
   35.925    5.3827
   35.940    5.4836
   35.955    5.3932
   35.970    5.4476
   35.985    5.4301
   36.000    5.4099
   36.015    5.3844
   36.030    5.2721
   36.045    5.2378
   36.060    5.3765
   36.075    5.3756
   36.090    5.3818
   36.105    5.3633
   36.120    5.2940
   36.135    5.4379
   36.150    5.3160
   36.165    5.3774
   36.180    5.3449
   36.195    5.3906
   36.210    5.4432
   36.225    5.4248
   36.240    5.2712
   36.255    5.2282
   36.270    5.1659
   36.285    5.2071
   36.300    5.3116
   36.315    5.2080
   36.330    5.1448
   36.345    5.2352
   36.360    5.2966
   36.375    5.1975
   36.390    5.2615
   36.405    5.3107
   36.420    5.3581
   36.435    5.2414
   36.450    5.2966
   36.465    5.1790
   36.480    5.2106
   36.495    5.2335
   36.510    5.2194
   36.525    5.2738
   36.540    5.2247
   36.555    5.2220
   36.570    5.3511
   36.585    5.4037
   36.600    5.3414
   36.615    5.4915
   36.630    5.4371
   36.645    5.3941
   36.660    5.3625
   36.675    5.3265
   36.690    5.3379
   36.705    5.3669
   36.720    5.2414
   36.735    5.1808
   36.750    5.1606
   36.765    5.1281
   36.780    5.0772
   36.795    5.0597
   36.810    5.1255
   36.825    5.0053
   36.840    5.0614
   36.855    5.0369
   36.870    5.1018
   36.885    5.2045
   36.900    5.1597
   36.915    5.1729
   36.930    5.1720
   36.945    5.1624
   36.960    5.2528
   36.975    5.3353
   36.990    5.4739
   37.005    5.5793
   37.020    5.5433
   37.035    5.6047
   37.050    5.6688
   37.065    5.7170
   37.080    5.6837
   37.095    5.6863
   37.110    5.6012
   37.125    5.3958
   37.140    5.4090
   37.155    5.4379
   37.170    5.3677
   37.185    5.2247
   37.200    5.1650
   37.215    5.1325
   37.230    5.0246
   37.245    4.9342
   37.260    5.0255
   37.275    5.0325
   37.290    5.0334
   37.305    5.0518
   37.320    5.1352
   37.335    5.1185
   37.350    5.0316
   37.365    4.9877
   37.380    5.0869
   37.395    5.0281
   37.410    5.0553
   37.425    5.0886
   37.440    5.1448
   37.455    5.1352
   37.470    5.2387
   37.485    5.1483
   37.500    5.2466
   37.515    5.2299
   37.530    5.1843
   37.545    5.2554
   37.560    5.1896
   37.575    5.0895
   37.590    5.2036
   37.605    5.2185
   37.620    5.1764
   37.635    5.1948
   37.650    5.1940
   37.665    5.1641
   37.680    5.1957
   37.695    5.3949
   37.710    5.3949
   37.725    5.2361
   37.740    5.4485
   37.755    5.2607
   37.770    5.3282
   37.785    5.3203
   37.800    5.2826
   37.815    5.2115
   37.830    5.2668
   37.845    5.2765
   37.860    5.3300
   37.875    5.3168
   37.890    5.3309
   37.905    5.3256
   37.920    5.3116
   37.935    5.3326
   37.950    5.3203
   37.965    5.3361
   37.980    5.3493
   37.995    5.2308
   38.010    5.2493
   38.025    5.2721
   38.040    5.1685
   38.055    5.1141
   38.070    5.1483
   38.085    5.0702
   38.100    5.1150
   38.115    5.1483
   38.130    5.0649
   38.145    5.0395
   38.160    5.0202
   38.175    5.0334
   38.190    5.0263
   38.205    5.0737
   38.220    5.0377
   38.235    5.0649
   38.250    5.0342
   38.265    4.9631
   38.280    5.1044
   38.295    5.0395
   38.310    5.0737
   38.325    5.1325
   38.340    5.2598
   38.355    5.2607
   38.370    5.1747
   38.385    5.1861
   38.400    5.2010
   38.415    5.1738
   38.430    5.1018
   38.445    5.0737
   38.460    5.0193
   38.475    5.0667
   38.490    5.0009
   38.505    5.0026
   38.520    4.9324
   38.535    4.8999
   38.550    4.9438
   38.565    5.0641
   38.580    4.9351
   38.595    4.9473
   38.610    4.9991
   38.625    4.9710
   38.640    4.9447
   38.655    4.9886
   38.670    4.9473
   38.685    4.9631
   38.700    4.9824
   38.715    5.0465
   38.730    4.9956
   38.745    4.9588
   38.760    5.0202
   38.775    4.9517
   38.790    4.9544
   38.805    5.0746
   38.820    4.9412
   38.835    4.9684
   38.850    4.9570
   38.865    5.0509
   38.880    4.9965
   38.895    5.0193
   38.910    4.8745
   38.925    4.8087
   38.940    4.8657
   38.955    5.0298
   38.970    5.0290
   38.985    4.9114
   39.000    4.8043
   39.015    4.8069
   39.030    4.9789
   39.045    4.9368
   39.060    4.8850
   39.075    5.0053
   39.090    5.1404
   39.105    4.9763
   39.120    4.9070
   39.135    5.0237
   39.150    5.0641
   39.165    5.0535
   39.180    5.0860
   39.195    5.2510
   39.210    5.2563
   39.225    5.1869
   39.240    5.1948
   39.255    5.1492
   39.270    5.2080
   39.285    5.2659
   39.300    5.0869
   39.315    5.0737
   39.330    5.1492
   39.345    5.0649
   39.360    5.0518
   39.375    4.9939
   39.390    5.0035
   39.405    4.9517
   39.420    4.9175
   39.435    4.9245
   39.450    4.8885
   39.465    4.9315
   39.480    5.0272
   39.495    4.9386
   39.510    4.9447
   39.525    5.0255
   39.540    4.9895
   39.555    5.0053
   39.570    4.9816
   39.585    4.9965
   39.600    5.0167
   39.615    5.1281
   39.630    5.0930
   39.645    5.0930
   39.660    5.2098
   39.675    5.1080
   39.690    4.9649
   39.705    5.0535
   39.720    5.1343
   39.735    5.0079
   39.750    5.0483
   39.765    5.0799
   39.780    5.1606
   39.795    5.0641
   39.810    4.9860
   39.825    4.9824
   39.840    5.1009
   39.855    5.0474
   39.870    5.0395
   39.885    5.0412
   39.900    5.0298
   39.915    5.0009
   39.930    4.8596
   39.945    4.9772
   39.960    4.9491
   39.975    5.0097
   39.990    4.9096
