    1.500   16.0962
    1.515   16.1489
    1.530   16.0611
    1.545   15.5345
    1.560   15.2887
    1.575   15.5520
    1.590   15.1483
    1.605   14.5515
    1.620   15.0079
    1.635   14.6744
    1.650   15.0957
    1.665   14.6217
    1.680   14.1127
    1.695   14.1654
    1.710   13.6037
    1.725   12.6733
    1.740   13.2350
    1.755   14.1302
    1.770   12.9191
    1.785   13.3579
    1.800   13.4281
    1.815   13.7441
    1.830   13.3228
    1.845   12.9366
    1.860   12.7787
    1.875   12.6558
    1.890   12.3047
    1.905   12.3749
    1.920   12.3749
    1.935   12.0239
    1.950   12.0941
    1.965   11.7430
    1.980   12.1467
    1.995   12.4100
    2.010   11.5850
    2.025   11.2164
    2.040   11.4622
    2.055   11.5850
    2.070   11.3744
    2.085   11.6026
    2.100   11.1813
    2.115   11.5850
    2.130   11.0585
    2.145   11.9712
    2.160   11.2866
    2.175   10.9531
    2.190   10.9356
    2.205   10.5670
    2.220   10.9356
    2.235   10.9531
    2.250   10.8303
    2.265   10.7249
    2.280   10.0579
    2.295   10.4441
    2.310   10.4441
    2.325   10.3914
    2.340   10.4616
    2.355   10.4792
    2.370   10.1281
    2.385    9.6542
    2.400   10.0228
    2.415   10.5670
    2.430   10.0579
    2.445    9.9877
    2.460   10.1457
    2.475   10.1106
    2.490   10.4090
    2.505    9.7595
    2.520    9.5313
    2.535    9.3207
    2.550   10.0228
    2.565   10.0053
    2.580    9.4436
    2.595   10.0755
    2.610    9.7244
    2.625    9.1803
    2.640    9.4962
    2.655    9.8999
    2.670    9.9175
    2.685    9.4436
    2.700    9.6718
    2.715    9.4436
    2.730    9.9351
    2.745    9.7771
    2.760    9.9702
    2.775    9.4260
    2.790   10.2510
    2.805    9.7420
    2.820    9.8473
    2.835    9.9877
    2.850   10.1808
    2.865    9.7069
    2.880   10.1281
    2.895    9.9175
    2.910   10.2335
    2.925   10.6372
    2.940   10.3914
    2.955   10.0755
    2.970   10.0930
    2.985    9.9702
    3.000   11.0409
    3.015   10.5845
    3.030   10.2686
    3.045   10.9882
    3.060   11.1287
    3.075   11.2164
    3.090   10.4792
    3.105   11.0409
    3.120   11.8659
    3.135   12.8138
    3.150   13.0946
    3.165   12.8489
    3.180   13.1999
    3.195   13.0420
    3.210   13.4457
    3.225   14.6568
    3.240   14.4111
    3.255   15.2010
    3.270   15.2361
    3.285   16.2366
    3.300   16.9738
    3.315   17.7813
    3.330   19.3435
    3.345   20.3440
    3.360   20.9935
    3.375   21.8536
    3.390   24.3637
    3.405   25.3291
    3.420   26.6983
    3.435   26.9440
    3.450   27.1195
    3.465   26.1015
    3.480   24.4164
    3.495   22.3100
    3.510   21.0462
    3.525   20.4669
    3.540   19.2909
    3.555   18.6940
    3.570   19.4664
    3.585   19.6770
    3.600   20.1685
    3.615   21.9589
    3.630   22.2749
    3.645   24.5919
    3.660   24.5568
    3.675   25.6802
    3.690   28.6993
    3.705   30.0860
    3.720   32.4557
    3.735   34.8429
    3.750   38.1253
    3.765   42.6189
    3.780   46.7790
    3.795   52.6768
    3.810   61.7167
    3.825   76.9177
    3.840   88.3096
    3.855   88.6783
    3.870   82.0256
    3.885   68.4395
    3.900   51.5359
    3.915   35.3870
    3.930   21.4499
    3.945   17.0441
    3.960   14.8850
    3.975   13.7792
    3.990   14.8148
    4.005   14.8850
    4.020   14.8148
    4.035   15.0606
    4.050   14.5340
    4.065   14.4989
    4.080   13.6739
    4.095   13.1824
    4.110   12.7962
    4.125   12.3749
    4.140   11.9186
    4.155   11.8132
    4.170   11.5850
    4.185   11.4271
    4.200   11.1462
    4.215   10.1457
    4.230    9.8122
    4.245   10.3914
    4.260    9.9351
    4.275    9.0223
    4.290    9.1276
    4.305    8.9521
    4.320    9.3558
    4.335    8.9170
    4.350    9.0223
    4.365    8.7590
    4.380    9.1452
    4.395    9.0223
    4.410    8.7941
    4.425    8.1446
    4.440    8.4957
    4.455    8.7063
    4.470    8.3377
    4.485    7.8989
    4.500    8.1622
    4.515    8.6010
    4.530    8.2149
    4.545    7.8813
    4.560    8.6010
    4.575    8.3377
    4.590    7.9691
    4.605    8.7590
    4.620    8.2324
    4.635    8.5133
    4.650    8.7765
    4.665    8.1095
    4.680    9.0574
    4.695    8.4255
    4.710    8.7063
    4.725    8.2851
    4.740    8.3553
    4.755    8.1271
    4.770    8.3728
    4.785    8.4606
    4.800    8.3026
    4.815    8.4606
    4.830    8.1797
    4.845    8.0744
    4.860    8.4957
    4.875    8.9170
    4.890    8.5659
    4.905    9.0750
    4.920    8.6010
    4.935    8.3728
    4.950    8.8643
    4.965    8.9696
    4.980    8.4606
    4.995    8.9345
    5.010    9.6015
    5.025    9.7771
    5.040    8.8819
    5.055    9.1803
    5.070    9.0047
    5.085    9.2329
    5.100    9.6191
    5.115    9.9702
    5.130   10.4441
    5.145   10.3739
    5.160   10.6021
    5.175   10.8303
    5.190   10.6196
    5.205   10.9356
    5.220   11.2340
    5.235   11.6377
    5.250   11.2866
    5.265   12.4100
    5.280   12.8313
    5.295   13.8143
    5.310   13.6914
    5.325   13.9196
    5.340   14.8499
    5.355   15.9733
    5.370   16.7106
    5.385   17.7462
    5.400   19.2909
    5.415   21.6430
    5.430   24.7499
    5.445   28.2605
    5.460   32.4557
    5.475   33.0700
    5.490   30.5775
    5.505   27.3302
    5.520   22.9068
    5.535   18.4659
    5.550   13.3930
    5.565   11.0058
    5.580   11.1111
    5.595   10.7952
    5.610   10.0404
    5.625    9.9175
    5.640   10.2686
    5.655   10.3914
    5.670   10.3563
    5.685   10.5319
    5.700    9.7069
    5.715   10.2686
    5.730    9.6718
    5.745    9.5313
    5.760    9.1101
    5.775    8.7765
    5.790    9.2505
    5.805    9.4962
    5.820    8.9696
    5.835    8.7590
    5.850    8.6888
    5.865    9.0223
    5.880    8.3202
    5.895    9.1627
    5.910    8.5835
    5.925    8.8292
    5.940    8.8468
    5.955    8.3026
    5.970    7.9691
    5.985    8.1973
    6.000    8.1973
    6.015    8.1797
    6.030    7.9691
    6.045    8.2324
    6.060    8.3728
    6.075    8.0920
    6.090    7.6356
    6.105    7.9867
    6.120    8.0569
    6.135    7.9867
    6.150    8.1797
    6.165    7.4250
    6.180    7.4776
    6.195    8.4079
    6.210    8.2324
    6.225    7.7585
    6.240    7.8813
    6.255    7.6707
    6.270    7.6883
    6.285    7.1617
    6.300    7.6005
    6.315    8.0744
    6.330    7.7409
    6.345    7.8638
    6.360    7.6180
    6.375    7.9691
    6.390    7.3899
    6.405    7.5829
    6.420    7.7585
    6.435    7.4776
    6.450    7.9691
    6.465    7.2670
    6.480    7.5654
    6.495    7.9164
    6.510    8.0042
    6.525    7.7760
    6.540    7.8111
    6.555    7.8638
    6.570    8.5659
    6.585    8.7765
    6.600    8.4255
    6.615    9.1627
    6.630    9.0750
    6.645    8.4606
    6.660    9.7771
    6.675   10.9180
    6.690   12.2170
    6.705   13.6037
    6.720   13.4457
    6.735   13.0244
    6.750   11.9186
    6.765   10.3739
    6.780    8.8117
    6.795    8.0744
    6.810    7.4425
    6.825    7.3547
    6.840    7.5303
    6.855    7.4776
    6.870    7.7936
    6.885    7.9691
    6.900    7.8462
    6.915    7.5303
    6.930    8.5659
    6.945    8.3202
    6.960    7.6356
    6.975    7.1792
    6.990    7.8638
    7.005    7.4074
    7.020    7.2670
    7.035    7.1617
    7.050    6.7404
    7.065    6.6702
    7.080    6.9159
    7.095    6.6702
    7.110    6.5473
    7.125    6.3718
    7.140    6.5824
    7.155    6.6702
    7.170    6.3016
    7.185    6.4771
    7.200    6.0383
    7.215    6.2313
    7.230    6.4595
    7.245    6.1260
    7.260    6.2313
    7.275    6.4946
    7.290    6.3016
    7.305    6.0383
    7.320    6.4946
    7.335    5.9329
    7.350    5.8803
    7.365    5.6345
    7.380    6.1611
    7.395    5.9856
    7.410    6.1085
    7.425    6.4069
    7.440    6.2665
    7.455    6.1436
    7.470    6.1085
    7.485    6.3016
    7.500    6.2138
    7.515    5.7223
    7.530    6.1962
    7.545    6.7579
    7.560    6.2313
    7.575    6.6175
    7.590    6.2489
    7.605    5.9329
    7.620    6.2138
    7.635    6.8457
    7.650    6.5298
    7.665    6.7755
    7.680    7.1792
    7.695    7.3547
    7.710    8.3026
    7.725    8.5835
    7.740    9.8297
    7.755   10.4792
    7.770   11.4622
    7.785   10.4441
    7.800    9.4787
    7.815    8.6010
    7.830    7.4952
    7.845    6.0558
    7.860    5.5117
    7.875    5.7223
    7.890    6.2313
    7.905    5.8627
    7.920    5.8978
    7.935    5.9329
    7.950    5.6872
    7.965    5.4239
    7.980    5.8627
    7.995    6.0207
    8.010    5.7399
    8.025    6.0383
    8.040    6.5298
    8.055    6.4595
    8.070    5.7574
    8.085    5.4239
    8.100    6.1611
    8.115    5.7925
    8.130    5.6697
    8.145    5.5468
    8.160    5.7048
    8.175    6.2489
    8.190    5.8803
    8.205    5.5468
    8.220    5.1957
    8.235    5.3361
    8.250    5.3186
    8.265    5.5468
    8.280    5.5994
    8.295    5.3010
    8.310    5.3537
    8.325    5.5819
    8.340    5.1606
    8.355    5.3010
    8.370    5.3361
    8.385    5.1431
    8.400    5.3712
    8.415    5.0202
    8.430    5.1606
    8.445    5.4239
    8.460    5.7223
    8.475    5.6170
    8.490    5.7399
    8.505    5.4766
    8.520    5.3010
    8.535    5.3010
    8.550    5.4064
    8.565    5.1957
    8.580    5.3186
    8.595    5.4239
    8.610    5.2484
    8.625    5.8978
    8.640    5.6521
    8.655    5.7574
    8.670    5.7223
    8.685    6.2313
    8.700    6.0383
    8.715    6.1787
    8.730    5.6521
    8.745    5.4415
    8.760    5.0202
    8.775    5.1080
    8.790    5.0553
    8.805    5.1782
    8.820    5.4064
    8.835    5.2659
    8.850    4.9324
    8.865    4.9851
    8.880    5.1255
    8.895    5.3186
    8.910    5.2835
    8.925    5.1606
    8.940    5.1957
    8.955    4.6340
    8.970    5.1080
    8.985    5.0026
    9.000    4.7218
    9.015    4.8973
    9.030    4.7218
    9.045    4.7744
    9.060    4.9500
    9.075    5.1606
    9.090    5.4064
    9.105    5.1782
    9.120    5.3361
    9.135    4.8447
    9.150    5.0904
    9.165    4.9851
    9.180    4.7393
    9.195    4.7920
    9.210    5.3010
    9.225    5.2308
    9.240    5.1080
    9.255    5.4064
    9.270    5.1255
    9.285    4.9675
    9.300    4.8095
    9.315    5.0904
    9.330    5.1431
    9.345    5.4766
    9.360    5.9154
    9.375    5.4064
    9.390    5.8276
    9.405    6.1085
    9.420    6.9335
    9.435    7.0388
    9.450    7.4425
    9.465    8.1622
    9.480    8.7063
    9.495   10.8127
    9.510   12.8489
    9.525   14.7095
    9.540   15.0079
    9.555   13.4632
    9.570   11.3393
    9.585    9.5313
    9.600    6.9335
    9.615    5.3712
    9.630    5.1606
    9.645    5.1957
    9.660    5.1255
    9.675    4.9851
    9.690    4.5814
    9.705    4.6340
    9.720    4.7920
    9.735    4.9851
    9.750    4.5814
    9.765    5.0377
    9.780    5.0904
    9.795    5.1957
    9.810    4.9324
    9.825    4.8798
    9.840    4.3707
    9.855    4.5638
    9.870    4.8798
    9.885    4.8973
    9.900    4.9851
    9.915    4.5287
    9.930    4.7569
    9.945    5.1606
    9.960    5.1431
    9.975    4.6867
    9.990    4.8973
   10.005    5.1782
   10.020    4.7218
   10.035    4.7920
   10.050    5.0026
   10.065    5.1255
   10.080    5.1957
   10.095    4.9149
   10.110    4.9149
   10.125    5.0904
   10.140    5.6697
   10.155    5.4766
   10.170    5.5292
   10.185    5.5292
   10.200    5.3712
   10.215    5.5819
   10.230    5.7399
   10.245    5.8627
   10.260    6.7228
   10.275    7.6005
   10.290    7.8287
   10.305    8.3904
   10.320    8.6537
   10.335    7.4952
   10.350    7.0037
   10.365    6.1611
   10.380    6.0032
   10.395    5.8978
   10.410    5.3888
   10.425    5.5292
   10.440    5.4239
   10.455    5.0904
   10.470    4.8973
   10.485    4.9500
   10.500    5.5468
   10.515    5.1255
   10.530    5.3361
   10.545    5.0728
   10.560    5.0026
   10.575    4.9675
   10.590    4.9500
   10.605    5.1606
   10.620    4.8798
   10.635    4.8271
   10.650    5.2308
   10.665    5.0202
   10.680    5.4064
   10.695    4.8798
   10.710    4.7218
   10.725    4.8095
   10.740    4.8973
   10.755    5.5117
   10.770    5.2484
   10.785    5.3186
   10.800    5.4239
   10.815    5.1606
   10.830    5.0202
   10.845    5.3712
   10.860    5.7399
   10.875    5.3712
   10.890    4.9500
   10.905    5.6697
   10.920    5.7925
   10.935    5.4590
   10.950    6.0032
   10.965    6.6526
   10.980    7.6005
   10.995    8.0393
   11.010    8.2500
   11.025    8.6712
   11.040    8.4079
   11.055    7.6883
   11.070    6.7053
   11.085    6.6702
   11.100    5.5468
   11.115    5.0026
   11.130    4.8447
   11.145    5.1782
   11.160    5.2835
   11.175    5.0904
   11.190    5.4239
   11.205    5.0202
   11.220    4.9675
   11.235    5.1255
   11.250    5.2133
   11.265    5.4415
   11.280    5.3361
   11.295    5.2659
   11.310    5.2308
   11.325    5.0026
   11.340    5.0904
   11.355    5.3361
   11.370    4.8447
   11.385    4.7920
   11.400    5.0904
   11.415    4.9851
   11.430    5.0728
   11.445    5.1606
   11.460    5.2308
   11.475    4.9500
   11.490    4.7393
   11.505    5.0202
   11.520    5.6872
   11.535    5.2659
   11.550    5.3888
   11.565    5.7399
   11.580    5.6872
   11.595    5.6170
   11.610    5.8803
   11.625    6.1260
   11.640    6.4420
   11.655    6.9861
   11.670    8.4430
   11.685    8.7414
   11.700    8.4255
   11.715    8.2324
   11.730    7.8462
   11.745    7.2319
   11.760    6.5473
   11.775    6.0734
   11.790    5.7223
   11.805    4.9851
   11.820    5.1782
   11.835    5.2484
   11.850    4.5287
   11.865    5.0202
   11.880    4.9500
   11.895    5.3186
   11.910    5.4415
   11.925    5.2835
   11.940    5.1957
   11.955    5.0202
   11.970    5.4239
   11.985    5.1606
   12.000    5.2484
   12.015    4.9851
   12.030    5.0553
   12.045    5.1080
   12.060    4.7920
   12.075    5.1431
   12.090    4.9851
   12.105    4.9851
   12.120    4.6691
   12.135    4.8798
   12.150    5.1957
   12.165    5.3010
   12.180    5.1431
   12.195    5.0377
   12.210    5.0026
   12.225    5.0026
   12.240    5.0202
   12.255    4.4234
   12.270    4.8271
   12.285    5.1782
   12.300    5.1255
   12.315    5.3361
   12.330    5.3712
   12.345    5.5117
   12.360    5.4766
   12.375    4.7744
   12.390    5.2308
   12.405    5.0728
   12.420    4.8622
   12.435    4.8622
   12.450    4.9324
   12.465    4.6516
   12.480    4.6516
   12.495    4.7042
   12.510    4.9851
   12.525    4.7920
   12.540    4.6340
   12.555    4.6691
   12.570    4.9675
   12.585    4.4234
   12.600    5.1957
   12.615    4.9675
   12.630    5.1080
   12.645    4.7744
   12.660    5.0202
   12.675    4.7920
   12.690    4.7744
   12.705    5.1606
   12.720    4.9500
   12.735    4.9324
   12.750    4.9324
   12.765    4.4585
   12.780    4.9500
   12.795    4.7042
   12.810    4.6340
   12.825    5.5643
   12.840    5.0202
   12.855    4.6691
   12.870    5.1606
   12.885    5.6697
   12.900    5.7048
   12.915    6.1260
   12.930    6.9861
   12.945    7.4425
   12.960    6.6175
   12.975    6.3542
   12.990    6.0383
   13.005    5.1431
   13.020    4.9675
   13.035    5.0202
   13.050    4.5814
   13.065    4.5814
   13.080    4.7042
   13.095    4.6340
   13.110    4.4234
   13.125    4.7393
   13.140    4.7569
   13.155    4.7042
   13.170    4.9851
   13.185    4.8095
   13.200    4.6516
   13.215    4.4760
   13.230    4.9149
   13.245    5.0553
   13.260    4.5989
   13.275    4.4936
   13.290    4.6516
   13.305    4.8973
   13.320    5.0377
   13.335    5.0904
   13.350    4.7744
   13.365    4.9149
   13.380    5.0026
   13.395    4.8622
   13.410    4.6516
   13.425    5.1255
   13.440    5.2308
   13.455    5.1255
   13.470    4.8622
   13.485    5.3712
   13.500    5.5994
   13.515    5.5292
   13.530    5.8101
   13.545    5.7223
   13.560    5.4415
   13.575    5.2835
   13.590    4.9149
   13.605    4.9149
   13.620    4.7569
   13.635    4.4585
   13.650    4.8973
   13.665    5.1080
   13.680    5.4415
   13.695    4.5287
   13.710    4.5111
   13.725    4.7042
   13.740    4.6867
   13.755    4.5814
   13.770    4.4936
   13.785    4.8447
   13.800    4.2830
   13.815    4.3005
   13.830    5.1957
   13.845    5.2484
   13.860    4.9675
   13.875    4.6516
   13.890    4.8271
   13.905    5.0553
   13.920    4.9149
   13.935    4.8447
   13.950    4.7042
   13.965    5.7223
   13.980    5.5292
   13.995    4.8447
   14.010    5.4941
   14.025    6.1962
   14.040    6.1611
   14.055    6.7228
   14.070    7.3899
   14.085    7.0037
   14.100    6.7404
   14.115    6.6526
   14.130    6.1611
   14.145    5.7048
   14.160    5.4590
   14.175    5.5468
   14.190    5.6521
   14.205    5.0553
   14.220    5.5292
   14.235    5.5468
   14.250    5.0904
   14.265    5.2308
   14.280    5.4064
   14.295    5.4239
   14.310    5.3186
   14.325    5.4415
   14.340    5.2659
   14.355    5.2659
   14.370    5.4590
   14.385    5.2308
   14.400    5.0728
   14.415    5.2308
   14.430    5.3010
   14.445    5.3712
   14.460    5.3010
   14.475    5.2308
   14.490    5.1782
   14.505    5.5292
   14.520    5.2659
   14.535    5.2308
   14.550    5.3010
   14.565    4.8271
   14.580    4.7393
   14.595    5.4415
   14.610    5.6345
   14.625    5.1431
   14.640    4.9675
   14.655    5.2133
   14.670    5.4415
   14.685    5.0026
   14.700    5.0553
   14.715    4.7744
   14.730    5.0202
   14.745    5.2659
   14.760    5.0904
   14.775    4.9851
   14.790    5.4239
   14.805    5.2659
   14.820    5.0377
   14.835    4.9851
   14.850    4.3883
   14.865    4.8271
   14.880    4.7744
   14.895    5.3712
   14.910    4.8798
   14.925    4.7042
   14.940    5.0377
   14.955    5.0553
   14.970    4.9149
   14.985    4.5287
   15.000    4.7569
   15.015    5.0728
   15.030    5.0026
   15.045    4.9500
   15.060    5.1255
   15.075    5.5468
   15.090    5.4239
   15.105    5.4941
   15.120    5.7574
   15.135    5.3186
   15.150    5.4766
   15.165    5.6872
   15.180    5.0377
   15.195    5.2484
   15.210    4.6867
   15.225    4.7218
   15.240    4.7042
   15.255    4.7218
   15.270    4.7569
   15.285    4.6691
   15.300    4.8095
   15.315    4.6691
   15.330    4.9324
   15.345    4.6340
   15.360    4.5989
   15.375    4.9675
   15.390    4.9675
   15.405    4.9675
   15.420    4.9675
   15.435    5.0026
   15.450    4.4058
   15.465    4.6691
   15.480    4.5463
   15.495    4.5989
   15.510    4.7042
   15.525    5.0728
   15.540    5.0026
   15.555    4.4585
   15.570    4.4409
   15.585    4.3707
   15.600    4.9324
   15.615    4.6516
   15.630    4.7920
   15.645    4.8095
   15.660    4.9324
   15.675    4.6516
   15.690    4.4585
   15.705    4.3883
   15.720    4.8447
   15.735    4.7744
   15.750    4.9149
   15.765    4.6165
   15.780    4.4409
   15.795    5.0026
   15.810    4.9851
   15.825    4.9675
   15.840    4.4585
   15.855    4.5638
   15.870    4.6691
   15.885    4.5111
   15.900    4.9500
   15.915    4.3883
   15.930    4.9500
   15.945    4.5989
   15.960    4.4936
   15.975    4.9149
   15.990    4.8973
   16.005    5.0377
   16.020    4.6867
   16.035    4.5287
   16.050    4.7393
   16.065    4.7569
   16.080    5.2133
   16.095    5.0553
   16.110    5.3888
   16.125    4.9324
   16.140    4.8973
   16.155    5.2484
   16.170    4.8271
   16.185    4.7744
   16.200    4.6340
   16.215    4.4760
   16.230    4.6867
   16.245    4.7042
   16.260    4.6691
   16.275    4.5463
   16.290    4.5111
   16.305    4.5989
   16.320    4.9851
   16.335    5.1255
   16.350    4.4234
   16.365    4.5989
   16.380    4.6691
   16.395    4.5463
   16.410    4.8798
   16.425    4.7569
   16.440    4.4234
   16.455    5.0202
   16.470    4.8271
   16.485    4.5989
   16.500    4.8447
   16.515    4.5638
   16.530    4.7920
   16.545    4.9324
   16.560    4.9500
   16.575    5.4064
   16.590    5.5468
   16.605    5.2659
   16.620    5.4415
   16.635    5.1431
   16.650    4.7218
   16.665    4.6340
   16.680    4.7920
   16.695    4.4936
   16.710    4.2303
   16.725    4.3181
   16.740    4.9851
   16.755    4.6165
   16.770    4.7569
   16.785    4.4234
   16.800    4.7744
   16.815    4.8271
   16.830    4.5814
   16.845    4.6867
   16.860    4.8271
   16.875    4.6516
   16.890    5.0904
   16.905    4.8271
   16.920    4.9851
   16.935    4.9500
   16.950    4.6516
   16.965    4.7744
   16.980    5.1255
   16.995    5.5292
   17.010    5.5117
   17.025    5.6521
   17.040    5.9856
   17.055    6.0734
   17.070    6.3718
   17.085    5.8627
   17.100    5.5292
   17.115    5.5994
   17.130    5.0202
   17.145    4.8447
   17.160    4.9149
   17.175    5.1255
   17.190    4.7569
   17.205    4.4058
   17.220    4.3532
   17.235    4.5638
   17.250    4.4409
   17.265    4.4760
   17.280    4.4234
   17.295    4.6340
   17.310    4.7393
   17.325    4.4409
   17.340    4.8095
   17.355    4.9675
   17.370    4.4760
   17.385    4.5638
   17.400    4.9500
   17.415    4.5111
   17.430    4.5638
   17.445    4.5638
   17.460    4.7393
   17.475    4.5463
   17.490    5.2308
   17.505    5.0904
   17.520    4.7042
   17.535    4.2654
   17.550    5.1782
   17.565    4.8447
   17.580    4.1250
   17.595    4.1425
   17.610    4.4234
   17.625    4.6340
   17.640    4.3707
   17.655    4.1074
   17.670    4.4058
   17.685    5.2308
   17.700    4.6691
   17.715    4.3707
   17.730    4.4585
   17.745    4.7218
   17.760    4.9324
   17.775    4.9149
   17.790    4.7218
   17.805    4.4058
   17.820    4.6516
   17.835    4.3883
   17.850    4.4234
   17.865    4.8271
   17.880    4.6165
   17.895    4.7569
   17.910    4.4585
   17.925    4.9675
   17.940    5.3361
   17.955    4.6867
   17.970    4.6516
   17.985    4.8973
   18.000    4.7744
   18.015    4.7218
   18.030    4.8271
   18.045    4.7042
   18.060    4.5989
   18.075    4.3356
   18.090    4.5287
   18.105    4.5287
   18.120    4.4234
   18.135    4.5989
   18.150    4.2303
   18.165    4.4936
   18.180    4.7393
   18.195    4.6165
   18.210    4.7218
   18.225    4.8447
   18.240    4.5287
   18.255    4.2303
   18.270    4.2127
   18.285    4.6867
   18.300    4.5111
   18.315    4.7744
   18.330    5.0904
   18.345    5.0904
   18.360    4.6867
   18.375    5.3010
   18.390    5.0026
   18.405    4.7744
   18.420    4.9324
   18.435    4.5814
   18.450    4.5814
   18.465    4.5989
   18.480    4.4585
   18.495    4.4409
   18.510    4.9324
   18.525    4.4760
   18.540    4.4058
   18.555    4.5638
   18.570    4.4234
   18.585    4.3707
   18.600    4.5111
   18.615    5.1255
   18.630    4.4585
   18.645    4.5111
   18.660    4.7744
   18.675    4.3181
   18.690    4.3532
   18.705    4.3707
   18.720    4.4760
   18.735    4.7569
   18.750    4.8095
   18.765    4.1776
   18.780    4.5287
   18.795    4.8095
   18.810    4.8798
   18.825    4.3532
   18.840    4.7920
   18.855    4.9500
   18.870    4.5287
   18.885    4.4058
   18.900    4.5287
   18.915    4.3005
   18.930    5.0377
   18.945    4.7569
   18.960    4.8973
   18.975    4.8271
   18.990    4.5287
   19.005    4.9851
   19.020    5.0202
   19.035    4.9149
   19.050    4.8973
   19.065    4.6516
   19.080    4.7218
   19.095    4.8271
   19.110    4.5989
   19.125    4.5638
   19.140    4.4936
   19.155    4.4058
   19.170    4.4409
   19.185    4.4936
   19.200    4.4409
   19.215    4.1250
   19.230    4.4234
   19.245    4.2830
   19.260    4.3532
   19.275    4.3356
   19.290    4.7569
   19.305    4.3532
   19.320    4.3532
   19.335    4.4760
   19.350    4.5814
   19.365    4.8973
   19.380    4.3181
   19.395    4.0899
   19.410    4.1601
   19.425    4.3707
   19.440    4.5111
   19.455    4.4936
   19.470    4.7218
   19.485    4.4409
   19.500    4.5287
   19.515    4.4234
   19.530    4.6867
   19.545    4.4409
   19.560    4.7218
   19.575    4.3532
   19.590    5.1080
   19.605    4.7569
   19.620    4.6165
   19.635    4.7393
   19.650    4.5111
   19.665    4.6867
   19.680    4.7744
   19.695    4.4409
   19.710    4.4585
   19.725    4.1425
   19.740    4.1601
   19.755    4.1776
   19.770    4.5111
   19.785    4.1601
   19.800    4.1425
   19.815    4.3356
   19.830    4.7920
   19.845    4.4585
   19.860    4.4585
   19.875    4.6516
   19.890    4.3532
   19.905    4.5989
   19.920    4.6165
   19.935    4.1601
   19.950    4.7393
   19.965    4.3181
   19.980    4.3532
   19.995    4.5463
   20.010    4.6691
   20.025    4.7920
   20.040    4.5111
   20.055    4.2830
   20.070    4.6516
   20.085    4.5814
   20.100    4.4585
   20.115    3.9846
   20.130    4.8973
   20.145    4.4936
   20.160    4.0372
   20.175    3.8090
   20.190    4.0197
   20.205    4.5814
   20.220    4.6691
   20.235    4.4936
   20.250    4.7218
   20.265    4.4585
   20.280    4.5463
   20.295    4.3883
   20.310    4.7920
   20.325    4.8798
   20.340    5.0026
   20.355    5.3361
   20.370    5.7925
   20.385    5.7574
   20.400    5.7223
   20.415    5.0904
   20.430    4.6691
   20.445    4.7218
   20.460    4.7042
   20.475    3.9494
   20.490    4.2127
   20.505    3.8090
   20.520    4.0197
   20.535    4.1601
   20.550    4.3356
   20.565    4.1074
   20.580    4.0372
   20.595    4.2478
   20.610    4.1952
   20.625    4.2478
   20.640    4.0372
   20.655    4.1250
   20.670    4.5638
   20.685    4.3532
   20.700    4.1601
   20.715    4.3707
   20.730    4.3005
   20.745    4.4585
   20.760    4.5111
   20.775    4.2830
   20.790    4.4409
   20.805    4.0548
   20.820    4.1776
   20.835    4.0723
   20.850    3.8617
   20.865    3.7915
   20.880    4.1601
   20.895    3.7564
   20.910    4.0372
   20.925    3.7388
   20.940    3.8968
   20.955    3.8968
   20.970    3.9670
   20.985    4.1250
   21.000    4.1425
   21.015    4.3181
   21.030    4.3707
   21.045    4.2303
   21.060    4.3181
   21.075    4.3532
   21.090    4.1776
   21.105    4.1776
   21.120    4.3356
   21.135    4.1776
   21.150    4.0197
   21.165    4.3707
   21.180    4.3356
   21.195    4.3532
   21.210    4.1250
   21.225    4.4409
   21.240    4.1074
   21.255    4.3532
   21.270    4.0548
   21.285    4.0021
   21.300    4.1952
   21.315    4.5463
   21.330    4.0723
   21.345    3.9670
   21.360    3.7213
   21.375    3.8968
   21.390    3.7213
   21.405    3.9143
   21.420    4.0197
   21.435    4.2654
   21.450    4.0899
   21.465    4.3883
   21.480    4.1952
   21.495    4.7218
   21.510    4.1952
   21.525    4.3181
   21.540    4.4936
   21.555    4.2127
   21.570    3.7213
   21.585    4.0899
   21.600    3.8968
   21.615    4.0197
   21.630    4.2303
   21.645    3.7915
   21.660    4.4234
   21.675    4.1776
   21.690    3.8792
   21.705    3.9670
   21.720    3.8441
   21.735    4.1250
   21.750    4.3532
   21.765    4.3181
   21.780    4.1952
   21.795    4.0723
   21.810    4.1952
   21.825    4.1601
   21.840    4.7569
   21.855    4.7218
   21.870    4.4409
   21.885    4.1074
   21.900    3.8792
   21.915    4.1776
   21.930    4.0021
   21.945    3.7213
   21.960    4.4760
   21.975    4.2830
   21.990    4.0899
   22.005    4.0197
   22.020    4.5111
   22.035    3.8441
   22.050    3.7388
   22.065    4.2127
   22.080    4.1952
   22.095    3.8441
   22.110    3.8266
   22.125    3.8792
   22.140    4.0899
   22.155    4.0899
   22.170    4.3707
   22.185    4.4234
   22.200    4.5287
   22.215    4.8095
   22.230    4.5463
   22.245    4.0723
   22.260    4.2127
   22.275    4.0723
   22.290    3.9319
   22.305    4.3532
   22.320    3.7739
   22.335    3.2473
   22.350    3.7037
   22.365    3.6510
   22.380    3.7739
   22.395    3.9494
   22.410    3.7564
   22.425    3.7739
   22.440    4.0372
   22.455    4.1425
   22.470    4.1074
   22.485    4.1250
   22.500    4.4585
   22.515    4.8095
   22.530    4.8973
   22.545    5.0377
   22.560    4.9149
   22.575    4.9324
   22.590    5.1957
   22.605    5.4239
   22.620    5.0728
   22.635    4.1250
   22.650    3.7564
   22.665    4.0723
   22.680    3.7739
   22.695    4.0021
   22.710    4.0899
   22.725    4.1425
   22.740    3.9670
   22.755    3.9846
   22.770    3.4580
   22.785    4.1074
   22.800    4.0548
   22.815    4.0899
   22.830    4.3181
   22.845    4.4058
   22.860    4.4936
   22.875    4.7569
   22.890    5.0202
   22.905    5.4766
   22.920    5.5994
   22.935    4.9149
   22.950    5.0377
   22.965    4.8798
   22.980    4.2478
   22.995    4.0899
   23.010    4.3181
   23.025    3.8968
   23.040    3.8441
   23.055    3.8968
   23.070    4.2830
   23.085    3.9670
   23.100    3.9494
   23.115    4.1074
   23.130    3.7213
   23.145    3.7564
   23.160    3.8792
   23.175    4.3005
   23.190    4.2303
   23.205    4.2127
   23.220    4.1776
   23.235    4.1601
   23.250    4.2303
   23.265    4.6165
   23.280    4.5814
   23.295    4.1601
   23.310    4.0723
   23.325    3.7388
   23.340    3.9494
   23.355    3.7564
   23.370    3.8090
   23.385    3.8617
   23.400    4.0899
   23.415    3.8792
   23.430    3.5808
   23.445    3.5808
   23.460    3.8968
   23.475    4.1250
   23.490    3.8617
   23.505    3.8968
   23.520    3.8441
   23.535    3.6686
   23.550    3.7213
   23.565    3.9494
   23.580    3.6335
   23.595    3.6686
   23.610    3.6159
   23.625    4.0723
   23.640    3.6159
   23.655    3.4580
   23.670    3.8266
   23.685    3.4404
   23.700    3.3175
   23.715    3.3702
   23.730    3.2122
   23.745    3.2649
   23.760    3.2122
   23.775    3.8266
   23.790    3.5282
   23.805    3.5808
   23.820    3.9670
   23.835    3.7564
   23.850    3.7739
   23.865    3.4229
   23.880    3.6159
   23.895    3.9319
   23.910    3.9670
   23.925    4.1250
   23.940    4.0372
   23.955    3.6159
   23.970    4.2303
   23.985    3.9319
   24.000    3.7213
   24.015    3.6510
   24.030    3.2649
   24.045    3.5282
   24.060    3.7037
   24.075    3.7388
   24.090    3.5808
   24.105    3.3351
   24.120    3.5282
   24.135    3.8617
   24.150    3.4404
   24.165    3.6510
   24.180    3.5457
   24.195    3.8792
   24.210    3.5808
   24.225    3.7739
   24.240    3.7915
   24.255    3.8266
   24.270    3.7213
   24.285    3.3000
   24.300    3.2824
   24.315    3.2824
   24.330    3.6510
   24.345    3.9143
   24.360    3.5106
   24.375    3.2473
   24.390    3.5808
   24.405    3.8441
   24.420    3.6686
   24.435    3.5633
   24.450    3.4580
   24.465    3.3877
   24.480    3.7739
   24.495    3.4755
   24.510    3.9670
   24.525    3.9143
   24.540    3.5633
   24.555    3.7037
   24.570    3.7388
   24.585    3.7213
   24.600    3.5106
   24.615    3.9494
   24.630    3.6335
   24.645    3.8266
   24.660    3.7037
   24.675    3.5808
   24.690    3.3351
   24.705    3.8441
   24.720    3.5633
   24.735    3.4931
   24.750    3.2649
   24.765    3.4755
   24.780    3.3000
   24.795    3.6159
   24.810    3.1245
   24.825    3.4755
   24.840    3.5457
   24.855    3.7388
   24.870    3.6510
   24.885    3.9319
   24.900    4.0197
   24.915    3.9319
   24.930    3.6159
   24.945    3.4404
   24.960    3.9319
   24.975    3.4931
   24.990    3.5808
   25.005    3.4404
   25.020    3.3702
   25.035    3.4053
   25.050    3.4580
   25.065    3.4755
   25.080    3.7213
   25.095    3.4229
   25.110    3.2649
   25.125    3.4404
   25.140    3.6335
   25.155    3.5282
   25.170    3.4931
   25.185    3.8090
   25.200    3.9319
   25.215    3.8441
   25.230    3.9494
   25.245    3.5457
   25.260    3.9670
   25.275    3.5984
   25.290    3.5808
   25.305    3.6686
   25.320    3.4931
   25.335    3.3000
   25.350    3.5633
   25.365    3.9670
   25.380    3.6335
   25.395    3.3351
   25.410    3.3000
   25.425    3.8090
   25.440    3.1947
   25.455    3.4755
   25.470    3.4755
   25.485    3.6686
   25.500    3.4229
   25.515    3.7564
   25.530    3.5984
   25.545    3.6159
   25.560    3.4755
   25.575    3.3702
   25.590    3.2649
   25.605    3.0718
   25.620    3.4404
   25.635    3.5984
   25.650    3.4053
   25.665    3.0191
   25.680    3.3702
   25.695    3.3526
   25.710    3.5633
   25.725    3.4053
   25.740    3.4229
   25.755    3.6510
   25.770    3.8792
   25.785    3.8266
   25.800    4.3356
   25.815    4.3707
   25.830    4.6691
   25.845    4.5638
   25.860    4.4409
   25.875    4.2478
   25.890    4.3707
   25.905    3.8090
   25.920    3.8617
   25.935    3.6862
   25.950    3.2298
   25.965    3.2473
   25.980    3.5106
   25.995    3.8792
   26.010    3.4755
   26.025    3.2824
   26.040    3.3175
   26.055    3.5984
   26.070    3.4580
   26.085    3.5457
   26.100    3.4053
   26.115    3.4931
   26.130    3.5808
   26.145    3.3877
   26.160    3.6159
   26.175    3.1069
   26.190    3.1245
   26.205    3.3351
   26.220    3.3702
   26.235    3.2649
   26.250    3.5106
   26.265    3.3877
   26.280    3.6510
   26.295    3.3000
   26.310    3.4931
   26.325    3.5457
   26.340    3.3175
   26.355    3.7037
   26.370    3.5457
   26.385    3.6159
   26.400    3.7564
   26.415    4.1425
   26.430    4.1952
   26.445    3.7739
   26.460    3.6686
   26.475    3.3000
   26.490    3.4229
   26.505    3.6510
   26.520    3.4931
   26.535    3.6686
   26.550    3.8090
   26.565    3.5633
   26.580    3.2298
   26.595    3.1947
   26.610    3.2649
   26.625    3.1771
   26.640    3.1596
   26.655    3.2824
   26.670    3.2649
   26.685    3.2649
   26.700    3.3175
   26.715    3.4931
   26.730    3.1947
   26.745    3.2298
   26.760    3.4053
   26.775    3.0893
   26.790    3.4053
   26.805    3.3877
   26.820    3.2649
   26.835    3.1947
   26.850    3.1771
   26.865    3.2824
   26.880    3.3175
   26.895    3.2122
   26.910    3.2649
   26.925    3.2649
   26.940    3.3175
   26.955    3.2473
   26.970    3.5282
   26.985    3.8617
   27.000    3.4580
   27.015    3.6862
   27.030    3.7915
   27.045    3.6159
   27.060    3.8266
   27.075    3.4931
   27.090    3.2473
   27.105    3.0718
   27.120    3.0893
   27.135    3.5282
   27.150    3.1771
   27.165    3.2298
   27.180    3.3702
   27.195    3.2298
   27.210    3.2824
   27.225    3.2649
   27.240    3.2824
   27.255    3.3175
   27.270    3.2824
   27.285    3.3702
   27.300    3.4053
   27.315    2.7734
   27.330    2.8787
   27.345    3.1245
   27.360    2.8787
   27.375    3.1771
   27.390    3.1947
   27.405    3.2298
   27.420    3.0893
   27.435    3.4053
   27.450    3.1771
   27.465    3.2298
   27.480    3.2649
   27.495    3.1069
   27.510    3.1245
   27.525    3.2473
   27.540    3.3175
   27.555    3.0542
   27.570    3.0191
   27.585    3.1596
   27.600    3.6862
   27.615    3.7037
   27.630    3.2649
   27.645    3.4755
   27.660    2.8260
   27.675    2.9489
   27.690    3.3702
   27.705    3.5457
   27.720    3.0542
   27.735    2.8612
   27.750    3.1771
   27.765    2.8787
   27.780    3.1420
   27.795    3.0893
   27.810    2.9665
   27.825    3.2649
   27.840    3.3351
   27.855    3.4053
   27.870    3.6335
   27.885    3.3000
   27.900    3.4053
   27.915    3.3526
   27.930    3.1596
   27.945    3.0542
   27.960    3.2298
   27.975    3.1069
   27.990    3.1596
   28.005    3.5282
   28.020    3.4580
   28.035    3.1420
   28.050    3.1596
   28.065    2.9489
   28.080    2.7207
   28.095    3.3175
   28.110    3.2298
   28.125    2.8612
   28.140    3.4229
   28.155    3.5106
   28.170    3.6510
   28.185    3.5633
   28.200    3.7213
   28.215    3.4580
   28.230    3.2298
   28.245    3.0016
   28.260    3.2473
   28.275    3.2473
   28.290    3.2824
   28.305    3.1771
   28.320    3.0191
   28.335    3.1596
   28.350    3.0367
   28.365    3.1069
   28.380    3.0718
   28.395    3.3175
   28.410    3.1947
   28.425    3.3000
   28.440    3.4404
   28.455    3.4053
   28.470    3.4931
   28.485    3.4404
   28.500    3.3175
   28.515    3.2298
   28.530    3.2122
   28.545    3.0016
   28.560    3.1069
   28.575    2.9489
   28.590    2.8787
   28.605    3.3526
   28.620    3.1596
   28.635    2.8787
   28.650    3.3000
   28.665    3.1771
   28.680    3.2649
   28.695    2.8963
   28.710    3.0893
   28.725    3.1245
   28.740    3.0893
   28.755    2.9138
   28.770    2.8787
   28.785    2.8085
   28.800    3.0718
   28.815    2.8612
   28.830    2.7909
   28.845    3.0191
   28.860    3.1420
   28.875    3.3175
   28.890    3.2122
   28.905    3.3351
   28.920    3.4580
   28.935    3.5808
   28.950    3.8090
   28.965    3.3351
   28.980    3.2824
   28.995    3.2298
   29.010    3.4404
   29.025    2.9840
   29.040    2.9314
   29.055    3.0191
   29.070    3.2298
   29.085    3.0191
   29.100    3.1069
   29.115    2.6505
   29.130    2.8436
   29.145    2.9138
   29.160    3.3000
   29.175    2.8612
   29.190    3.0016
   29.205    3.0893
   29.220    3.5633
   29.235    3.4755
   29.250    3.3526
   29.265    3.1245
   29.280    3.5106
   29.295    3.7564
   29.310    3.5984
   29.325    3.0718
   29.340    3.1947
   29.355    3.0718
   29.370    2.9138
   29.385    2.9665
   29.400    3.0893
   29.415    3.2122
   29.430    3.0367
   29.445    2.7207
   29.460    2.9314
   29.475    3.0016
   29.490    2.8612
   29.505    3.1245
   29.520    2.3697
   29.535    2.9138
   29.550    2.9840
   29.565    2.8085
   29.580    3.1596
   29.595    2.9138
   29.610    2.6856
   29.625    2.8260
   29.640    3.0367
   29.655    2.5276
   29.670    2.4750
   29.685    2.6856
   29.700    2.8612
   29.715    2.5452
   29.730    2.6681
   29.745    2.7558
   29.760    2.5628
   29.775    2.7909
   29.790    2.5628
   29.805    2.8260
   29.820    2.6330
   29.835    2.7909
   29.850    2.8963
   29.865    2.7032
   29.880    2.7734
   29.895    2.9665
   29.910    2.5979
   29.925    2.7734
   29.940    2.8260
   29.955    2.7207
   29.970    2.5276
   29.985    2.5452
   30.000    2.6154
   30.015    2.4750
   30.030    2.4223
   30.045    2.7734
   30.060    2.8085
   30.075    2.6505
   30.090    2.5979
   30.105    2.4399
   30.120    2.8612
   30.135    2.8787
   30.150    2.9489
   30.165    2.7558
   30.180    2.7383
   30.195    2.5628
   30.210    2.8963
   30.225    2.7207
   30.240    2.6681
   30.255    2.6505
   30.270    2.7909
   30.285    3.0016
   30.300    2.7558
   30.315    2.7558
   30.330    2.8612
   30.345    2.6681
   30.360    2.5101
   30.375    2.5101
   30.390    2.8963
   30.405    2.7909
   30.420    2.6330
   30.435    2.5101
   30.450    2.7383
   30.465    2.6856
   30.480    2.7734
   30.495    2.6330
   30.510    2.6681
   30.525    2.5628
   30.540    2.7032
   30.555    2.5979
   30.570    2.7909
   30.585    2.6505
   30.600    2.8963
   30.615    3.4580
   30.630    3.0893
   30.645    2.7383
   30.660    2.7558
   30.675    2.6330
   30.690    2.7383
   30.705    2.5276
   30.720    2.4223
   30.735    2.6330
   30.750    2.4750
   30.765    2.4574
   30.780    2.5276
   30.795    2.4925
   30.810    2.7383
   30.825    2.7734
   30.840    2.8436
   30.855    2.7207
   30.870    2.7383
   30.885    2.7383
   30.900    2.5452
   30.915    2.7909
   30.930    2.5452
   30.945    2.4399
   30.960    2.8436
   30.975    2.5276
   30.990    2.3872
   31.005    2.8260
   31.020    2.6681
   31.035    2.3697
   31.050    2.2819
   31.065    2.3521
   31.080    2.6681
   31.095    2.5276
   31.110    2.5276
   31.125    2.4574
   31.140    2.5101
   31.155    2.7207
   31.170    2.3346
   31.185    2.5452
   31.200    2.4048
   31.215    2.3872
   31.230    2.4399
   31.245    2.6505
   31.260    2.4750
   31.275    2.6505
   31.290    2.4925
   31.305    2.3346
   31.320    2.6505
   31.335    2.4223
   31.350    2.6505
   31.365    2.4925
   31.380    2.4223
   31.395    2.8963
   31.410    2.5276
   31.425    2.5803
   31.440    2.4574
   31.455    2.1766
   31.470    2.6154
   31.485    2.3872
   31.500    2.4750
   31.515    2.2292
   31.530    2.3521
   31.545    2.4750
   31.560    2.4574
   31.575    2.7383
   31.590    2.3521
   31.605    2.6681
   31.620    2.7558
   31.635    2.4925
   31.650    2.2995
   31.665    2.5628
   31.680    2.3346
   31.695    2.4223
   31.710    2.5101
   31.725    2.3346
   31.740    2.4223
   31.755    2.2643
   31.770    2.4048
   31.785    2.4574
   31.800    2.6856
   31.815    2.6856
   31.830    2.7558
   31.845    2.6330
   31.860    2.5101
   31.875    2.5979
   31.890    2.4574
   31.905    2.7032
   31.920    2.7383
   31.935    2.6681
   31.950    2.4750
   31.965    2.7207
   31.980    2.7558
   31.995    2.2117
   32.010    2.4399
   32.025    2.2468
   32.040    2.5101
   32.055    2.9840
   32.070    3.1947
   32.085    3.3000
   32.100    3.1771
   32.115    3.3351
   32.130    3.1069
   32.145    2.9840
   32.160    2.7734
   32.175    2.5452
   32.190    2.5276
   32.205    2.5979
   32.220    2.4048
   32.235    2.5628
   32.250    2.7558
   32.265    2.3170
   32.280    2.3521
   32.295    2.3346
   32.310    2.4399
   32.325    2.3697
   32.340    2.0713
   32.355    2.3872
   32.370    2.4925
   32.385    2.3170
   32.400    2.3170
   32.415    2.3872
   32.430    2.2819
   32.445    2.4048
   32.460    2.2819
   32.475    2.2819
   32.490    2.3346
   32.505    2.3346
   32.520    2.5628
   32.535    2.5276
   32.550    2.2643
   32.565    2.4574
   32.580    2.5452
   32.595    2.3697
   32.610    2.2819
   32.625    2.2643
   32.640    2.0537
   32.655    2.3872
   32.670    2.2643
   32.685    2.5628
   32.700    2.2643
   32.715    2.3521
   32.730    2.5979
   32.745    2.7909
   32.760    2.1766
   32.775    2.2643
   32.790    2.2292
   32.805    2.3697
   32.820    2.4223
   32.835    2.5101
   32.850    2.3521
   32.865    2.4048
   32.880    2.4750
   32.895    2.3872
   32.910    2.2643
   32.925    2.3170
   32.940    2.4399
   32.955    2.3872
   32.970    2.3697
   32.985    2.5101
   33.000    2.0713
   33.015    2.1766
   33.030    2.1941
   33.045    2.0888
   33.060    2.1064
   33.075    2.4750
   33.090    2.4223
   33.105    2.1415
   33.120    2.1941
   33.135    2.4750
   33.150    2.2995
   33.165    2.2995
   33.180    2.3346
   33.195    2.5452
   33.210    2.2643
   33.225    2.2819
   33.240    2.2292
   33.255    2.3872
   33.270    2.4750
   33.285    2.4399
   33.300    2.1590
   33.315    2.0362
   33.330    2.1064
   33.345    2.3170
   33.360    2.1415
   33.375    2.1064
   33.390    2.5803
   33.405    2.4048
   33.420    2.3697
   33.435    2.3697
   33.450    2.2819
   33.465    2.4223
   33.480    2.2117
   33.495    1.9308
   33.510    2.1766
   33.525    2.3346
   33.540    2.2468
   33.555    2.3872
   33.570    2.5803
   33.585    2.4223
   33.600    2.2468
   33.615    2.1239
   33.630    2.3170
   33.645    2.3521
   33.660    2.3346
   33.675    2.4223
   33.690    2.3170
   33.705    2.2819
   33.720    2.2468
   33.735    2.4223
   33.750    2.1239
   33.765    2.3170
   33.780    2.3521
   33.795    2.4574
   33.810    2.5979
   33.825    2.5979
   33.840    2.4223
   33.855    2.8612
   33.870    2.5803
   33.885    2.7032
   33.900    2.2292
   33.915    2.2292
   33.930    2.3521
   33.945    2.4048
   33.960    2.3872
   33.975    2.4750
   33.990    2.2468
   34.005    2.1239
   34.020    2.2995
   34.035    2.1941
   34.050    2.2995
   34.065    2.1415
   34.080    2.2995
   34.095    2.1941
   34.110    2.3521
   34.125    2.4223
   34.140    2.3521
   34.155    2.4223
   34.170    2.5803
   34.185    2.2292
   34.200    2.0362
   34.215    2.1239
   34.230    2.2819
   34.245    2.5803
   34.260    2.3872
   34.275    2.3170
   34.290    2.3521
   34.305    2.1239
   34.320    2.3346
   34.335    2.3346
   34.350    2.3872
   34.365    2.2819
   34.380    2.2292
   34.395    2.2117
   34.410    2.0713
   34.425    2.3697
   34.440    2.1590
   34.455    2.0537
   34.470    2.4750
   34.485    2.2117
   34.500    2.1941
   34.515    2.0011
   34.530    2.1766
   34.545    2.1239
   34.560    2.2643
   34.575    2.1415
   34.590    2.4574
   34.605    2.2995
   34.620    2.1590
   34.635    2.2995
   34.650    2.2643
   34.665    2.0537
   34.680    2.1941
   34.695    2.2995
   34.710    2.4399
   34.725    2.5803
   34.740    2.4223
   34.755    2.3697
   34.770    2.2292
   34.785    2.3697
   34.800    2.6330
   34.815    2.5628
   34.830    2.4750
   34.845    2.3170
   34.860    2.2995
   34.875    2.2995
   34.890    2.2468
   34.905    2.4223
   34.920    2.2117
   34.935    2.3170
   34.950    2.4399
   34.965    2.2819
   34.980    2.3170
   34.995    2.1941
   35.010    2.2117
   35.025    2.3521
   35.040    2.4399
   35.055    2.1590
   35.070    2.2117
   35.085    2.1941
   35.100    2.0011
   35.115    2.2819
   35.130    2.2995
   35.145    2.2819
   35.160    2.2819
   35.175    2.3697
   35.190    2.1766
   35.205    2.1941
   35.220    2.4223
   35.235    2.1766
   35.250    2.4399
   35.265    2.0011
   35.280    2.2468
   35.295    2.3697
   35.310    2.3346
   35.325    2.1064
   35.340    2.4750
   35.355    2.2292
   35.370    2.0186
   35.385    2.0011
   35.400    2.1590
   35.415    2.1941
   35.430    2.5101
   35.445    2.1590
   35.460    2.2468
   35.475    2.3346
   35.490    2.0011
   35.505    2.4048
   35.520    2.3872
   35.535    2.0537
   35.550    2.0362
   35.565    2.3697
   35.580    2.2819
   35.595    2.2819
   35.610    1.9484
   35.625    1.9133
   35.640    2.3697
   35.655    2.1766
   35.670    2.2995
   35.685    2.1941
   35.700    2.0888
   35.715    2.1239
   35.730    2.2292
   35.745    2.4750
   35.760    2.0362
   35.775    2.0713
   35.790    2.0011
   35.805    2.1941
   35.820    2.2995
   35.835    2.3697
   35.850    2.3872
   35.865    2.1064
   35.880    2.2292
   35.895    2.4925
   35.910    2.3697
   35.925    2.2819
   35.940    2.2292
   35.955    2.1064
   35.970    2.6154
   35.985    2.0011
   36.000    2.3521
   36.015    2.5276
   36.030    2.2643
   36.045    2.0713
   36.060    1.8957
   36.075    1.9659
   36.090    2.2819
   36.105    2.4574
   36.120    1.9835
   36.135    2.3697
   36.150    2.3170
   36.165    2.0362
   36.180    2.0011
   36.195    2.0888
   36.210    2.0713
   36.225    2.2819
   36.240    1.8255
   36.255    2.1590
   36.270    2.1941
   36.285    2.1239
   36.300    2.2468
   36.315    2.1064
   36.330    2.2117
   36.345    2.3170
   36.360    2.1064
   36.375    2.1766
   36.390    1.9659
   36.405    2.1590
   36.420    2.1064
   36.435    2.2117
   36.450    2.4750
   36.465    2.4750
   36.480    2.2995
   36.495    2.4750
   36.510    2.3697
   36.525    2.1590
   36.540    2.3346
   36.555    2.1415
   36.570    2.0537
   36.585    1.6675
   36.600    2.0362
   36.615    2.1941
   36.630    2.1590
   36.645    2.4048
   36.660    2.0186
   36.675    2.2819
   36.690    2.4223
   36.705    2.1415
   36.720    2.1239
   36.735    2.0362
   36.750    2.0713
   36.765    2.0186
   36.780    2.1415
   36.795    2.0011
   36.810    1.8957
   36.825    2.2468
   36.840    2.1941
   36.855    2.1766
   36.870    2.2292
   36.885    2.0888
   36.900    2.2819
   36.915    2.0186
   36.930    2.2292
   36.945    2.2643
   36.960    2.3170
   36.975    2.1590
   36.990    2.1590
   37.005    2.1239
   37.020    2.0713
   37.035    2.3872
   37.050    2.2117
   37.065    2.3872
   37.080    2.4399
   37.095    2.4399
   37.110    2.4750
   37.125    2.1239
   37.140    2.3346
   37.155    2.4223
   37.170    2.4574
   37.185    2.1590
   37.200    2.0537
   37.215    2.0713
   37.230    2.0713
   37.245    1.8606
   37.260    1.9835
   37.275    2.0011
   37.290    2.2819
   37.305    2.0186
   37.320    2.0713
   37.335    2.1415
   37.350    2.2819
   37.365    2.1590
   37.380    2.1064
   37.395    2.0362
   37.410    2.1766
   37.425    2.1766
   37.440    2.0537
   37.455    1.9659
   37.470    2.0011
   37.485    2.0011
   37.500    2.0186
   37.515    2.2643
   37.530    2.4574
   37.545    2.4048
   37.560    2.3872
   37.575    2.0011
   37.590    1.9835
   37.605    2.1415
   37.620    2.0537
   37.635    2.2468
   37.650    2.2995
   37.665    2.0537
   37.680    2.0537
   37.695    2.1064
   37.710    2.0011
   37.725    2.4925
   37.740    2.2643
   37.755    2.3170
   37.770    2.3697
   37.785    2.1590
   37.800    1.9659
   37.815    2.1415
   37.830    1.9835
   37.845    2.0537
   37.860    2.1064
   37.875    2.2995
   37.890    2.2117
   37.905    2.1064
   37.920    2.3170
   37.935    2.2819
   37.950    2.2292
   37.965    2.2819
   37.980    2.0888
   37.995    1.9659
   38.010    2.1590
   38.025    2.1239
   38.040    2.0186
   38.055    2.0713
   38.070    2.1415
   38.085    2.0713
   38.100    2.0537
   38.115    2.1239
   38.130    2.0186
   38.145    2.0362
   38.160    1.9484
   38.175    2.0537
   38.190    2.1766
   38.205    2.1941
   38.220    2.1941
   38.235    2.1415
   38.250    2.0362
   38.265    2.2117
   38.280    2.2292
   38.295    2.0011
   38.310    1.8957
   38.325    1.7729
   38.340    1.9133
   38.355    2.3521
   38.370    1.9659
   38.385    1.9308
   38.400    2.1941
   38.415    2.2468
   38.430    2.0537
   38.445    1.7904
   38.460    1.9484
   38.475    1.9308
   38.490    2.0362
   38.505    2.1590
   38.520    2.3872
   38.535    1.9484
   38.550    2.2117
   38.565    2.2643
   38.580    2.1415
   38.595    2.0713
   38.610    2.6330
   38.625    2.1064
   38.640    2.3872
   38.655    2.0888
   38.670    2.0011
   38.685    2.1941
   38.700    1.8957
   38.715    2.0537
   38.730    2.2292
   38.745    2.1239
   38.760    2.1415
   38.775    1.9835
   38.790    2.0537
   38.805    2.0011
   38.820    2.0011
   38.835    2.0011
   38.850    2.1590
   38.865    2.0362
   38.880    2.0011
   38.895    2.0713
   38.910    2.0362
   38.925    2.0011
   38.940    1.8431
   38.955    2.1766
   38.970    1.6675
   38.985    1.8606
   39.000    1.8957
   39.015    1.9133
   39.030    1.9484
   39.045    2.1590
   39.060    1.9133
   39.075    1.6851
   39.090    1.9484
   39.105    2.1415
   39.120    2.0011
   39.135    2.0011
   39.150    1.9484
   39.165    2.0888
   39.180    2.0011
   39.195    1.8782
   39.210    2.0713
   39.225    1.8957
   39.240    2.3521
   39.255    2.1941
   39.270    2.0362
   39.285    2.1941
   39.300    2.2643
   39.315    2.4925
   39.330    2.1766
   39.345    1.7027
   39.360    1.9308
   39.375    1.9835
   39.390    2.1064
   39.405    1.9484
   39.420    2.1766
   39.435    2.2819
   39.450    2.2292
   39.465    2.0362
   39.480    2.1590
   39.495    2.1766
   39.510    1.7904
   39.525    1.9308
   39.540    1.9308
   39.555    2.0713
   39.570    2.1590
   39.585    2.0362
   39.600    1.9659
   39.615    1.9133
   39.630    1.7904
   39.645    2.0011
   39.660    2.2995
   39.675    2.1064
   39.690    2.1415
   39.705    2.1415
   39.720    2.1064
   39.735    1.8606
   39.750    1.9484
   39.765    2.1064
   39.780    1.9659
   39.795    2.0537
   39.810    1.9835
   39.825    1.8957
   39.840    1.9133
   39.855    1.9308
   39.870    2.0362
   39.885    2.2819
   39.900    2.2117
   39.915    2.0537
   39.930    2.0713
   39.945    2.2292
   39.960    2.0186
   39.975    2.0362
   39.990    1.9835
