    1.500   20.6846
    1.515   20.6424
    1.530   20.7267
    1.545   20.8426
    1.560   20.5582
    1.575   20.0843
    1.590   19.7578
    1.605   19.0627
    1.620   19.0837
    1.635   19.9368
    1.650   19.9895
    1.665   19.7894
    1.680   18.9784
    1.695   18.3886
    1.710   18.2833
    1.725   19.0521
    1.740   18.9047
    1.755   18.5255
    1.770   18.4834
    1.785   17.9042
    1.800   17.5777
    1.815   17.7462
    1.830   18.2622
    1.845   17.7041
    1.860   17.6619
    1.875   17.8831
    1.890   17.9358
    1.905   17.4197
    1.920   17.0616
    1.935   17.3776
    1.950   17.4934
    1.965   16.5771
    1.980   16.6825
    1.995   17.0616
    2.010   17.4513
    2.025   16.9352
    2.040   16.9247
    2.055   16.3560
    2.070   16.2401
    2.085   17.1880
    2.100   16.6087
    2.115   16.1348
    2.130   16.0506
    2.145   16.8194
    2.160   17.1564
    2.175   17.2196
    2.190   16.1032
    2.205   16.3665
    2.220   16.4192
    2.235   16.7035
    2.250   16.5350
    2.265   16.3876
    2.280   15.9979
    2.295   16.3349
    2.310   17.0616
    2.325   16.7562
    2.340   15.7767
    2.355   16.6825
    2.370   16.5877
    2.385   16.3560
    2.400   16.7983
    2.415   16.6614
    2.430   16.0400
    2.445   16.4824
    2.460   16.6298
    2.475   16.3770
    2.490   15.8820
    2.505   16.2507
    2.520   15.7662
    2.535   15.6082
    2.550   15.7662
    2.565   15.5029
    2.580   15.6398
    2.595   15.5345
    2.610   15.4924
    2.625   15.8926
    2.640   15.7030
    2.655   15.1764
    2.670   14.9763
    2.685   14.8815
    2.700   15.0500
    2.715   14.9763
    2.730   14.7341
    2.745   14.8078
    2.760   14.7551
    2.775   14.7551
    2.790   14.8499
    2.805   14.0600
    2.820   14.5972
    2.835   14.6498
    2.850   14.4181
    2.865   14.1443
    2.880   14.3233
    2.895   14.4813
    2.910   14.0811
    2.925   13.8705
    2.940   14.3549
    2.955   14.4602
    2.970   14.2391
    2.985   13.4913
    3.000   13.8073
    3.015   13.7967
    3.030   13.6598
    3.045   13.4176
    3.060   13.0700
    3.075   13.4492
    3.090   13.7230
    3.105   13.4702
    3.120   13.3860
    3.135   12.8383
    3.150   13.2701
    3.165   13.6177
    3.180   13.3017
    3.195   13.5018
    3.210   13.5966
    3.225   13.3333
    3.240   13.8178
    3.255   13.6598
    3.270   13.5966
    3.285   13.4492
    3.300   13.9126
    3.315   13.3439
    3.330   13.5229
    3.345   13.3860
    3.360   12.9963
    3.375   13.1016
    3.390   12.8805
    3.405   11.9958
    3.420   12.1011
    3.435   11.5850
    3.450   11.0374
    3.465   11.3744
    3.480   10.9637
    3.495   10.6898
    3.510   10.9005
    3.525   10.4371
    3.540   10.4687
    3.555   10.1316
    3.570   10.6266
    3.585   10.8794
    3.600   10.3002
    3.615   10.0579
    3.630   10.0895
    3.645   10.2475
    3.660    9.8262
    3.675   10.4371
    3.690    9.9842
    3.705    9.6156
    3.720   10.1948
    3.735    9.8157
    3.750   10.2580
    3.765    9.3628
    3.780   10.0790
    3.795    9.9105
    3.810   10.2370
    3.825   10.3844
    3.840   10.3107
    3.855    9.4997
    3.870    9.4260
    3.885    9.6051
    3.900    9.4576
    3.915    9.4471
    3.930    9.2786
    3.945    9.5419
    3.960    9.5629
    3.975    9.5419
    3.990    9.5524
    4.005    9.3418
    4.020    9.2259
    4.035    9.2259
    4.050    9.2786
    4.065    9.6893
    4.080    9.7104
    4.095    9.3628
    4.110    9.4681
    4.125    9.4471
    4.140    9.6577
    4.155    9.6261
    4.170   10.1211
    4.185    9.6682
    4.200    9.6577
    4.215    9.5103
    4.230    9.0995
    4.245    8.8889
    4.260    9.0785
    4.275    8.8257
    4.290    8.9415
    4.305    9.3418
    4.320    9.4155
    4.335    9.2259
    4.350    9.1627
    4.365    9.3944
    4.380    9.2891
    4.395    9.2154
    4.410    9.0890
    4.425    9.1732
    4.440    8.8784
    4.455    9.1311
    4.470    9.3312
    4.485    9.1522
    4.500    8.9205
    4.515    9.4155
    4.530    9.6156
    4.545    9.4260
    4.560    9.1101
    4.575    8.9205
    4.590    9.3312
    4.605    8.9521
    4.620    9.1838
    4.635    9.1838
    4.650    9.5629
    4.665    8.9100
    4.680    9.6788
    4.695    9.2680
    4.710    9.3207
    4.725    9.1732
    4.740    8.9731
    4.755    9.1943
    4.770    9.4576
    4.785    9.6893
    4.800    9.6998
    4.815    9.8157
    4.830    9.8052
    4.845    9.4260
    4.860   10.5213
    4.875   10.4055
    4.890    9.7946
    4.905    9.7525
    4.920   10.2264
    4.935   10.1738
    4.950   10.1527
    4.965   10.5108
    4.980   10.3528
    4.995   10.0895
    5.010   10.7425
    5.025    9.9526
    5.040    9.7841
    5.055   10.2896
    5.070    9.8684
    5.085   10.4055
    5.100   10.1422
    5.115   10.5108
    5.130   10.1001
    5.145   10.2896
    5.160    9.8578
    5.175    9.6893
    5.190    9.8157
    5.205   10.0053
    5.220    9.6577
    5.235    9.4787
    5.250   10.1106
    5.265   10.0790
    5.280    9.5208
    5.295   10.0263
    5.310    9.9421
    5.325    9.8368
    5.340    9.6367
    5.355   10.1316
    5.370   10.1211
    5.385   10.2580
    5.400   10.4792
    5.415   11.0479
    5.430   11.0163
    5.445   10.8583
    5.460   11.1532
    5.475   10.8583
    5.490   10.8794
    5.505   10.9110
    5.520   10.1106
    5.535   10.2054
    5.550   10.1211
    5.565    9.9526
    5.580    9.7420
    5.595    9.5629
    5.610    9.1838
    5.625    8.4781
    5.640    8.7941
    5.655    9.0995
    5.670    8.7941
    5.685    8.7625
    5.700    8.9415
    5.715    8.7204
    5.730    8.9521
    5.745    8.9731
    5.760    8.4360
    5.775    8.2359
    5.790    8.8046
    5.805    8.5835
    5.820    8.6993
    5.835    8.4887
    5.850    8.7520
    5.865    8.4044
    5.880    8.6256
    5.895    9.5313
    5.910    8.8257
    5.925    8.7941
    5.940    8.8152
    5.955    8.8046
    5.970    8.5729
    5.985    8.3834
    6.000    8.6151
    6.015    8.8046
    6.030    8.9415
    6.045    8.7414
    6.060    8.2043
    6.075    8.3939
    6.090    9.1627
    6.105    9.0785
    6.120    8.8257
    6.135    9.2154
    6.150    8.8257
    6.165    8.7204
    6.180    8.6993
    6.195    9.0574
    6.210    8.9731
    6.225    9.0047
    6.240    9.1522
    6.255    8.4992
    6.270    8.6888
    6.285    8.5729
    6.300    8.8784
    6.315    9.1311
    6.330    9.0785
    6.345    9.0363
    6.360    9.2680
    6.375    9.4365
    6.390    9.0890
    6.405    9.7525
    6.420    9.4576
    6.435    9.9631
    6.450    9.1311
    6.465    9.8052
    6.480   10.0263
    6.495   10.1211
    6.510    9.7630
    6.525   10.3212
    6.540   10.1106
    6.555    9.7736
    6.570    9.8684
    6.585   10.5319
    6.600   10.4687
    6.615   10.6688
    6.630   11.0479
    6.645   11.1111
    6.660   11.3007
    6.675   11.4903
    6.690   12.0695
    6.705   11.6166
    6.720   12.1538
    6.735   12.5013
    6.750   12.4487
    6.765   12.8278
    6.780   12.3117
    6.795   12.0169
    6.810   11.7852
    6.825   11.3639
    6.840   10.8478
    6.855   10.4265
    6.870   10.6477
    6.885   10.9005
    6.900   10.4792
    6.915   10.4371
    6.930   10.0685
    6.945   10.6266
    6.960   10.6898
    6.975   10.1632
    6.990    9.6472
    7.005   10.0474
    7.020   10.2370
    7.035    9.7209
    7.050    9.5313
    7.065    9.3523
    7.080    9.1101
    7.095    9.2891
    7.110    9.4787
    7.125    9.3628
    7.140    9.2575
    7.155    9.7525
    7.170    9.2154
    7.185    8.5835
    7.200    8.9415
    7.215    8.9521
    7.230    9.1522
    7.245    9.6788
    7.260    9.2470
    7.275    9.4997
    7.290    9.6472
    7.305    9.3944
    7.320    9.1417
    7.335    9.2575
    7.350    9.6367
    7.365    9.3628
    7.380    9.4997
    7.395    9.8052
    7.410    9.6367
    7.425    9.5419
    7.440    8.9310
    7.455    9.0679
    7.470    9.6156
    7.485    9.6261
    7.500    9.1101
    7.515    9.1838
    7.530    9.1627
    7.545    9.0574
    7.560    9.4155
    7.575    9.2154
    7.590    8.6993
    7.605    8.6256
    7.620    9.1627
    7.635    9.1732
    7.650    9.0363
    7.665    8.4150
    7.680    8.4466
    7.695    8.3728
    7.710    8.2780
    7.725    8.2464
    7.740    8.8994
    7.755    9.1522
    7.770    8.4571
    7.785    8.3939
    7.800    8.4992
    7.815    8.6993
    7.830    8.6361
    7.845    8.6572
    7.860    8.7098
    7.875    8.6256
    7.890    8.3834
    7.905    8.7098
    7.920    8.2886
    7.935    8.5203
    7.950    9.0785
    7.965    8.6256
    7.980    8.7204
    7.995    8.7836
    8.010    8.6467
    8.025    8.4044
    8.040    8.5308
    8.055    8.8257
    8.070    8.7941
    8.085    8.3834
    8.100    8.7836
    8.115    9.3102
    8.130    9.0995
    8.145    9.1417
    8.160    9.2786
    8.175    9.1732
    8.190    8.8468
    8.205    8.9100
    8.220    8.6993
    8.235    8.5729
    8.250    8.3728
    8.265    8.5203
    8.280    8.5729
    8.295    9.0890
    8.310    9.1206
    8.325    8.8046
    8.340    8.8573
    8.355    8.7941
    8.370    8.9942
    8.385    9.0469
    8.400    9.1732
    8.415    9.1522
    8.430    8.9521
    8.445    9.0679
    8.460    9.0047
    8.475    9.1732
    8.490    9.2891
    8.505    9.4576
    8.520    9.3418
    8.535    9.8368
    8.550    9.6261
    8.565    9.7946
    8.580    9.8262
    8.595   10.1948
    8.610   10.4371
    8.625   10.6477
    8.640   10.6266
    8.655   10.0369
    8.670    9.9526
    8.685    9.5735
    8.700    9.8052
    8.715    9.0785
    8.730    9.2259
    8.745    8.7414
    8.760    9.4260
    8.775    8.9731
    8.790    8.6151
    8.805    8.8362
    8.820    9.1732
    8.835    8.8573
    8.850    9.0153
    8.865    9.1732
    8.880    9.1943
    8.895    9.4576
    8.910    9.3102
    8.925    9.1943
    8.940    9.4787
    8.955    9.3102
    8.970    9.2154
    8.985    9.4471
    9.000    9.3102
    9.015    9.0153
    9.030    9.4260
    9.045    9.5419
    9.060    9.2680
    9.075    9.3418
    9.090    8.9205
    9.105    9.1522
    9.120    9.0574
    9.135    9.1417
    9.150    9.1311
    9.165    9.0574
    9.180    9.2364
    9.195    9.1627
    9.210    9.6472
    9.225    9.3523
    9.240    9.4365
    9.255    9.3418
    9.270    9.0469
    9.285    9.6472
    9.300    9.0469
    9.315    9.1417
    9.330    9.3207
    9.345    9.6156
    9.360    9.4471
    9.375    9.1417
    9.390    9.0363
    9.405    8.8994
    9.420    8.7414
    9.435    8.8784
    9.450    8.9731
    9.465    9.0679
    9.480    9.2259
    9.495    8.9521
    9.510    9.1943
    9.525    9.1732
    9.540    8.8468
    9.555    9.3102
    9.570    9.2891
    9.585    9.1522
    9.600    9.1206
    9.615    9.0890
    9.630    9.0047
    9.645    9.1522
    9.660    9.1417
    9.675    9.2364
    9.690    9.1838
    9.705    9.8473
    9.720    9.7946
    9.735    9.1311
    9.750    9.0679
    9.765    9.5419
    9.780    9.7630
    9.795    9.9210
    9.810    9.6156
    9.825    9.5208
    9.840   10.1948
    9.855   10.6477
    9.870   10.3633
    9.885   10.1948
    9.900   10.7320
    9.915   10.3318
    9.930   10.4687
    9.945   10.5424
    9.960   11.0163
    9.975   10.9637
    9.990   10.8478
   10.005   11.3112
   10.020   11.0163
   10.035   11.2480
   10.050   11.0690
   10.065   11.1954
   10.080   10.9953
   10.095   11.3428
   10.110   11.5745
   10.125   11.7325
   10.140   12.2275
   10.155   12.1854
   10.170   12.2486
   10.185   12.4592
   10.200   12.9015
   10.215   13.6809
   10.230   13.2807
   10.245   13.5124
   10.260   13.4492
   10.275   12.6804
   10.290   11.9537
   10.305   11.0058
   10.320   10.5845
   10.335   10.2686
   10.350   10.1738
   10.365   10.2475
   10.380   10.0158
   10.395    9.7209
   10.410    9.2154
   10.425    9.5313
   10.440    9.5313
   10.455    9.2470
   10.470    8.8468
   10.485    9.3418
   10.500    9.4892
   10.515    9.6261
   10.530    9.3839
   10.545    9.4471
   10.560    9.0890
   10.575    9.1838
   10.590    9.2996
   10.605    9.4892
   10.620    9.4155
   10.635    9.1311
   10.650    9.3312
   10.665    9.6893
   10.680    9.4576
   10.695    9.5735
   10.710   10.0053
   10.725    9.9210
   10.740    9.5945
   10.755   10.2791
   10.770   10.0685
   10.785    9.6893
   10.800   10.1738
   10.815   10.1843
   10.830   10.5951
   10.845   10.6898
   10.860   11.0585
   10.875   11.7746
   10.890   11.6377
   10.905   12.5224
   10.920   12.5434
   10.935   12.5645
   10.950   12.6909
   10.965   13.4281
   10.980   13.8389
   10.995   13.2912
   11.010   12.7857
   11.025   12.3749
   11.040   12.3012
   11.055   12.0063
   11.070   11.7430
   11.085   12.0379
   11.100   11.6166
   11.115   11.3744
   11.130   10.8162
   11.145   11.0479
   11.160   11.0058
   11.175   10.5003
   11.190   10.4055
   11.205   10.2686
   11.220    9.9842
   11.235    9.7841
   11.250    9.6893
   11.265    9.5208
   11.280    9.0574
   11.295    9.1627
   11.310    9.2154
   11.325    9.1101
   11.340    9.0574
   11.355    9.2786
   11.370    9.1732
   11.385    9.3312
   11.400    9.3734
   11.415    9.2786
   11.430    9.6577
   11.445    8.9205
   11.460    9.1943
   11.475    9.1943
   11.490    9.1732
   11.505    9.3839
   11.520    9.0153
   11.535    9.0363
   11.550    8.7309
   11.565    9.0153
   11.580    9.1838
   11.595    9.0258
   11.610    8.7730
   11.625    8.6677
   11.640    8.6467
   11.655    8.7414
   11.670    8.4781
   11.685    8.9310
   11.700    8.3834
   11.715    8.1095
   11.730    8.3834
   11.745    8.2464
   11.760    8.6888
   11.775    8.3728
   11.790    8.4781
   11.805    8.5203
   11.820    8.3518
   11.835    8.2149
   11.850    8.1622
   11.865    8.1727
   11.880    8.5835
   11.895    8.3834
   11.910    8.2570
   11.925    8.3412
   11.940    8.1095
   11.955    8.7836
   11.970    8.1306
   11.985    7.5724
   12.000    7.7409
   12.015    8.0358
   12.030    8.3623
   12.045    8.1833
   12.060    8.1517
   12.075    7.8568
   12.090    8.1201
   12.105    8.4360
   12.120    8.4150
   12.135    8.1201
   12.150    8.1411
   12.165    8.1517
   12.180    8.3096
   12.195    8.0147
   12.210    7.9937
   12.225    8.4676
   12.240    8.4150
   12.255    8.5729
   12.270    8.2886
   12.285    7.9200
   12.300    8.2359
   12.315    8.3412
   12.330    8.2464
   12.345    7.8568
   12.360    8.4676
   12.375    8.0779
   12.390    8.5519
   12.405    8.7730
   12.420    8.1517
   12.435    8.3307
   12.450    8.4676
   12.465    8.1201
   12.480    8.1622
   12.495    8.1411
   12.510    8.0990
   12.525    8.4992
   12.540    8.3834
   12.555    8.2254
   12.570    7.9410
   12.585    8.3307
   12.600    8.0253
   12.615    8.1201
   12.630    7.4250
   12.645    8.1095
   12.660    7.3934
   12.675    7.9200
   12.690    8.3728
   12.705    8.3096
   12.720    8.1411
   12.735    8.3202
   12.750    7.8989
   12.765    7.7830
   12.780    7.9831
   12.795    8.2149
   12.810    7.9726
   12.825    7.8568
   12.840    8.0569
   12.855    7.8146
   12.870    7.9831
   12.885    8.0674
   12.900    8.2675
   12.915    8.2464
   12.930    7.9831
   12.945    7.8989
   12.960    7.6883
   12.975    8.1833
   12.990    7.9621
   13.005    7.7199
   13.020    7.7409
   13.035    8.2254
   13.050    7.9516
   13.065    8.0042
   13.080    8.3307
   13.095    7.8462
   13.110    7.8357
   13.125    7.8462
   13.140    8.7309
   13.155    8.1517
   13.170    8.7730
   13.185    8.2254
   13.200    8.0990
   13.215    8.4360
   13.230    8.0358
   13.245    8.0042
   13.260    7.9410
   13.275    8.1517
   13.290    8.6677
   13.305    8.3728
   13.320    8.4044
   13.335    7.9094
   13.350    8.0674
   13.365    8.4781
   13.380    8.2043
   13.395    8.4992
   13.410    8.0779
   13.425    7.8146
   13.440    8.5624
   13.455    8.4992
   13.470    8.1306
   13.485    8.3728
   13.500    8.2675
   13.515    7.9937
   13.530    8.0358
   13.545    8.0358
   13.560    7.8568
   13.575    8.0042
   13.590    7.9831
   13.605    7.9516
   13.620    8.0042
   13.635    7.9516
   13.650    7.7409
   13.665    7.8252
   13.680    7.8146
   13.695    8.0463
   13.710    7.5935
   13.725    7.5197
   13.740    7.7514
   13.755    7.2565
   13.770    7.8989
   13.785    7.6145
   13.800    8.0147
   13.815    8.0253
   13.830    7.8568
   13.845    7.5303
   13.860    7.7514
   13.875    7.3302
   13.890    7.9516
   13.905    7.9305
   13.920    7.7093
   13.935    7.7514
   13.950    7.6251
   13.965    7.8462
   13.980    7.7199
   13.995    7.6883
   14.010    7.9200
   14.025    8.2149
   14.040    7.4039
   14.055    7.3091
   14.070    7.8252
   14.085    7.7409
   14.100    7.9305
   14.115    7.4776
   14.130    7.6040
   14.145    7.8357
   14.160    7.8673
   14.175    8.0463
   14.190    7.9094
   14.205    7.8778
   14.220    7.9305
   14.235    7.7620
   14.250    7.4987
   14.265    7.8884
   14.280    7.7725
   14.295    8.0042
   14.310    7.7093
   14.325    7.4355
   14.340    7.8462
   14.355    7.9094
   14.370    7.9726
   14.385    7.6777
   14.400    7.8989
   14.415    7.6040
   14.430    7.6777
   14.445    7.8884
   14.460    7.8568
   14.475    7.8673
   14.490    7.3723
   14.505    7.6040
   14.520    7.6988
   14.535    7.5513
   14.550    7.5197
   14.565    7.7514
   14.580    7.3618
   14.595    7.3618
   14.610    7.5197
   14.625    7.7514
   14.640    7.4566
   14.655    7.5513
   14.670    8.0463
   14.685    7.9200
   14.700    7.9726
   14.715    8.2359
   14.730    8.0569
   14.745    7.7830
   14.760    7.9094
   14.775    8.0147
   14.790    7.8778
   14.805    7.2880
   14.820    7.8357
   14.835    8.1517
   14.850    8.0674
   14.865    7.7725
   14.880    8.3412
   14.895    8.3412
   14.910    8.1517
   14.925    8.7625
   14.940    8.9837
   14.955    9.1206
   14.970    9.1522
   14.985    9.4997
   15.000    9.6367
   15.015    9.3839
   15.030    9.5524
   15.045    8.9942
   15.060    8.7941
   15.075    9.0258
   15.090    8.2991
   15.105    7.8146
   15.120    7.9726
   15.135    8.0569
   15.150    8.3939
   15.165    7.9831
   15.180    8.0885
   15.195    7.8146
   15.210    8.0042
   15.225    7.8146
   15.240    7.7620
   15.255    7.7830
   15.270    7.9621
   15.285    8.1727
   15.300    7.4882
   15.315    7.5724
   15.330    7.7620
   15.345    7.5724
   15.360    7.6883
   15.375    7.6672
   15.390    8.0674
   15.405    8.0463
   15.420    8.4255
   15.435    7.7409
   15.450    7.8146
   15.465    7.8989
   15.480    7.5197
   15.495    7.6883
   15.510    7.7409
   15.525    7.8357
   15.540    7.6883
   15.555    8.0463
   15.570    7.9831
   15.585    8.2254
   15.600    7.8778
   15.615    8.2570
   15.630    8.0885
   15.645    8.0779
   15.660    7.9621
   15.675    8.1095
   15.690    8.0042
   15.705    8.1727
   15.720    8.2570
   15.735    8.1622
   15.750    7.9937
   15.765    7.8989
   15.780    8.2149
   15.795    8.4466
   15.810    8.4044
   15.825    8.3939
   15.840    8.2780
   15.855    8.3202
   15.870    8.5624
   15.885    8.4360
   15.900    8.6256
   15.915    8.5940
   15.930    8.8889
   15.945    8.9942
   15.960    8.6256
   15.975    8.5940
   15.990    8.4255
   16.005    8.7309
   16.020    8.8678
   16.035    8.3096
   16.050    7.7093
   16.065    8.4571
   16.080    8.3202
   16.095    8.3412
   16.110    7.8146
   16.125    7.8252
   16.140    7.8357
   16.155    7.8357
   16.170    8.0990
   16.185    7.8252
   16.200    8.0779
   16.215    8.1095
   16.230    8.1833
   16.245    7.8989
   16.260    7.8462
   16.275    7.9726
   16.290    8.2043
   16.305    8.1727
   16.320    8.2043
   16.335    8.4887
   16.350    8.4044
   16.365    8.6361
   16.380    9.0047
   16.395    8.8784
   16.410    8.6361
   16.425    8.8046
   16.440    8.3728
   16.455    8.3202
   16.470    8.5308
   16.485    8.5519
   16.500    8.4360
   16.515    8.3834
   16.530    9.0047
   16.545    8.6151
   16.560    7.8357
   16.575    8.5519
   16.590    8.1201
   16.605    8.0358
   16.620    8.1517
   16.635    8.3939
   16.650    8.0779
   16.665    7.5724
   16.680    8.1622
   16.695    7.9094
   16.710    7.9937
   16.725    7.8673
   16.740    7.9410
   16.755    8.1727
   16.770    8.4255
   16.785    7.9094
   16.800    7.8252
   16.815    7.8989
   16.830    7.8252
   16.845    7.9200
   16.860    7.9937
   16.875    7.7199
   16.890    7.9200
   16.905    8.0042
   16.920    8.1095
   16.935    8.1306
   16.950    7.9726
   16.965    8.0147
   16.980    7.9094
   16.995    7.8146
   17.010    8.3728
   17.025    8.1095
   17.040    7.8884
   17.055    7.7725
   17.070    7.6145
   17.085    7.6672
   17.100    7.8041
   17.115    7.9726
   17.130    7.8252
   17.145    7.9094
   17.160    8.1727
   17.175    8.2675
   17.190    7.8462
   17.205    7.9831
   17.220    7.9621
   17.235    8.4150
   17.250    8.2886
   17.265    8.2464
   17.280    8.0147
   17.295    8.3518
   17.310    8.4360
   17.325    8.2043
   17.340    8.8362
   17.355    8.3939
   17.370    8.6151
   17.385    8.4676
   17.400    8.2991
   17.415    7.9516
   17.430    7.9726
   17.445    8.2570
   17.460    7.9516
   17.475    8.0779
   17.490    7.9937
   17.505    8.0147
   17.520    7.7409
   17.535    7.6883
   17.550    7.7093
   17.565    7.6777
   17.580    8.0358
   17.595    7.7409
   17.610    8.0253
   17.625    8.2675
   17.640    8.2675
   17.655    7.7304
   17.670    7.4882
   17.685    8.4781
   17.700    8.0253
   17.715    7.9200
   17.730    8.1622
   17.745    8.1727
   17.760    7.6356
   17.775    8.2043
   17.790    7.9410
   17.805    8.1622
   17.820    7.7620
   17.835    8.1201
   17.850    8.0569
   17.865    8.6467
   17.880    8.4255
   17.895    8.1727
   17.910    8.5835
   17.925    8.2780
   17.940    8.2886
   17.955    9.0258
   17.970    9.2680
   17.985    9.6788
   18.000    9.6261
   18.015    9.7104
   18.030    9.4787
   18.045    9.6998
   18.060   10.1316
   18.075   10.0369
   18.090   10.0263
   18.105   11.0163
   18.120   10.2054
   18.135   10.0790
   18.150   10.1948
   18.165   10.0369
   18.180   10.0685
   18.195   10.0790
   18.210   10.5740
   18.225   10.4160
   18.240   10.1948
   18.255   10.0685
   18.270    9.3944
   18.285    8.5624
   18.300    8.6572
   18.315    8.6256
   18.330    9.0047
   18.345    8.6045
   18.360    8.1517
   18.375    8.1622
   18.390    8.4150
   18.405    7.8989
   18.420    8.1833
   18.435    8.0253
   18.450    8.0042
   18.465    7.8146
   18.480    7.9094
   18.495    7.8568
   18.510    7.8989
   18.525    7.8146
   18.540    7.9937
   18.555    7.7199
   18.570    8.2043
   18.585    8.0253
   18.600    8.7520
   18.615    8.1095
   18.630    8.0674
   18.645    8.0885
   18.660    8.3307
   18.675    8.3096
   18.690    7.7304
   18.705    8.5519
   18.720    8.2675
   18.735    8.1833
   18.750    8.0463
   18.765    8.4571
   18.780    8.0147
   18.795    8.1622
   18.810    7.9726
   18.825    8.0779
   18.840    7.9726
   18.855    7.8462
   18.870    7.9937
   18.885    8.1622
   18.900    8.3939
   18.915    8.7625
   18.930    8.6677
   18.945    8.5308
   18.960    8.5729
   18.975    8.5413
   18.990    8.8573
   19.005    8.6151
   19.020    8.6045
   19.035    8.7625
   19.050    8.3412
   19.065    8.0358
   19.080    7.8884
   19.095    8.0147
   19.110    8.0042
   19.125    8.0674
   19.140    8.0779
   19.155    8.1517
   19.170    8.0463
   19.185    8.1095
   19.200    8.0885
   19.215    8.1411
   19.230    8.1411
   19.245    7.8146
   19.260    8.0779
   19.275    8.0042
   19.290    7.7725
   19.305    8.3202
   19.320    7.6883
   19.335    8.0147
   19.350    7.9621
   19.365    8.3096
   19.380    7.8462
   19.395    7.8041
   19.410    7.8884
   19.425    7.8462
   19.440    8.4044
   19.455    8.6993
   19.470    8.7204
   19.485    8.4150
   19.500    8.3728
   19.515    8.8046
   19.530    8.9521
   19.545    9.0995
   19.560    9.2364
   19.575    8.8468
   19.590    8.3202
   19.605    8.5413
   19.620    8.8468
   19.635    8.0463
   19.650    8.5729
   19.665    8.4150
   19.680    8.1833
   19.695    7.8778
   19.710    8.5729
   19.725    8.2570
   19.740    7.7620
   19.755    7.7936
   19.770    8.2991
   19.785    7.8568
   19.800    7.7514
   19.815    7.9516
   19.830    8.3307
   19.845    7.9305
   19.860    8.0990
   19.875    7.9305
   19.890    8.1095
   19.905    7.6883
   19.920    7.6145
   19.935    8.1095
   19.950    8.3096
   19.965    8.1727
   19.980    8.3307
   19.995    7.7830
   20.010    8.0358
   20.025    8.4781
   20.040    8.2464
   20.055    7.8357
   20.070    7.7514
   20.085    7.8568
   20.100    8.0674
   20.115    8.2464
   20.130    8.3307
   20.145    8.2780
   20.160    8.2043
   20.175    8.2149
   20.190    8.0569
   20.205    8.0358
   20.220    7.8462
   20.235    7.9621
   20.250    7.6988
   20.265    8.2675
   20.280    8.5835
   20.295    8.3202
   20.310    8.2149
   20.325    7.8884
   20.340    8.0253
   20.355    7.8884
   20.370    8.0674
   20.385    7.9831
   20.400    8.2254
   20.415    8.2886
   20.430    7.8884
   20.445    8.3202
   20.460    7.7093
   20.475    7.6251
   20.490    8.1095
   20.505    8.2043
   20.520    8.1727
   20.535    8.3307
   20.550    8.0885
   20.565    8.0885
   20.580    7.9516
   20.595    8.3518
   20.610    8.1833
   20.625    8.3096
   20.640    8.0147
   20.655    8.1306
   20.670    8.2464
   20.685    7.9516
   20.700    8.1306
   20.715    8.1517
   20.730    7.8146
   20.745    7.8146
   20.760    8.1833
   20.775    8.1201
   20.790    8.0885
   20.805    8.2570
   20.820    7.9410
   20.835    8.3834
   20.850    8.2991
   20.865    8.2991
   20.880    8.1095
   20.895    8.0253
   20.910    7.8673
   20.925    8.1411
   20.940    8.2043
   20.955    8.3412
   20.970    8.6677
   20.985    8.1201
   21.000    8.1938
   21.015    8.3518
   21.030    8.4992
   21.045    8.4676
   21.060    8.1411
   21.075    8.2254
   21.090    8.5940
   21.105    8.6572
   21.120    8.4676
   21.135    8.0463
   21.150    8.6045
   21.165    8.8046
   21.180    8.5308
   21.195    8.6993
   21.210    8.2570
   21.225    8.5940
   21.240    8.6993
   21.255    8.3834
   21.270    8.5203
   21.285    8.2043
   21.300    8.2464
   21.315    8.3096
   21.330    8.7309
   21.345    8.6572
   21.360    8.1517
   21.375    8.7836
   21.390    8.6045
   21.405    8.6783
   21.420    8.4360
   21.435    8.5413
   21.450    7.9726
   21.465    7.9726
   21.480    8.6783
   21.495    8.9415
   21.510    8.7730
   21.525    8.2464
   21.540    8.4992
   21.555    8.4044
   21.570    8.6888
   21.585    8.4992
   21.600    8.5203
   21.615    8.4571
   21.630    8.4571
   21.645    8.3939
   21.660    8.5940
   21.675    8.1833
   21.690    8.6572
   21.705    8.0779
   21.720    8.0885
   21.735    8.0463
   21.750    7.8884
   21.765    8.4887
   21.780    8.2149
   21.795    8.3518
   21.810    8.1517
   21.825    8.3518
   21.840    8.6151
   21.855    7.7725
   21.870    8.1095
   21.885    7.9094
   21.900    8.4887
   21.915    8.6783
   21.930    8.2149
   21.945    8.4571
   21.960    7.8989
   21.975    8.7098
   21.990    8.4150
   22.005    8.3307
   22.020    8.6572
   22.035    8.6045
   22.050    8.2254
   22.065    8.3412
   22.080    8.4360
   22.095    8.1411
   22.110    8.6045
   22.125    8.6361
   22.140    8.3623
   22.155    8.5835
   22.170    8.1622
   22.185    7.9831
   22.200    8.2464
   22.215    7.9410
   22.230    8.0779
   22.245    8.2464
   22.260    8.5519
   22.275    8.7520
   22.290    8.3412
   22.305    8.2359
   22.320    7.9831
   22.335    8.3623
   22.350    8.5413
   22.365    8.3202
   22.380    8.1095
   22.395    8.2043
   22.410    8.1938
   22.425    8.4676
   22.440    8.3834
   22.455    8.2464
   22.470    8.5519
   22.485    7.9726
   22.500    8.4466
   22.515    8.2991
   22.530    8.5308
   22.545    8.6783
   22.560    8.5835
   22.575    8.4466
   22.590    8.8573
   22.605    8.9942
   22.620    8.5519
   22.635    8.4887
   22.650    8.3412
   22.665    8.4781
   22.680    8.7730
   22.695    9.0258
   22.710    8.9731
   22.725    8.5097
   22.740    8.8362
   22.755    8.7414
   22.770    8.7098
   22.785    8.6572
   22.800    8.5519
   22.815    8.8257
   22.830    8.8257
   22.845    8.9415
   22.860    9.0890
   22.875    9.2259
   22.890    8.6361
   22.905    8.4571
   22.920    8.6256
   22.935    8.6572
   22.950    9.4155
   22.965    8.6993
   22.980    9.1311
   22.995    9.2048
   23.010    8.5835
   23.025    9.2154
   23.040    9.0995
   23.055    9.4576
   23.070    9.1943
   23.085    9.5735
   23.100    8.9310
   23.115    9.4155
   23.130    9.5313
   23.145    9.3102
   23.160    8.9415
   23.175    8.9942
   23.190    9.2786
   23.205    8.9626
   23.220    8.6045
   23.235    8.7625
   23.250    8.3518
   23.265    8.8889
   23.280    8.4255
   23.295    8.4360
   23.310    8.1411
   23.325    8.7520
   23.340    8.7204
   23.355    8.3623
   23.370    8.5940
   23.385    8.1938
   23.400    7.9831
   23.415    8.4150
   23.430    8.5097
   23.445    8.5203
   23.460    8.2570
   23.475    8.7414
   23.490    8.5624
   23.505    7.9621
   23.520    8.3307
   23.535    8.1938
   23.550    8.4466
   23.565    8.5835
   23.580    8.6993
   23.595    8.2043
   23.610    8.2886
   23.625    7.9621
   23.640    8.3834
   23.655    8.8257
   23.670    8.1727
   23.685    8.3096
   23.700    8.3623
   23.715    8.6572
   23.730    8.3412
   23.745    8.9100
   23.760    8.3834
   23.775    8.1833
   23.790    8.0042
   23.805    8.4255
   23.820    8.5519
   23.835    8.3307
   23.850    8.3307
   23.865    8.5729
   23.880    7.9305
   23.895    8.3834
   23.910    8.5308
   23.925    8.1517
   23.940    8.6783
   23.955    8.6783
   23.970    8.6993
   23.985    8.6256
   24.000    8.4044
   24.015    8.7204
   24.030    8.2254
   24.045    8.2675
   24.060    9.0153
   24.075    8.6572
   24.090    8.3412
   24.105    8.2991
   24.120    8.1833
   24.135    8.3412
   24.150    7.9726
   24.165    7.6883
   24.180    7.9726
   24.195    7.8884
   24.210    8.1411
   24.225    8.3834
   24.240    8.3728
   24.255    8.0885
   24.270    8.1727
   24.285    8.2464
   24.300    8.3728
   24.315    8.1833
   24.330    8.3728
   24.345    8.4044
   24.360    8.2043
   24.375    8.1411
   24.390    8.0042
   24.405    7.9831
   24.420    8.3307
   24.435    8.6151
   24.450    8.4992
   24.465    8.1727
   24.480    8.1306
   24.495    7.8778
   24.510    8.0885
   24.525    8.1517
   24.540    8.2254
   24.555    8.0042
   24.570    7.7514
   24.585    8.2043
   24.600    8.1201
   24.615    8.1517
   24.630    8.2570
   24.645    7.8989
   24.660    8.0779
   24.675    8.6151
   24.690    8.2886
   24.705    8.2043
   24.720    8.2254
   24.735    8.3518
   24.750    8.1517
   24.765    7.8989
   24.780    8.4781
   24.795    7.9726
   24.810    8.5940
   24.825    7.8146
   24.840    8.0042
   24.855    7.9937
   24.870    8.2464
   24.885    8.5624
   24.900    8.4044
   24.915    8.3307
   24.930    8.6256
   24.945    8.7730
   24.960    8.5835
   24.975    9.0258
   24.990    9.2575
   25.005    9.0574
   25.020    9.0995
   25.035    8.8362
   25.050    9.2470
   25.065    9.2470
   25.080    8.9521
   25.095    8.8573
   25.110    8.8889
   25.125    8.5729
   25.140    9.2048
   25.155    8.8784
   25.170    9.2891
   25.185    8.6151
   25.200    8.8046
   25.215    8.9731
   25.230    8.6783
   25.245    8.0569
   25.260    7.7093
   25.275    8.4150
   25.290    8.6888
   25.305    8.8784
   25.320    8.6361
   25.335    8.4676
   25.350    8.4255
   25.365    8.6045
   25.380    8.4466
   25.395    8.3096
   25.410    8.8152
   25.425    8.5519
   25.440    8.0253
   25.455    8.5729
   25.470    7.9831
   25.485    8.4360
   25.500    8.1306
   25.515    8.0779
   25.530    7.8673
   25.545    7.9305
   25.560    8.2149
   25.575    8.2886
   25.590    8.0253
   25.605    7.8778
   25.620    8.3834
   25.635    7.9726
   25.650    8.2254
   25.665    7.7725
   25.680    7.9621
   25.695    7.3934
   25.710    7.8357
   25.725    7.7093
   25.740    8.0885
   25.755    7.7514
   25.770    8.1306
   25.785    7.8041
   25.800    7.8146
   25.815    7.8462
   25.830    7.6883
   25.845    7.9621
   25.860    7.9516
   25.875    7.8252
   25.890    7.7093
   25.905    8.3202
   25.920    8.2886
   25.935    7.8462
   25.950    7.7199
   25.965    7.8884
   25.980    8.3834
   25.995    8.0779
   26.010    7.9516
   26.025    7.7936
   26.040    7.6988
   26.055    7.6777
   26.070    7.7514
   26.085    8.0042
   26.100    8.0042
   26.115    7.9937
   26.130    8.2043
   26.145    8.1306
   26.160    8.2043
   26.175    8.0885
   26.190    8.0569
   26.205    8.0569
   26.220    8.2675
   26.235    8.3307
   26.250    7.9094
   26.265    8.0674
   26.280    8.0885
   26.295    7.5935
   26.310    7.9094
   26.325    8.0674
   26.340    8.0253
   26.355    7.9305
   26.370    7.9094
   26.385    7.4882
   26.400    7.5092
   26.415    7.8568
   26.430    7.5724
   26.445    7.8673
   26.460    8.1833
   26.475    8.3096
   26.490    7.6883
   26.505    7.6145
   26.520    7.9094
   26.535    8.2043
   26.550    8.2464
   26.565    8.2043
   26.580    8.1517
   26.595    8.0042
   26.610    8.3728
   26.625    8.5940
   26.640    8.0358
   26.655    8.2675
   26.670    8.5413
   26.685    9.1838
   26.700    8.5940
   26.715    8.4360
   26.730    8.6151
   26.745    8.5203
   26.760    8.5729
   26.775    8.3096
   26.790    8.3096
   26.805    8.0885
   26.820    8.5519
   26.835    7.7409
   26.850    7.9516
   26.865    7.7199
   26.880    7.7725
   26.895    7.8357
   26.910    7.8041
   26.925    8.2043
   26.940    7.8146
   26.955    7.8673
   26.970    8.2149
   26.985    7.8884
   27.000    7.4987
   27.015    7.5619
   27.030    7.7725
   27.045    7.8673
   27.060    7.9621
   27.075    7.7725
   27.090    7.4460
   27.105    7.4566
   27.120    7.4250
   27.135    7.5092
   27.150    7.8146
   27.165    7.6145
   27.180    7.8884
   27.195    7.7725
   27.210    7.6145
   27.225    7.3512
   27.240    7.5619
   27.255    7.8568
   27.270    7.8989
   27.285    7.8778
   27.300    7.5829
   27.315    7.5829
   27.330    7.3828
   27.345    7.2459
   27.360    7.4882
   27.375    7.1617
   27.390    7.9516
   27.405    7.4144
   27.420    7.2986
   27.435    7.5935
   27.450    7.7514
   27.465    7.4250
   27.480    7.1617
   27.495    7.5829
   27.510    7.7830
   27.525    7.7514
   27.540    7.3828
   27.555    7.1090
   27.570    7.2143
   27.585    7.7725
   27.600    7.9200
   27.615    7.5303
   27.630    7.6883
   27.645    7.6777
   27.660    7.3723
   27.675    7.5408
   27.690    7.8357
   27.705    7.2775
   27.720    7.5829
   27.735    7.5197
   27.750    7.1195
   27.765    7.2038
   27.780    7.8568
   27.795    7.6672
   27.810    7.2775
   27.825    7.6988
   27.840    7.7620
   27.855    7.8568
   27.870    7.7093
   27.885    7.7620
   27.900    7.5303
   27.915    7.5829
   27.930    7.8462
   27.945    8.1517
   27.960    8.2149
   27.975    8.3518
   27.990    8.2149
   28.005    8.5413
   28.020    8.4255
   28.035    8.4360
   28.050    8.4571
   28.065    7.8884
   28.080    8.0253
   28.095    8.3096
   28.110    8.1411
   28.125    8.0990
   28.140    7.7093
   28.155    7.6883
   28.170    8.1517
   28.185    7.8673
   28.200    7.4144
   28.215    7.5724
   28.230    8.1095
   28.245    8.0147
   28.260    7.8252
   28.275    7.6356
   28.290    7.3512
   28.305    7.7199
   28.320    7.4566
   28.335    7.4882
   28.350    7.6356
   28.365    7.1722
   28.380    7.4987
   28.395    7.5092
   28.410    7.4250
   28.425    7.4882
   28.440    7.8568
   28.455    7.7830
   28.470    7.3512
   28.485    7.1617
   28.500    7.4355
   28.515    7.3618
   28.530    7.5935
   28.545    7.7725
   28.560    7.4250
   28.575    7.1617
   28.590    7.5408
   28.605    7.3934
   28.620    7.5935
   28.635    7.1722
   28.650    7.0563
   28.665    7.0248
   28.680    7.4355
   28.695    7.5408
   28.710    7.3723
   28.725    7.3828
   28.740    7.5935
   28.755    7.2249
   28.770    7.4987
   28.785    7.5829
   28.800    7.2775
   28.815    7.8884
   28.830    7.3512
   28.845    7.4250
   28.860    7.8041
   28.875    7.3618
   28.890    7.5829
   28.905    7.5513
   28.920    7.6883
   28.935    7.4460
   28.950    7.7620
   28.965    8.0253
   28.980    7.7830
   28.995    7.9200
   29.010    7.8989
   29.025    7.9094
   29.040    7.5303
   29.055    7.3723
   29.070    7.5408
   29.085    7.2459
   29.100    7.4039
   29.115    7.3407
   29.130    7.2565
   29.145    6.9826
   29.160    6.8036
   29.175    6.9721
   29.190    6.7404
   29.205    7.1617
   29.220    7.0879
   29.235    7.1301
   29.250    7.1511
   29.265    7.1195
   29.280    7.2459
   29.295    7.2880
   29.310    7.1090
   29.325    7.3512
   29.340    7.3723
   29.355    7.4460
   29.370    6.8668
   29.385    7.1301
   29.400    7.1722
   29.415    7.6040
   29.430    7.2670
   29.445    7.2143
   29.460    7.2670
   29.475    7.6567
   29.490    7.4566
   29.505    7.4039
   29.520    7.1617
   29.535    7.1301
   29.550    7.8462
   29.565    7.1511
   29.580    7.2670
   29.595    7.2354
   29.610    7.1617
   29.625    7.2775
   29.640    7.0248
   29.655    7.2038
   29.670    7.3618
   29.685    7.5092
   29.700    7.5197
   29.715    7.6672
   29.730    7.1301
   29.745    7.4566
   29.760    7.1827
   29.775    7.2143
   29.790    6.9300
   29.805    6.9405
   29.820    6.7404
   29.835    7.3302
   29.850    7.3407
   29.865    7.3196
   29.880    6.6140
   29.895    6.8878
   29.910    6.7825
   29.925    6.7720
   29.940    6.5613
   29.955    6.7930
   29.970    7.1406
   29.985    7.3302
   30.000    7.3934
   30.015    7.0353
   30.030    6.8246
   30.045    7.0985
   30.060    6.7299
   30.075    6.9932
   30.090    7.0142
   30.105    7.0037
   30.120    6.9405
   30.135    6.9089
   30.150    6.8668
   30.165    6.7720
   30.180    7.2249
   30.195    7.3934
   30.210    6.9089
   30.225    6.9826
   30.240    7.2249
   30.255    7.2143
   30.270    6.8668
   30.285    6.7720
   30.300    7.0879
   30.315    7.0353
   30.330    6.8246
   30.345    7.0142
   30.360    6.9194
   30.375    7.0458
   30.390    6.8246
   30.405    6.7088
   30.420    6.8562
   30.435    6.6983
   30.450    6.8141
   30.465    6.9300
   30.480    7.0353
   30.495    6.7299
   30.510    6.6667
   30.525    7.0353
   30.540    6.8668
   30.555    7.0248
   30.570    6.8141
   30.585    6.9616
   30.600    6.8878
   30.615    7.2038
   30.630    6.9194
   30.645    6.5403
   30.660    6.8457
   30.675    7.0353
   30.690    7.3302
   30.705    6.9194
   30.720    7.1406
   30.735    6.6351
   30.750    6.5824
   30.765    6.9826
   30.780    6.8773
   30.795    6.6983
   30.810    6.6772
   30.825    6.9932
   30.840    6.6140
   30.855    7.0458
   30.870    7.0985
   30.885    7.0142
   30.900    6.8246
   30.915    6.8246
   30.930    6.8773
   30.945    7.1406
   30.960    7.1090
   30.975    6.9194
   30.990    6.7299
   31.005    6.6351
   31.020    6.9616
   31.035    7.1090
   31.050    7.1511
   31.065    7.0563
   31.080    7.3828
   31.095    6.5192
   31.110    6.5508
   31.125    7.1617
   31.140    6.8984
   31.155    6.6245
   31.170    6.5613
   31.185    6.4666
   31.200    6.8246
   31.215    6.6877
   31.230    6.7193
   31.245    6.6035
   31.260    6.3928
   31.275    6.5613
   31.290    6.2033
   31.305    6.6983
   31.320    7.0458
   31.335    6.9300
   31.350    6.7088
   31.365    6.8141
   31.380    6.6877
   31.395    6.7825
   31.410    6.7404
   31.425    7.2354
   31.440    6.6561
   31.455    6.7193
   31.470    6.5508
   31.485    6.9616
   31.500    7.5197
   31.515    6.7509
   31.530    6.7930
   31.545    6.6983
   31.560    6.5508
   31.575    6.6245
   31.590    6.6035
   31.605    6.8773
   31.620    6.6772
   31.635    6.9616
   31.650    6.4982
   31.665    6.5192
   31.680    7.0353
   31.695    7.3091
   31.710    7.1511
   31.725    6.8562
   31.740    7.4776
   31.755    6.7088
   31.770    6.7299
   31.785    6.9510
   31.800    6.9089
   31.815    6.8036
   31.830    6.8352
   31.845    7.2986
   31.860    7.3091
   31.875    7.0142
   31.890    7.0353
   31.905    7.0879
   31.920    6.7720
   31.935    6.6983
   31.950    6.7088
   31.965    7.2143
   31.980    7.4039
   31.995    7.4460
   32.010    7.5619
   32.025    8.0463
   32.040    7.8357
   32.055    7.6672
   32.070    7.9726
   32.085    8.1201
   32.100    8.2043
   32.115    8.0990
   32.130    8.4044
   32.145    8.2043
   32.160    7.5935
   32.175    7.6145
   32.190    7.5303
   32.205    7.4355
   32.220    7.1195
   32.235    7.0142
   32.250    7.0353
   32.265    6.7930
   32.280    6.5824
   32.295    6.9721
   32.310    6.7088
   32.325    6.9721
   32.340    6.8036
   32.355    7.3091
   32.370    7.0774
   32.385    7.1722
   32.400    6.6983
   32.415    6.5929
   32.430    6.6035
   32.445    6.7404
   32.460    7.0037
   32.475    6.6456
   32.490    6.5824
   32.505    6.2454
   32.520    6.0874
   32.535    6.7509
   32.550    6.5192
   32.565    6.2349
   32.580    6.7509
   32.595    6.7299
   32.610    6.6035
   32.625    6.6561
   32.640    6.6983
   32.655    6.4771
   32.670    6.7825
   32.685    6.7404
   32.700    6.7193
   32.715    6.5508
   32.730    7.0458
   32.745    6.7299
   32.760    6.6245
   32.775    6.8246
   32.790    6.9194
   32.805    6.8036
   32.820    6.5719
   32.835    6.6561
   32.850    6.5719
   32.865    6.6456
   32.880    6.4350
   32.895    6.5929
   32.910    6.4455
   32.925    6.4560
   32.940    6.5929
   32.955    6.6983
   32.970    6.3928
   32.985    6.4876
   33.000    6.3507
   33.015    6.4771
   33.030    6.2559
   33.045    6.7825
   33.060    6.7193
   33.075    6.8036
   33.090    6.7825
   33.105    6.3612
   33.120    6.4666
   33.135    6.2454
   33.150    6.0769
   33.165    6.5298
   33.180    6.6983
   33.195    6.3718
   33.210    6.3191
   33.225    6.4139
   33.240    6.5613
   33.255    7.3512
   33.270    6.6245
   33.285    6.6140
   33.300    6.6561
   33.315    6.5719
   33.330    6.7509
   33.345    6.2138
   33.360    6.1506
   33.375    6.6456
   33.390    6.4982
   33.405    6.5824
   33.420    6.6561
   33.435    6.5719
   33.450    6.7193
   33.465    6.2138
   33.480    6.5719
   33.495    6.3823
   33.510    6.1822
   33.525    6.4666
   33.540    6.4876
   33.555    6.5403
   33.570    6.6245
   33.585    6.7088
   33.600    6.7193
   33.615    6.3191
   33.630    6.4771
   33.645    6.3296
   33.660    6.4560
   33.675    6.6035
   33.690    6.7299
   33.705    6.8352
   33.720    6.9616
   33.735    6.5929
   33.750    6.6561
   33.765    6.8036
   33.780    7.2880
   33.795    7.0037
   33.810    6.8457
   33.825    6.8773
   33.840    6.9300
   33.855    6.8457
   33.870    7.0142
   33.885    7.4671
   33.900    6.7615
   33.915    6.5508
   33.930    6.6561
   33.945    6.7299
   33.960    6.5192
   33.975    6.4666
   33.990    6.4666
   34.005    6.3507
   34.020    6.5298
   34.035    6.3402
   34.050    6.3507
   34.065    6.2981
   34.080    6.6561
   34.095    6.0874
   34.110    6.3928
   34.125    6.3086
   34.140    6.4139
   34.155    6.2349
   34.170    6.2981
   34.185    6.5508
   34.200    6.6877
   34.215    6.4560
   34.230    6.2665
   34.245    6.7299
   34.260    6.4244
   34.275    6.0453
   34.290    5.9610
   34.305    5.9716
   34.320    6.1927
   34.335    6.5298
   34.350    6.6877
   34.365    6.4455
   34.380    6.3402
   34.395    6.6983
   34.410    6.6667
   34.425    6.5298
   34.440    6.5403
   34.455    5.9610
   34.470    5.9400
   34.485    6.1506
   34.500    6.0558
   34.515    5.6767
   34.530    6.2875
   34.545    5.9821
   34.560    6.2349
   34.575    6.4350
   34.590    6.6561
   34.605    6.5824
   34.620    6.4455
   34.635    6.8141
   34.650    5.9294
   34.665    6.3402
   34.680    6.6667
   34.695    6.3191
   34.710    6.3507
   34.725    6.6456
   34.740    6.3402
   34.755    6.2243
   34.770    6.2875
   34.785    6.2138
   34.800    6.3928
   34.815    6.5298
   34.830    6.3823
   34.845    6.1611
   34.860    6.2875
   34.875    6.2454
   34.890    6.2454
   34.905    6.0769
   34.920    6.7088
   34.935    6.3718
   34.950    6.2665
   34.965    6.5298
   34.980    6.6667
   34.995    6.6456
   35.010    6.3296
   35.025    6.3402
   35.040    6.3823
   35.055    6.3718
   35.070    6.4771
   35.085    6.1927
   35.100    6.2243
   35.115    6.3507
   35.130    6.7720
   35.145    6.5929
   35.160    6.3402
   35.175    6.6456
   35.190    6.7088
   35.205    6.5508
   35.220    6.2665
   35.235    6.4982
   35.250    6.8141
   35.265    6.4139
   35.280    6.1717
   35.295    6.1717
   35.310    6.5508
   35.325    5.8347
   35.340    6.2770
   35.355    6.4350
   35.370    6.3823
   35.385    6.2349
   35.400    6.5929
   35.415    6.6245
   35.430    6.0242
   35.445    6.8984
   35.460    6.5087
   35.475    6.4244
   35.490    6.8773
   35.505    6.4876
   35.520    6.6140
   35.535    6.5719
   35.550    6.4771
   35.565    6.4876
   35.580    6.2665
   35.595    6.3191
   35.610    5.8031
   35.625    6.5508
   35.640    6.5719
   35.655    6.3718
   35.670    6.2981
   35.685    6.5087
   35.700    5.9821
   35.715    6.1822
   35.730    6.0137
   35.745    6.6351
   35.760    6.3612
   35.775    6.5403
   35.790    6.4771
   35.805    6.7088
   35.820    6.6772
   35.835    6.6245
   35.850    6.4982
   35.865    6.1822
   35.880    6.4139
   35.895    6.4455
   35.910    6.6035
   35.925    6.5403
   35.940    6.2243
   35.955    6.6561
   35.970    6.3928
   35.985    6.5613
   36.000    6.3402
   36.015    6.4876
   36.030    6.6772
   36.045    6.4666
   36.060    6.4244
   36.075    6.4139
   36.090    6.2349
   36.105    6.3612
   36.120    6.3296
   36.135    5.9821
   36.150    6.2981
   36.165    6.2033
   36.180    6.4560
   36.195    6.1822
   36.210    6.3086
   36.225    6.3296
   36.240    6.1190
   36.255    6.3718
   36.270    6.3928
   36.285    6.3823
   36.300    6.4560
   36.315    6.2243
   36.330    6.2981
   36.345    6.7615
   36.360    5.9926
   36.375    5.9294
   36.390    6.1295
   36.405    5.9400
   36.420    6.3402
   36.435    6.5929
   36.450    6.2454
   36.465    6.1190
   36.480    6.5403
   36.495    6.0874
   36.510    6.0558
   36.525    6.1295
   36.540    6.3086
   36.555    6.4455
   36.570    6.4244
   36.585    6.4455
   36.600    6.1717
   36.615    6.1927
   36.630    6.2770
   36.645    6.1085
   36.660    6.4666
   36.675    6.2138
   36.690    6.4982
   36.705    6.2770
   36.720    6.2033
   36.735    6.3507
   36.750    5.9400
   36.765    6.0874
   36.780    6.3612
   36.795    6.6877
   36.810    6.6561
   36.825    6.3402
   36.840    6.1506
   36.855    6.2243
   36.870    6.2033
   36.885    6.5613
   36.900    6.1295
   36.915    5.9926
   36.930    6.1717
   36.945    6.3402
   36.960    6.1506
   36.975    6.1295
   36.990    6.2033
   37.005    6.3612
   37.020    6.2559
   37.035    5.9821
   37.050    6.1295
   37.065    6.2454
   37.080    6.2454
   37.095    5.9716
   37.110    6.0137
   37.125    6.3928
   37.140    6.2665
   37.155    5.9400
   37.170    6.3086
   37.185    6.4139
   37.200    6.3086
   37.215    6.2559
   37.230    6.0769
   37.245    5.9294
   37.260    5.9294
   37.275    6.0769
   37.290    6.4139
   37.305    6.3823
   37.320    6.2875
   37.335    6.4034
   37.350    6.0032
   37.365    5.8136
   37.380    6.1506
   37.395    6.5087
   37.410    6.6772
   37.425    6.4139
   37.440    6.0137
   37.455    6.0979
   37.470    5.6661
   37.485    6.3507
   37.500    5.6872
   37.515    6.2033
   37.530    5.7715
   37.545    6.1822
   37.560    6.3402
   37.575    6.2770
   37.590    5.9084
   37.605    6.5508
   37.620    6.5298
   37.635    6.3086
   37.650    6.1927
   37.665    6.1927
   37.680    5.9716
   37.695    6.3507
   37.710    6.7615
   37.725    6.0874
   37.740    6.0979
   37.755    6.0348
   37.770    6.1611
   37.785    5.7399
   37.800    5.6767
   37.815    5.8241
   37.830    6.0769
   37.845    6.3928
   37.860    6.0137
   37.875    6.1611
   37.890    5.8136
   37.905    6.3928
   37.920    6.2243
   37.935    6.0348
   37.950    6.2981
   37.965    6.6140
   37.980    6.3612
   37.995    6.0453
   38.010    6.1401
   38.025    5.9400
   38.040    5.7715
   38.055    6.0348
   38.070    6.1611
   38.085    5.9716
   38.100    6.2138
   38.115    5.9294
   38.130    5.6345
   38.145    6.3928
   38.160    6.4244
   38.175    6.2981
   38.190    6.0453
   38.205    6.0137
   38.220    6.1190
   38.235    6.5613
   38.250    6.4560
   38.265    6.2665
   38.280    6.2033
   38.295    6.1506
   38.310    5.8873
   38.325    6.4244
   38.340    6.3612
   38.355    6.3507
   38.370    6.0137
   38.385    5.8031
   38.400    6.0032
   38.415    5.8452
   38.430    6.2559
   38.445    6.3086
   38.460    6.1506
   38.475    6.3928
   38.490    6.2875
   38.505    6.5824
   38.520    6.8878
   38.535    6.4455
   38.550    6.4771
   38.565    6.4982
   38.580    6.3612
   38.595    6.2981
   38.610    6.3823
   38.625    6.3928
   38.640    6.2138
   38.655    6.4244
   38.670    6.2770
   38.685    6.5403
   38.700    6.3823
   38.715    6.1927
   38.730    6.2981
   38.745    6.1611
   38.760    6.1717
   38.775    6.2770
   38.790    5.9294
   38.805    5.9610
   38.820    6.0137
   38.835    5.8662
   38.850    6.0558
   38.865    6.2033
   38.880    5.8768
   38.895    6.0348
   38.910    6.3718
   38.925    5.8768
   38.940    6.0874
   38.955    6.2138
   38.970    6.4771
   38.985    6.2981
   39.000    5.9084
   39.015    6.0664
   39.030    6.4771
   39.045    6.2138
   39.060    6.2559
   39.075    5.9926
   39.090    6.1401
   39.105    6.0979
   39.120    6.0137
   39.135    6.0664
   39.150    5.9716
   39.165    6.1611
   39.180    6.4034
   39.195    6.2770
   39.210    6.2981
   39.225    6.2033
   39.240    6.5508
   39.255    6.3191
   39.270    5.9610
   39.285    6.4455
   39.300    6.0874
   39.315    6.2138
   39.330    6.3612
   39.345    6.3718
   39.360    6.2454
   39.375    6.2665
   39.390    6.1927
   39.405    6.6245
   39.420    6.5508
   39.435    6.0664
   39.450    6.1611
   39.465    5.9926
   39.480    6.1085
   39.495    6.4560
   39.510    6.2665
   39.525    5.8873
   39.540    5.7293
   39.555    5.9926
   39.570    5.7188
   39.585    6.0979
   39.600    5.9821
   39.615    6.4771
   39.630    6.2138
   39.645    6.0137
   39.660    6.1717
   39.675    6.2349
   39.690    6.0769
   39.705    6.2875
   39.720    6.2981
   39.735    6.2138
   39.750    6.3928
   39.765    6.1506
   39.780    5.9400
   39.795    5.9294
   39.810    6.1085
   39.825    5.8662
   39.840    6.1822
   39.855    6.3191
   39.870    5.9716
   39.885    6.2981
   39.900    6.1822
   39.915    6.1717
   39.930    5.9716
   39.945    6.1085
   39.960    6.2243
   39.975    6.0137
   39.990    5.9610
