    1.500    6.5383
    1.515    6.5169
    1.530    6.5490
    1.545    6.0888
    1.560    6.1316
    1.575    5.8748
    1.590    6.0674
    1.605    5.9176
    1.620    5.7250
    1.635    5.8534
    1.650    5.7678
    1.665    5.3826
    1.680    5.2220
    1.695    5.3077
    1.710    5.5003
    1.725    5.2862
    1.740    5.3719
    1.755    5.3933
    1.770    4.9331
    1.785    4.8582
    1.800    5.0722
    1.815    5.2541
    1.830    5.2648
    1.845    5.0936
    1.860    4.9117
    1.875    4.5800
    1.890    4.9117
    1.905    5.1150
    1.920    4.4730
    1.935    4.5586
    1.950    4.7833
    1.965    4.6763
    1.980    4.6014
    1.995    4.5693
    2.010    4.1306
    2.025    4.3660
    2.040    4.4730
    2.055    4.3446
    2.070    4.3981
    2.085    4.2697
    2.100    4.2483
    2.115    4.3874
    2.130    4.3232
    2.145    3.9593
    2.160    4.2483
    2.175    3.9058
    2.190    3.8951
    2.205    3.7988
    2.220    3.7560
    2.235    3.7025
    2.250    3.8951
    2.265    3.8737
    2.280    3.8844
    2.295    3.9272
    2.310    3.5848
    2.325    3.6383
    2.340    3.4992
    2.355    3.5955
    2.370    3.7453
    2.385    3.4778
    2.400    3.2103
    2.415    3.7025
    2.430    3.7667
    2.445    3.7453
    2.460    3.1354
    2.475    3.2745
    2.490    3.1782
    2.505    3.3387
    2.520    3.6490
    2.535    3.4243
    2.550    3.3173
    2.565    3.3066
    2.580    3.1782
    2.595    3.2531
    2.610    3.2210
    2.625    3.4350
    2.640    3.0712
    2.655    2.9963
    2.670    3.2210
    2.685    2.9320
    2.700    3.0819
    2.715    3.1033
    2.730    3.1140
    2.745    3.1140
    2.760    2.9535
    2.775    2.9963
    2.790    2.8999
    2.805    2.9320
    2.820    2.9213
    2.835    2.7501
    2.850    2.8357
    2.865    2.7394
    2.880    3.1140
    2.895    2.8678
    2.910    2.6324
    2.925    2.6110
    2.940    2.9642
    2.955    3.0177
    2.970    2.9106
    2.985    2.7287
    3.000    2.6752
    3.015    2.6752
    3.030    2.8678
    3.045    2.5468
    3.060    2.5789
    3.075    2.5682
    3.090    2.7715
    3.105    2.4398
    3.120    2.7929
    3.135    2.9642
    3.150    2.7608
    3.165    2.8357
    3.180    2.5896
    3.195    2.3221
    3.210    2.3756
    3.225    2.4077
    3.240    2.6110
    3.255    2.5789
    3.270    2.4077
    3.285    2.5361
    3.300    2.5147
    3.315    2.3756
    3.330    2.5682
    3.345    2.5789
    3.360    2.4826
    3.375    2.2793
    3.390    2.5254
    3.405    2.3863
    3.420    2.3542
    3.435    2.2365
    3.450    2.4505
    3.465    2.3328
    3.480    2.6003
    3.495    2.5147
    3.510    2.4826
    3.525    2.3542
    3.540    2.2686
    3.555    2.1723
    3.570    2.3221
    3.585    2.1937
    3.600    2.2793
    3.615    2.4826
    3.630    2.4505
    3.645    2.3756
    3.660    2.4505
    3.675    2.3756
    3.690    2.3114
    3.705    2.2151
    3.720    2.3114
    3.735    2.5789
    3.750    2.2258
    3.765    2.0546
    3.780    2.1509
    3.795    2.3435
    3.810    2.4398
    3.825    2.1509
    3.840    2.5040
    3.855    2.3221
    3.870    2.1402
    3.885    2.3756
    3.900    2.3114
    3.915    2.3328
    3.930    2.4612
    3.945    2.6217
    3.960    2.6538
    3.975    2.8143
    3.990    2.8036
    4.005    2.4719
    4.020    2.5254
    4.035    2.9320
    4.050    2.9428
    4.065    3.1889
    4.080    3.6062
    4.095    3.4136
    4.110    3.5634
    4.125    3.9165
    4.140    3.8416
    4.155    4.4195
    4.170    4.9866
    4.185    5.6180
    4.200    5.5538
    4.215    5.6287
    4.230    6.1423
    4.245    6.6453
    4.260    7.5120
    4.275    7.5441
    4.290    8.4109
    4.305    9.6522
    4.320   11.2895
    4.335   11.4179
    4.350   13.0230
    4.365   14.1573
    4.380   14.8208
    4.395   17.7100
    4.410   20.4173
    4.425   22.6645
    4.440   26.1851
    4.455   29.3740
    4.470   34.4783
    4.485   41.3590
    4.500   54.0396
    4.515   73.7400
    4.530   80.8454
    4.545   43.7881
    4.560   11.6533
    4.575    4.5907
    4.590    3.1996
    4.605    2.2579
    4.620    2.4826
    4.635    2.2686
    4.650    2.3649
    4.665    2.1509
    4.680    1.8834
    4.695    1.9476
    4.710    2.0439
    4.725    2.0225
    4.740    1.8192
    4.755    1.7978
    4.770    1.9262
    4.785    1.8834
    4.800    1.8727
    4.815    2.0225
    4.830    1.8406
    4.845    1.8941
    4.860    1.8620
    4.875    1.9048
    4.890    2.1081
    4.905    2.0546
    4.920    1.7335
    4.935    1.7335
    4.950    1.6907
    4.965    1.8406
    4.980    1.7335
    4.995    1.6372
    5.010    1.8085
    5.025    1.8834
    5.040    1.7549
    5.055    1.7764
    5.070    1.8085
    5.085    1.7871
    5.100    1.7014
    5.115    1.7871
    5.130    1.7657
    5.145    1.7657
    5.160    1.5730
    5.175    1.9583
    5.190    1.8727
    5.205    1.7549
    5.220    1.7657
    5.235    1.8513
    5.250    1.9583
    5.265    1.7978
    5.280    1.7014
    5.295    1.8406
    5.310    1.6158
    5.325    1.8834
    5.340    1.7442
    5.355    1.5195
    5.370    1.8834
    5.385    1.6586
    5.400    1.7764
    5.415    1.8085
    5.430    1.7871
    5.445    1.6907
    5.460    1.6800
    5.475    1.6479
    5.490    2.0546
    5.505    1.8941
    5.520    1.4767
    5.535    1.5195
    5.550    1.7014
    5.565    1.5837
    5.580    1.7764
    5.595    1.7442
    5.610    1.5944
    5.625    1.8834
    5.640    1.6265
    5.655    1.7014
    5.670    1.7228
    5.685    1.8620
    5.700    1.7978
    5.715    1.8192
    5.730    2.0011
    5.745    1.6051
    5.760    1.5837
    5.775    1.7871
    5.790    1.8727
    5.805    2.0225
    5.820    1.7764
    5.835    1.8941
    5.850    1.7442
    5.865    1.7978
    5.880    1.9155
    5.895    1.8941
    5.910    1.8620
    5.925    1.8192
    5.940    1.7121
    5.955    1.6051
    5.970    1.9048
    5.985    1.8834
    6.000    1.9904
    6.015    2.0011
    6.030    2.0867
    6.045    2.0439
    6.060    2.1402
    6.075    2.0439
    6.090    2.0546
    6.105    2.0118
    6.120    2.1616
    6.135    2.2258
    6.150    2.4933
    6.165    2.4398
    6.180    2.4505
    6.195    2.5896
    6.210    2.8678
    6.225    2.9428
    6.240    3.1247
    6.255    3.5955
    6.270    3.6169
    6.285    3.8951
    6.300    4.2483
    6.315    4.9224
    6.330    5.3612
    6.345    5.6394
    6.360    6.5276
    6.375    8.1862
    6.390   10.8828
    6.405   13.3119
    6.420   11.1718
    6.435    5.0401
    6.450    2.9320
    6.465    2.2151
    6.480    2.1081
    6.495    2.1081
    6.510    2.3221
    6.525    2.1188
    6.540    1.9048
    6.555    2.2793
    6.570    2.1937
    6.585    2.1937
    6.600    1.9476
    6.615    1.9690
    6.630    1.9690
    6.645    1.8941
    6.660    2.2472
    6.675    2.0011
    6.690    2.0225
    6.705    1.8085
    6.720    1.8513
    6.735    1.9262
    6.750    1.9048
    6.765    1.8192
    6.780    1.5516
    6.795    1.7764
    6.810    1.6800
    6.825    1.7121
    6.840    1.7121
    6.855    1.8513
    6.870    1.7764
    6.885    1.8406
    6.900    1.8085
    6.915    1.8085
    6.930    1.7657
    6.945    1.8941
    6.960    1.6907
    6.975    1.7764
    6.990    1.6907
    7.005    1.7121
    7.020    1.8941
    7.035    1.6693
    7.050    1.6693
    7.065    1.8727
    7.080    1.5944
    7.095    1.4660
    7.110    1.7442
    7.125    1.6372
    7.140    1.4553
    7.155    1.3911
    7.170    1.4339
    7.185    1.4767
    7.200    1.5516
    7.215    1.6479
    7.230    1.5623
    7.245    1.6693
    7.260    1.7228
    7.275    1.4232
    7.290    1.4446
    7.305    1.5623
    7.320    1.5837
    7.335    1.4660
    7.350    1.4232
    7.365    1.4767
    7.380    1.5088
    7.395    1.5409
    7.410    1.4660
    7.425    1.5623
    7.440    1.4339
    7.455    1.4446
    7.470    1.4232
    7.485    1.4767
    7.500    1.2841
    7.515    1.4125
    7.530    1.4125
    7.545    1.3055
    7.560    1.4125
    7.575    1.4553
    7.590    1.3269
    7.605    1.4339
    7.620    1.5516
    7.635    1.3911
    7.650    1.3483
    7.665    1.2413
    7.680    1.4981
    7.695    1.6372
    7.710    1.4232
    7.725    1.5302
    7.740    1.6479
    7.755    1.9690
    7.770    1.8620
    7.785    2.0225
    7.800    2.1723
    7.815    2.4291
    7.830    3.0284
    7.845    3.3708
    7.860    3.5313
    7.875    2.1616
    7.890    1.5944
    7.905    1.3376
    7.920    1.3697
    7.935    1.3376
    7.950    1.1343
    7.965    1.2734
    7.980    1.2092
    7.995    1.3697
    8.010    1.4874
    8.025    1.2627
    8.040    1.4018
    8.055    1.4553
    8.070    1.3483
    8.085    1.2627
    8.100    1.3055
    8.115    1.3055
    8.130    1.3911
    8.145    1.2841
    8.160    1.4232
    8.175    1.2199
    8.190    1.0808
    8.205    1.2948
    8.220    1.2948
    8.235    1.3376
    8.250    1.2306
    8.265    1.2306
    8.280    1.1236
    8.295    1.0380
    8.310    1.2306
    8.325    1.2627
    8.340    1.2948
    8.355    1.1557
    8.370    1.0915
    8.385    1.2306
    8.400    1.1557
    8.415    1.2413
    8.430    1.2092
    8.445    1.2413
    8.460    1.2520
    8.475    1.1664
    8.490    1.1557
    8.505    1.2306
    8.520    1.0808
    8.535    1.0487
    8.550    1.0701
    8.565    1.1985
    8.580    1.1129
    8.595    1.1450
    8.610    1.1450
    8.625    0.9738
    8.640    1.0380
    8.655    1.1129
    8.670    1.1343
    8.685    0.9845
    8.700    1.1557
    8.715    1.0487
    8.730    0.8989
    8.745    1.1557
    8.760    1.2413
    8.775    1.1771
    8.790    1.2841
    8.805    1.2841
    8.820    1.1878
    8.835    1.0915
    8.850    1.2306
    8.865    1.2413
    8.880    1.2734
    8.895    1.2413
    8.910    1.2841
    8.925    1.2734
    8.940    1.2092
    8.955    1.3483
    8.970    1.5195
    8.985    1.5730
    9.000    1.8941
    9.015    2.2365
    9.030    2.3221
    9.045    2.5361
    9.060    3.4457
    9.075    3.8630
    9.090    2.7715
    9.105    1.5088
    9.120    1.1450
    9.135    1.0594
    9.150    0.9096
    9.165    1.1664
    9.180    0.8882
    9.195    0.8989
    9.210    1.1450
    9.225    1.0701
    9.240    1.1450
    9.255    1.1022
    9.270    1.1129
    9.285    0.8882
    9.300    0.9524
    9.315    0.9096
    9.330    1.0273
    9.345    1.0701
    9.360    0.9952
    9.375    0.9738
    9.390    1.0380
    9.405    1.0380
    9.420    0.9096
    9.435    0.9524
    9.450    0.9524
    9.465    0.8989
    9.480    1.0166
    9.495    1.0166
    9.510    0.9631
    9.525    1.0487
    9.540    1.0273
    9.555    0.9417
    9.570    0.9203
    9.585    0.9096
    9.600    1.0059
    9.615    1.1557
    9.630    1.0273
    9.645    0.9096
    9.660    0.9845
    9.675    0.9096
    9.690    0.8668
    9.705    0.9524
    9.720    0.9310
    9.735    1.0701
    9.750    0.8989
    9.765    0.9310
    9.780    0.9310
    9.795    0.9096
    9.810    1.0166
    9.825    0.9952
    9.840    0.9952
    9.855    0.7919
    9.870    0.9096
    9.885    1.0808
    9.900    0.9524
    9.915    0.9524
    9.930    0.8240
    9.945    0.8561
    9.960    0.9524
    9.975    0.8989
    9.990    0.8989
   10.005    0.8133
   10.020    1.0273
   10.035    1.0059
   10.050    0.8989
   10.065    0.9738
   10.080    0.8454
   10.095    1.1129
   10.110    1.1022
   10.125    0.9203
   10.140    1.0487
   10.155    1.0594
   10.170    0.9952
   10.185    0.8989
   10.200    0.9096
   10.215    0.8775
   10.230    0.8668
   10.245    0.9096
   10.260    0.8347
   10.275    0.8882
   10.290    0.9417
   10.305    1.0701
   10.320    0.9524
   10.335    0.8026
   10.350    0.7812
   10.365    0.9417
   10.380    0.8347
   10.395    0.7384
   10.410    0.8240
   10.425    0.8133
   10.440    0.7598
   10.455    1.0059
   10.470    0.9310
   10.485    0.9096
   10.500    0.9631
   10.515    0.8775
   10.530    0.9417
   10.545    0.8347
   10.560    0.8026
   10.575    0.8775
   10.590    0.8668
   10.605    0.7812
   10.620    0.8454
   10.635    0.7705
   10.650    0.7277
   10.665    0.8668
   10.680    0.7812
   10.695    0.8454
   10.710    0.6100
   10.725    0.7919
   10.740    0.9631
   10.755    0.7812
   10.770    0.7384
   10.785    0.8133
   10.800    0.8026
   10.815    0.9845
   10.830    0.8240
   10.845    0.8133
   10.860    0.9310
   10.875    1.0273
   10.890    1.0059
   10.905    1.0701
   10.920    1.1985
   10.935    1.0915
   10.950    1.1450
   10.965    1.1664
   10.980    1.2948
   10.995    1.5944
   11.010    1.6800
   11.025    1.8299
   11.040    2.1509
   11.055    2.5468
   11.070    3.7132
   11.085    4.3660
   11.100    6.0460
   11.115    8.0792
   11.130    8.0899
   11.145    3.9379
   11.160    1.6479
   11.175    1.0915
   11.190    1.0166
   11.205    0.8347
   11.220    0.9096
   11.235    0.8026
   11.250    0.8240
   11.265    0.8775
   11.280    0.7491
   11.295    0.8133
   11.310    0.9310
   11.325    0.6742
   11.340    0.9203
   11.355    1.0166
   11.370    0.9417
   11.385    0.8989
   11.400    0.9096
   11.415    0.7812
   11.430    0.8668
   11.445    0.8026
   11.460    0.9738
   11.475    0.8775
   11.490    0.7063
   11.505    0.7812
   11.520    0.8775
   11.535    0.8668
   11.550    0.8454
   11.565    0.7812
   11.580    0.9203
   11.595    0.9845
   11.610    0.9952
   11.625    0.7812
   11.640    0.7491
   11.655    0.7812
   11.670    0.9845
   11.685    0.8133
   11.700    0.7170
   11.715    0.8240
   11.730    0.8989
   11.745    0.7919
   11.760    0.6849
   11.775    0.8775
   11.790    0.8240
   11.805    1.0166
   11.820    0.8454
   11.835    0.9096
   11.850    0.8454
   11.865    0.7919
   11.880    1.0273
   11.895    1.0380
   11.910    1.0059
   11.925    0.9738
   11.940    1.1985
   11.955    1.4232
   11.970    1.6158
   11.985    1.9904
   12.000    2.4077
   12.015    3.0605
   12.030    2.4398
   12.045    1.4339
   12.060    1.0273
   12.075    0.9738
   12.090    0.9096
   12.105    0.9952
   12.120    0.7812
   12.135    0.7491
   12.150    0.9417
   12.165    0.8347
   12.180    0.9203
   12.195    0.8882
   12.210    0.9524
   12.225    0.9096
   12.240    0.9952
   12.255    1.0915
   12.270    1.0594
   12.285    1.0594
   12.300    0.8668
   12.315    0.7919
   12.330    0.9096
   12.345    0.8668
   12.360    0.8561
   12.375    0.7063
   12.390    0.7919
   12.405    0.8026
   12.420    0.8347
   12.435    0.8561
   12.450    0.8989
   12.465    0.8561
   12.480    0.8133
   12.495    0.8347
   12.510    1.0380
   12.525    1.0487
   12.540    0.9845
   12.555    1.0059
   12.570    0.9952
   12.585    0.8347
   12.600    0.8240
   12.615    0.9203
   12.630    0.8989
   12.645    0.8240
   12.660    0.7812
   12.675    0.9096
   12.690    1.0915
   12.705    1.2092
   12.720    1.1343
   12.735    1.0808
   12.750    1.0380
   12.765    1.4018
   12.780    1.4446
   12.795    1.5623
   12.810    1.5944
   12.825    2.1188
   12.840    2.8357
   12.855    3.3387
   12.870    2.2579
   12.885    1.4446
   12.900    0.9631
   12.915    1.1129
   12.930    0.8882
   12.945    1.1129
   12.960    0.9845
   12.975    0.8561
   12.990    0.6635
   13.005    0.6956
   13.020    0.9203
   13.035    0.8882
   13.050    0.9631
   13.065    0.9631
   13.080    0.8668
   13.095    0.8561
   13.110    0.9096
   13.125    0.8668
   13.140    0.9631
   13.155    0.9952
   13.170    1.1343
   13.185    0.8775
   13.200    0.8775
   13.215    0.8561
   13.230    0.8989
   13.245    0.9310
   13.260    0.7598
   13.275    0.8454
   13.290    0.9845
   13.305    0.9096
   13.320    0.8882
   13.335    0.7277
   13.350    0.7919
   13.365    0.7919
   13.380    0.7919
   13.395    0.8347
   13.410    0.7705
   13.425    0.7919
   13.440    1.0380
   13.455    0.8775
   13.470    0.9310
   13.485    0.9203
   13.500    1.0166
   13.515    1.1129
   13.530    1.1557
   13.545    1.1129
   13.560    1.3483
   13.575    1.4339
   13.590    1.7335
   13.605    2.1295
   13.620    3.1354
   13.635    3.2959
   13.650    2.6645
   13.665    1.4981
   13.680    1.1129
   13.695    0.9631
   13.710    1.0594
   13.725    0.8882
   13.740    0.8347
   13.755    0.8561
   13.770    1.0166
   13.785    0.8775
   13.800    0.7598
   13.815    0.8561
   13.830    0.9310
   13.845    0.8668
   13.860    0.7491
   13.875    0.8775
   13.890    0.8668
   13.905    0.8026
   13.920    0.7705
   13.935    0.8240
   13.950    0.8133
   13.965    0.8026
   13.980    0.6956
   13.995    0.7919
   14.010    0.6742
   14.025    0.8561
   14.040    0.9203
   14.055    0.8347
   14.070    0.7812
   14.085    0.8989
   14.100    0.7170
   14.115    0.7277
   14.130    0.8347
   14.145    0.8561
   14.160    0.8561
   14.175    0.8775
   14.190    0.9845
   14.205    0.8882
   14.220    0.8454
   14.235    0.8775
   14.250    0.9096
   14.265    0.9310
   14.280    0.9524
   14.295    0.8347
   14.310    1.0059
   14.325    0.9310
   14.340    1.0273
   14.355    0.9845
   14.370    1.1343
   14.385    1.2306
   14.400    1.0166
   14.415    0.8989
   14.430    0.8454
   14.445    0.9203
   14.460    0.8133
   14.475    0.8026
   14.490    0.8026
   14.505    0.8133
   14.520    0.7919
   14.535    0.8240
   14.550    0.9417
   14.565    0.7384
   14.580    0.8133
   14.595    0.8775
   14.610    0.8989
   14.625    0.8133
   14.640    0.8026
   14.655    0.8775
   14.670    0.9096
   14.685    0.8347
   14.700    0.9096
   14.715    0.8775
   14.730    0.8026
   14.745    0.7598
   14.760    0.7919
   14.775    0.9096
   14.790    0.8454
   14.805    0.8240
   14.820    0.7598
   14.835    0.8026
   14.850    0.8668
   14.865    0.8133
   14.880    0.8133
   14.895    0.8775
   14.910    0.8454
   14.925    0.6742
   14.940    0.8454
   14.955    1.0380
   14.970    0.8882
   14.985    0.8026
   15.000    1.0380
   15.015    1.1129
   15.030    1.3376
   15.045    1.7228
   15.060    2.1081
   15.075    2.5896
   15.090    2.8999
   15.105    1.4767
   15.120    1.0166
   15.135    0.9952
   15.150    0.9738
   15.165    0.8454
   15.180    0.7919
   15.195    0.9524
   15.210    0.8133
   15.225    0.7384
   15.240    0.7598
   15.255    0.8561
   15.270    0.7705
   15.285    0.7170
   15.300    0.8561
   15.315    0.8133
   15.330    0.8561
   15.345    0.8454
   15.360    0.8668
   15.375    0.6956
   15.390    0.6528
   15.405    0.8775
   15.420    0.7812
   15.435    0.8454
   15.450    0.7170
   15.465    0.9096
   15.480    0.7919
   15.495    0.7063
   15.510    0.8133
   15.525    0.7170
   15.540    0.8026
   15.555    0.7919
   15.570    0.7063
   15.585    0.7919
   15.600    0.8026
   15.615    0.8454
   15.630    0.8775
   15.645    0.7919
   15.660    0.8882
   15.675    0.9417
   15.690    0.8882
   15.705    0.9631
   15.720    1.3269
   15.735    1.4018
   15.750    1.7335
   15.765    2.1188
   15.780    1.4018
   15.795    0.8668
   15.810    0.6635
   15.825    0.7705
   15.840    0.7705
   15.855    0.8454
   15.870    0.7919
   15.885    0.8668
   15.900    0.8347
   15.915    0.7063
   15.930    0.6314
   15.945    0.8347
   15.960    0.8347
   15.975    0.7919
   15.990    0.8561
   16.005    0.8882
   16.020    0.9524
   16.035    0.8561
   16.050    0.8454
   16.065    0.6742
   16.080    0.8668
   16.095    0.7812
   16.110    0.7277
   16.125    0.7491
   16.140    0.7170
   16.155    0.7384
   16.170    0.7491
   16.185    0.8026
   16.200    0.8347
   16.215    0.8668
   16.230    0.8026
   16.245    0.7919
   16.260    0.7705
   16.275    1.0380
   16.290    0.9096
   16.305    0.9203
   16.320    0.9952
   16.335    1.0166
   16.350    1.0166
   16.365    1.2841
   16.380    1.5195
   16.395    2.0332
   16.410    2.4077
   16.425    1.8085
   16.440    1.1664
   16.455    0.9417
   16.470    0.7170
   16.485    0.8026
   16.500    0.8775
   16.515    0.8668
   16.530    0.7812
   16.545    0.7491
   16.560    0.7491
   16.575    0.8347
   16.590    0.9524
   16.605    0.8026
   16.620    0.9524
   16.635    0.8347
   16.650    0.9845
   16.665    0.8882
   16.680    0.8989
   16.695    0.9952
   16.710    1.0059
   16.725    0.8133
   16.740    1.0166
   16.755    0.8561
   16.770    0.8240
   16.785    0.9203
   16.800    0.8668
   16.815    0.6956
   16.830    0.7919
   16.845    0.8882
   16.860    0.8989
   16.875    0.9631
   16.890    0.8668
   16.905    0.9417
   16.920    0.8668
   16.935    0.7491
   16.950    0.8133
   16.965    0.7812
   16.980    0.8240
   16.995    0.8347
   17.010    0.8026
   17.025    0.9417
   17.040    0.8240
   17.055    0.9952
   17.070    0.7384
   17.085    0.9203
   17.100    0.7705
   17.115    0.8775
   17.130    0.8668
   17.145    0.8668
   17.160    0.7705
   17.175    0.8668
   17.190    0.8454
   17.205    0.8668
   17.220    0.8240
   17.235    0.8561
   17.250    1.0059
   17.265    1.0059
   17.280    0.8775
   17.295    0.7812
   17.310    0.9310
   17.325    0.7598
   17.340    0.7919
   17.355    0.8347
   17.370    0.7384
   17.385    0.7491
   17.400    1.0166
   17.415    0.7919
   17.430    0.7812
   17.445    0.8561
   17.460    0.8454
   17.475    0.7812
   17.490    0.8240
   17.505    0.7812
   17.520    0.7598
   17.535    0.8347
   17.550    0.9203
   17.565    0.8240
   17.580    0.7812
   17.595    0.7598
   17.610    0.9203
   17.625    1.1771
   17.640    1.1343
   17.655    0.8668
   17.670    0.8668
   17.685    0.8026
   17.700    0.8454
   17.715    0.8026
   17.730    0.8882
   17.745    0.7812
   17.760    0.7277
   17.775    0.9096
   17.790    0.7063
   17.805    0.8240
   17.820    0.8133
   17.835    0.8133
   17.850    0.7705
   17.865    0.7491
   17.880    0.8561
   17.895    0.8989
   17.910    0.8133
   17.925    0.7598
   17.940    0.7919
   17.955    0.8668
   17.970    0.8775
   17.985    0.6956
   18.000    0.7063
   18.015    0.8668
   18.030    0.7491
   18.045    0.7384
   18.060    0.7705
   18.075    0.7705
   18.090    0.6635
   18.105    0.6956
   18.120    0.8454
   18.135    0.8133
   18.150    0.6207
   18.165    0.6207
   18.180    0.8133
   18.195    0.7598
   18.210    0.8133
   18.225    0.8347
   18.240    0.9310
   18.255    0.6956
   18.270    0.6956
   18.285    0.7384
   18.300    0.7598
   18.315    0.6207
   18.330    0.7919
   18.345    0.7063
   18.360    0.7812
   18.375    0.8989
   18.390    0.7598
   18.405    0.7277
   18.420    0.8775
   18.435    0.8668
   18.450    0.7491
   18.465    0.8347
   18.480    0.7598
   18.495    0.7384
   18.510    0.7491
   18.525    0.6635
   18.540    0.6956
   18.555    0.8989
   18.570    0.7919
   18.585    0.7705
   18.600    0.7277
   18.615    0.7919
   18.630    0.8561
   18.645    0.8240
   18.660    0.8347
   18.675    0.9631
   18.690    0.8454
   18.705    0.7491
   18.720    0.8882
   18.735    0.9524
   18.750    0.9631
   18.765    0.9631
   18.780    1.1557
   18.795    1.1450
   18.810    0.9096
   18.825    0.9738
   18.840    0.9952
   18.855    0.8668
   18.870    1.0166
   18.885    0.9203
   18.900    0.7063
   18.915    0.7170
   18.930    0.6742
   18.945    0.7919
   18.960    0.8775
   18.975    0.8347
   18.990    0.7705
   19.005    0.8133
   19.020    0.9845
   19.035    0.8668
   19.050    0.7277
   19.065    0.7170
   19.080    0.8347
   19.095    0.7491
   19.110    0.7705
   19.125    0.7170
   19.140    0.8454
   19.155    0.9952
   19.170    0.8882
   19.185    0.8240
   19.200    0.7491
   19.215    0.9738
   19.230    0.9417
   19.245    0.7705
   19.260    0.7598
   19.275    0.8561
   19.290    0.9524
   19.305    1.0166
   19.320    1.1129
   19.335    1.5302
   19.350    1.1557
   19.365    0.9738
   19.380    0.9417
   19.395    0.8347
   19.410    0.7491
   19.425    0.7063
   19.440    0.7277
   19.455    0.7384
   19.470    0.8561
   19.485    0.9203
   19.500    0.7384
   19.515    0.7063
   19.530    0.7598
   19.545    0.8240
   19.560    0.8347
   19.575    0.8240
   19.590    0.7170
   19.605    0.7170
   19.620    0.7598
   19.635    0.8668
   19.650    0.7598
   19.665    0.6314
   19.680    0.6742
   19.695    0.7491
   19.710    0.7705
   19.725    0.8454
   19.740    0.7170
   19.755    0.8882
   19.770    0.9096
   19.785    0.9524
   19.800    1.0273
   19.815    1.0059
   19.830    1.1129
   19.845    1.6372
   19.860    2.2472
   19.875    2.1295
   19.890    1.5944
   19.905    0.9738
   19.920    0.9952
   19.935    0.8882
   19.950    0.7705
   19.965    0.7919
   19.980    0.6421
   19.995    0.7063
   20.010    0.7919
   20.025    0.7170
   20.040    0.6528
   20.055    0.7277
   20.070    0.8133
   20.085    0.8133
   20.100    0.8026
   20.115    0.8668
   20.130    0.7384
   20.145    0.8133
   20.160    0.9417
   20.175    0.8454
   20.190    0.8561
   20.205    0.8026
   20.220    0.9845
   20.235    0.8347
   20.250    0.7063
   20.265    0.7063
   20.280    0.7812
   20.295    0.8561
   20.310    0.8026
   20.325    0.8240
   20.340    0.7812
   20.355    0.9952
   20.370    0.9203
   20.385    1.0059
   20.400    1.2413
   20.415    0.9631
   20.430    0.7705
   20.445    0.6956
   20.460    0.8240
   20.475    0.6528
   20.490    0.7705
   20.505    0.8775
   20.520    0.8882
   20.535    0.9310
   20.550    0.9524
   20.565    0.9096
   20.580    0.6849
   20.595    0.6635
   20.610    0.7491
   20.625    0.7063
   20.640    0.8668
   20.655    0.8026
   20.670    0.7919
   20.685    0.7598
   20.700    0.8240
   20.715    0.9417
   20.730    0.8240
   20.745    0.8561
   20.760    0.8775
   20.775    0.7170
   20.790    0.7919
   20.805    0.7063
   20.820    0.6635
   20.835    0.8240
   20.850    0.9096
   20.865    0.9096
   20.880    0.8775
   20.895    1.0380
   20.910    1.2734
   20.925    1.0166
   20.940    1.0380
   20.955    0.7384
   20.970    0.6314
   20.985    0.6849
   21.000    0.9096
   21.015    0.9096
   21.030    0.8775
   21.045    0.7919
   21.060    0.7063
   21.075    0.7919
   21.090    0.8882
   21.105    0.7384
   21.120    0.8240
   21.135    0.5671
   21.150    0.6849
   21.165    0.8133
   21.180    0.6849
   21.195    0.7384
   21.210    0.7812
   21.225    0.8240
   21.240    0.8989
   21.255    0.7919
   21.270    0.8668
   21.285    0.6528
   21.300    0.6742
   21.315    0.7812
   21.330    0.8133
   21.345    0.9203
   21.360    0.8454
   21.375    0.9096
   21.390    1.0594
   21.405    1.1343
   21.420    0.9417
   21.435    0.8454
   21.450    0.7919
   21.465    0.7384
   21.480    0.8133
   21.495    0.6635
   21.510    0.6956
   21.525    0.7491
   21.540    0.8026
   21.555    0.8133
   21.570    0.7598
   21.585    0.6956
   21.600    0.7170
   21.615    0.6742
   21.630    0.7919
   21.645    0.8561
   21.660    0.7598
   21.675    0.5886
   21.690    0.6314
   21.705    0.6742
   21.720    0.7277
   21.735    0.6314
   21.750    0.8133
   21.765    0.6742
   21.780    0.7705
   21.795    0.7384
   21.810    0.7598
   21.825    0.6314
   21.840    0.7919
   21.855    0.8454
   21.870    0.8775
   21.885    0.8668
   21.900    0.7705
   21.915    0.8668
   21.930    0.6528
   21.945    0.7919
   21.960    0.6635
   21.975    0.6528
   21.990    0.7812
   22.005    0.6314
   22.020    0.5993
   22.035    0.7170
   22.050    0.6956
   22.065    0.6528
   22.080    0.7705
   22.095    0.7384
   22.110    0.7598
   22.125    0.7277
   22.140    0.6421
   22.155    0.8454
   22.170    0.7491
   22.185    0.6528
   22.200    0.5350
   22.215    0.6742
   22.230    0.7277
   22.245    0.6956
   22.260    0.7598
   22.275    0.7170
   22.290    0.6314
   22.305    0.7491
   22.320    0.7170
   22.335    0.7491
   22.350    0.8133
   22.365    0.9738
   22.380    0.9417
   22.395    0.6314
   22.410    0.8240
   22.425    0.7919
   22.440    0.6528
   22.455    0.7919
   22.470    0.6849
   22.485    0.7919
   22.500    0.7812
   22.515    0.8668
   22.530    0.7919
   22.545    0.8775
   22.560    0.7812
   22.575    0.7491
   22.590    0.5671
   22.605    0.7063
   22.620    0.7812
   22.635    0.7491
   22.650    0.7384
   22.665    0.7598
   22.680    0.7384
   22.695    0.7491
   22.710    0.7919
   22.725    0.8668
   22.740    0.8454
   22.755    0.8347
   22.770    0.8347
   22.785    0.6849
   22.800    0.9524
   22.815    1.0915
   22.830    1.1129
   22.845    1.0701
   22.860    0.9845
   22.875    0.7919
   22.890    0.8668
   22.905    0.7705
   22.920    0.8561
   22.935    0.8561
   22.950    0.6956
   22.965    0.7170
   22.980    0.6528
   22.995    0.6314
   23.010    0.7063
   23.025    0.7277
   23.040    0.7277
   23.055    0.6742
   23.070    0.5457
   23.085    0.7491
   23.100    0.6849
   23.115    0.7919
   23.130    0.7598
   23.145    0.6314
   23.160    0.7063
   23.175    0.7705
   23.190    0.8026
   23.205    0.7170
   23.220    0.6528
   23.235    0.6421
   23.250    0.7170
   23.265    0.6314
   23.280    0.6849
   23.295    0.7598
   23.310    0.7812
   23.325    0.7598
   23.340    0.6635
   23.355    0.8668
   23.370    0.8026
   23.385    0.7063
   23.400    0.8133
   23.415    0.8561
   23.430    0.6742
   23.445    0.6421
   23.460    0.6528
   23.475    0.6100
   23.490    0.6956
   23.505    0.7491
   23.520    0.6528
   23.535    0.6635
   23.550    0.6956
   23.565    0.6528
   23.580    0.8026
   23.595    0.8133
   23.610    0.8775
   23.625    0.7598
   23.640    0.6742
   23.655    0.7812
   23.670    0.8454
   23.685    0.7705
   23.700    0.9524
   23.715    1.2306
   23.730    1.6907
   23.745    2.0760
   23.760    1.7442
   23.775    0.9952
   23.790    0.8240
   23.805    0.6742
   23.820    0.6528
   23.835    0.5671
   23.850    0.7598
   23.865    0.7598
   23.880    0.6421
   23.895    0.5243
   23.910    0.6421
   23.925    0.5671
   23.940    0.5993
   23.955    0.6207
   23.970    0.6956
   23.985    0.6314
   24.000    0.6100
   24.015    0.6207
   24.030    0.5993
   24.045    0.6421
   24.060    0.6100
   24.075    0.6528
   24.090    0.7170
   24.105    0.7919
   24.120    0.6314
   24.135    0.6100
   24.150    0.7063
   24.165    0.7170
   24.180    0.8240
   24.195    0.6314
   24.210    0.6742
   24.225    0.7063
   24.240    0.7063
   24.255    0.6635
   24.270    0.6742
   24.285    0.7170
   24.300    0.6528
   24.315    0.6742
   24.330    0.6742
   24.345    0.6314
   24.360    0.6314
   24.375    0.6421
   24.390    0.5778
   24.405    0.5993
   24.420    0.5778
   24.435    0.5886
   24.450    0.8133
   24.465    0.6421
   24.480    0.5671
   24.495    0.5993
   24.510    0.7170
   24.525    0.6849
   24.540    0.5457
   24.555    0.6100
   24.570    0.6528
   24.585    0.5993
   24.600    0.8133
   24.615    0.7063
   24.630    0.7491
   24.645    0.7598
   24.660    0.7598
   24.675    0.5886
   24.690    0.6528
   24.705    0.6421
   24.720    0.6956
   24.735    0.6956
   24.750    0.7384
   24.765    0.8454
   24.780    0.7919
   24.795    0.5778
   24.810    0.6528
   24.825    0.6635
   24.840    0.6528
   24.855    0.5993
   24.870    0.5457
   24.885    0.6100
   24.900    0.7598
   24.915    0.6849
   24.930    0.8240
   24.945    0.8026
   24.960    0.7170
   24.975    0.7277
   24.990    0.6956
   25.005    0.7705
   25.020    0.7277
   25.035    0.8454
   25.050    0.6635
   25.065    0.7384
   25.080    0.5564
   25.095    0.6956
   25.110    0.6100
   25.125    0.6528
   25.140    0.6742
   25.155    0.5778
   25.170    0.5243
   25.185    0.5886
   25.200    0.6849
   25.215    0.5993
   25.230    0.6207
   25.245    0.7170
   25.260    0.6100
   25.275    0.5993
   25.290    0.6849
   25.305    0.6528
   25.320    0.6635
   25.335    0.7491
   25.350    0.6421
   25.365    0.7063
   25.380    0.7063
   25.395    0.6314
   25.410    0.7919
   25.425    0.7063
   25.440    0.8347
   25.455    0.8882
   25.470    1.0059
   25.485    0.9096
   25.500    0.8133
   25.515    0.6742
   25.530    0.7705
   25.545    0.7705
   25.560    0.5886
   25.575    0.6207
   25.590    0.7384
   25.605    0.7170
   25.620    0.6100
   25.635    0.7491
   25.650    0.6314
   25.665    0.5564
   25.680    0.6956
   25.695    0.6956
   25.710    0.5564
   25.725    0.5886
   25.740    0.7170
   25.755    0.7170
   25.770    0.6314
   25.785    0.7812
   25.800    0.7384
   25.815    0.7598
   25.830    0.6635
   25.845    0.6849
   25.860    0.9096
   25.875    1.0059
   25.890    1.0059
   25.905    0.9417
   25.920    0.7170
   25.935    0.6635
   25.950    0.6421
   25.965    0.6100
   25.980    0.6742
   25.995    0.5993
   26.010    0.5457
   26.025    0.5564
   26.040    0.7170
   26.055    0.7491
   26.070    0.6956
   26.085    0.6849
   26.100    0.7170
   26.115    0.7384
   26.130    0.6635
   26.145    0.6100
   26.160    0.6956
   26.175    0.6100
   26.190    0.5564
   26.205    0.5886
   26.220    0.6742
   26.235    0.6956
   26.250    0.9310
   26.265    1.1557
   26.280    1.7549
   26.295    2.0118
   26.310    1.5837
   26.325    1.0808
   26.340    0.8668
   26.355    0.8882
   26.370    0.9310
   26.385    0.6314
   26.400    0.6849
   26.415    0.7063
   26.430    0.5993
   26.445    0.6528
   26.460    0.5993
   26.475    0.6100
   26.490    0.7384
   26.505    0.7384
   26.520    0.5564
   26.535    0.5886
   26.550    0.7277
   26.565    0.5778
   26.580    0.5886
   26.595    0.5457
   26.610    0.6528
   26.625    0.6742
   26.640    0.7812
   26.655    1.0273
   26.670    1.2092
   26.685    1.4874
   26.700    2.0760
   26.715    1.5088
   26.730    1.0059
   26.745    0.5993
   26.760    0.6421
   26.775    0.7491
   26.790    0.6421
   26.805    0.6100
   26.820    0.5243
   26.835    0.6742
   26.850    0.5350
   26.865    0.5778
   26.880    0.6742
   26.895    0.6849
   26.910    0.6528
   26.925    0.5886
   26.940    0.6207
   26.955    0.6100
   26.970    0.4708
   26.985    0.5993
   27.000    0.5350
   27.015    0.5671
   27.030    0.6314
   27.045    0.8561
   27.060    0.8454
   27.075    0.8454
   27.090    1.0701
   27.105    0.9310
   27.120    0.8240
   27.135    0.7491
   27.150    0.5886
   27.165    0.6956
   27.180    0.6421
   27.195    0.6956
   27.210    0.7277
   27.225    0.6635
   27.240    0.6100
   27.255    0.6314
   27.270    0.6635
   27.285    0.6742
   27.300    0.5778
   27.315    0.6207
   27.330    0.6314
   27.345    0.6207
   27.360    0.7705
   27.375    0.6421
   27.390    0.5778
   27.405    0.6421
   27.420    0.5457
   27.435    0.6100
   27.450    0.6849
   27.465    0.7812
   27.480    0.6421
   27.495    0.7063
   27.510    0.6207
   27.525    0.6528
   27.540    0.5029
   27.555    0.5564
   27.570    0.5350
   27.585    0.5243
   27.600    0.5457
   27.615    0.6635
   27.630    0.4815
   27.645    0.6314
   27.660    0.5993
   27.675    0.4922
   27.690    0.4601
   27.705    0.5671
   27.720    0.5993
   27.735    0.5457
   27.750    0.4922
   27.765    0.5886
   27.780    0.5457
   27.795    0.6742
   27.810    0.6314
   27.825    0.6635
   27.840    0.8026
   27.855    0.8240
   27.870    0.9310
   27.885    0.8561
   27.900    0.7598
   27.915    0.6207
   27.930    0.5457
   27.945    0.6956
   27.960    0.6742
   27.975    0.5029
   27.990    0.6635
   28.005    0.6528
   28.020    0.4815
   28.035    0.5671
   28.050    0.7063
   28.065    0.6100
   28.080    0.5136
   28.095    0.4708
   28.110    0.5457
   28.125    0.5564
   28.140    0.5350
   28.155    0.5886
   28.170    0.5778
   28.185    0.5243
   28.200    0.5350
   28.215    0.5886
   28.230    0.5136
   28.245    0.5136
   28.260    0.6421
   28.275    0.5886
   28.290    0.5350
   28.305    0.5564
   28.320    0.6100
   28.335    0.5029
   28.350    0.5029
   28.365    0.5564
   28.380    0.5243
   28.395    0.5671
   28.410    0.5457
   28.425    0.5243
   28.440    0.6742
   28.455    0.5564
   28.470    0.4815
   28.485    0.4494
   28.500    0.5136
   28.515    0.5671
   28.530    0.5029
   28.545    0.5564
   28.560    0.5350
   28.575    0.5350
   28.590    0.4708
   28.605    0.5778
   28.620    0.5886
   28.635    0.7491
   28.650    0.5564
   28.665    0.5564
   28.680    0.5778
   28.695    0.5993
   28.710    0.5350
   28.725    0.5993
   28.740    0.5029
   28.755    0.5029
   28.770    0.4708
   28.785    0.4815
   28.800    0.4173
   28.815    0.5886
   28.830    0.5564
   28.845    0.5029
   28.860    0.6207
   28.875    0.6100
   28.890    0.4922
   28.905    0.5029
   28.920    0.5243
   28.935    0.6849
   28.950    0.5564
   28.965    0.6528
   28.980    0.6528
   28.995    0.6100
   29.010    0.6849
   29.025    0.8347
   29.040    0.5457
   29.055    0.6742
   29.070    0.6742
   29.085    0.6314
   29.100    0.4280
   29.115    0.5457
   29.130    0.5993
   29.145    0.4922
   29.160    0.5136
   29.175    0.4387
   29.190    0.5029
   29.205    0.5350
   29.220    0.4922
   29.235    0.4922
   29.250    0.5029
   29.265    0.4387
   29.280    0.5350
   29.295    0.5350
   29.310    0.6314
   29.325    0.6742
   29.340    0.7063
   29.355    0.6100
   29.370    0.6635
   29.385    0.7598
   29.400    0.7812
   29.415    0.5243
   29.430    0.5457
   29.445    0.5778
   29.460    0.5886
   29.475    0.5243
   29.490    0.5564
   29.505    0.5886
   29.520    0.5564
   29.535    0.4815
   29.550    0.5136
   29.565    0.5029
   29.580    0.4601
   29.595    0.4922
   29.610    0.3852
   29.625    0.5350
   29.640    0.3959
   29.655    0.5564
   29.670    0.5564
   29.685    0.5993
   29.700    0.4601
   29.715    0.5350
   29.730    0.6849
   29.745    0.8026
   29.760    0.6100
   29.775    0.5778
   29.790    0.5778
   29.805    0.5457
   29.820    0.4922
   29.835    0.5778
   29.850    0.5564
   29.865    0.4066
   29.880    0.5136
   29.895    0.5671
   29.910    0.5029
   29.925    0.4387
   29.940    0.4601
   29.955    0.5778
   29.970    0.5243
   29.985    0.3317
   30.000    0.3531
   30.015    0.5457
   30.030    0.7063
   30.045    0.6207
   30.060    0.7812
   30.075    0.8668
   30.090    1.3162
   30.105    1.2520
   30.120    1.3804
   30.135    0.6742
   30.150    0.6421
   30.165    0.4601
   30.180    0.6314
   30.195    0.6207
   30.210    0.4815
   30.225    0.5778
   30.240    0.6207
   30.255    0.5243
   30.270    0.5886
   30.285    0.5778
   30.300    0.5350
   30.315    0.5029
   30.330    0.5778
   30.345    0.4494
   30.360    0.5029
   30.375    0.5350
   30.390    0.5350
   30.405    0.5136
   30.420    0.5350
   30.435    0.5778
   30.450    0.6314
   30.465    0.6207
   30.480    0.6207
   30.495    0.5564
   30.510    0.5886
   30.525    0.4280
   30.540    0.4387
   30.555    0.5350
   30.570    0.5136
   30.585    0.5457
   30.600    0.5243
   30.615    0.5350
   30.630    0.4601
   30.645    0.5243
   30.660    0.4815
   30.675    0.6100
   30.690    0.5778
   30.705    0.5243
   30.720    0.5350
   30.735    0.6100
   30.750    0.6100
   30.765    0.5993
   30.780    0.6314
   30.795    0.6421
   30.810    0.9417
   30.825    0.7063
   30.840    0.5350
   30.855    0.4387
   30.870    0.4387
   30.885    0.6314
   30.900    0.6207
   30.915    0.4601
   30.930    0.4280
   30.945    0.5243
   30.960    0.4922
   30.975    0.3959
   30.990    0.4494
   31.005    0.4387
   31.020    0.5778
   31.035    0.4387
   31.050    0.4815
   31.065    0.4173
   31.080    0.3745
   31.095    0.4815
   31.110    0.4815
   31.125    0.5029
   31.140    0.5029
   31.155    0.5136
   31.170    0.4708
   31.185    0.5564
   31.200    0.6207
   31.215    0.4387
   31.230    0.6100
   31.245    0.6742
   31.260    0.6314
   31.275    0.5457
   31.290    0.4922
   31.305    0.4815
   31.320    0.4922
   31.335    0.5243
   31.350    0.4280
   31.365    0.5243
   31.380    0.5029
   31.395    0.4173
   31.410    0.5243
   31.425    0.4708
   31.440    0.4280
   31.455    0.5564
   31.470    0.5671
   31.485    0.7598
   31.500    0.9631
   31.515    0.9417
   31.530    0.7919
   31.545    0.5778
   31.560    0.5564
   31.575    0.4387
   31.590    0.5243
   31.605    0.5564
   31.620    0.5350
   31.635    0.4708
   31.650    0.5029
   31.665    0.5029
   31.680    0.5243
   31.695    0.3745
   31.710    0.3852
   31.725    0.4280
   31.740    0.3745
   31.755    0.5671
   31.770    0.5029
   31.785    0.4601
   31.800    0.4601
   31.815    0.4922
   31.830    0.4708
   31.845    0.6528
   31.860    0.6207
   31.875    0.5778
   31.890    0.5136
   31.905    0.4173
   31.920    0.4922
   31.935    0.4922
   31.950    0.5350
   31.965    0.4708
   31.980    0.5029
   31.995    0.4387
   32.010    0.4601
   32.025    0.3959
   32.040    0.4387
   32.055    0.4815
   32.070    0.4173
   32.085    0.4280
   32.100    0.5136
   32.115    0.4815
   32.130    0.5350
   32.145    0.5886
   32.160    0.5457
   32.175    0.6635
   32.190    0.6956
   32.205    0.7170
   32.220    0.5778
   32.235    0.5136
   32.250    0.4708
   32.265    0.3745
   32.280    0.3745
   32.295    0.3745
   32.310    0.4280
   32.325    0.5029
   32.340    0.5029
   32.355    0.4066
   32.370    0.4708
   32.385    0.4173
   32.400    0.4708
   32.415    0.4494
   32.430    0.4387
   32.445    0.3745
   32.460    0.4922
   32.475    0.5671
   32.490    0.5350
   32.505    0.4922
   32.520    0.6314
   32.535    0.6100
   32.550    0.5350
   32.565    0.5993
   32.580    0.4387
   32.595    0.4601
   32.610    0.3638
   32.625    0.3959
   32.640    0.3852
   32.655    0.4280
   32.670    0.3959
   32.685    0.4494
   32.700    0.4708
   32.715    0.5029
   32.730    0.4387
   32.745    0.3959
   32.760    0.3852
   32.775    0.5029
   32.790    0.5671
   32.805    0.6635
   32.820    0.5993
   32.835    0.7063
   32.850    1.0059
   32.865    1.0594
   32.880    0.7170
   32.895    0.5457
   32.910    0.5671
   32.925    0.5136
   32.940    0.5029
   32.955    0.4815
   32.970    0.4815
   32.985    0.5029
   33.000    0.5993
   33.015    0.5457
   33.030    0.5029
   33.045    0.5029
   33.060    0.4280
   33.075    0.5029
   33.090    0.5564
   33.105    0.5457
   33.120    0.4708
   33.135    0.4708
   33.150    0.5564
   33.165    0.6100
   33.180    0.8454
   33.195    0.8240
   33.210    0.5671
   33.225    0.5671
   33.240    0.6421
   33.255    0.5993
   33.270    0.5136
   33.285    0.4708
   33.300    0.4066
   33.315    0.4708
   33.330    0.4494
   33.345    0.4173
   33.360    0.4387
   33.375    0.5029
   33.390    0.4815
   33.405    0.4387
   33.420    0.3745
   33.435    0.4387
   33.450    0.4280
   33.465    0.5778
   33.480    0.4815
   33.495    0.5243
   33.510    0.4601
   33.525    0.4494
   33.540    0.5564
   33.555    0.5457
   33.570    0.5886
   33.585    0.5029
   33.600    0.3745
   33.615    0.4066
   33.630    0.4066
   33.645    0.3852
   33.660    0.4387
   33.675    0.3852
   33.690    0.4494
   33.705    0.3959
   33.720    0.4494
   33.735    0.5136
   33.750    0.4815
   33.765    0.5564
   33.780    0.5457
   33.795    0.4601
   33.810    0.4494
   33.825    0.5243
   33.840    0.5564
   33.855    0.4494
   33.870    0.5457
   33.885    0.5136
   33.900    0.5243
   33.915    0.4601
   33.930    0.4173
   33.945    0.4601
   33.960    0.4601
   33.975    0.4387
   33.990    0.4387
   34.005    0.4387
   34.020    0.4066
   34.035    0.4066
   34.050    0.4922
   34.065    0.5029
   34.080    0.3317
   34.095    0.4173
   34.110    0.4815
   34.125    0.4387
   34.140    0.6100
   34.155    0.6742
   34.170    0.6421
   34.185    0.6314
   34.200    0.5564
   34.215    0.4708
   34.230    0.4387
   34.245    0.4815
   34.260    0.4173
   34.275    0.4387
   34.290    0.3745
   34.305    0.2889
   34.320    0.3531
   34.335    0.4173
   34.350    0.3745
   34.365    0.3638
   34.380    0.4173
   34.395    0.3745
   34.410    0.4387
   34.425    0.4173
   34.440    0.4708
   34.455    0.4066
   34.470    0.3745
   34.485    0.4708
   34.500    0.4066
   34.515    0.3210
   34.530    0.3531
   34.545    0.4601
   34.560    0.4173
   34.575    0.4708
   34.590    0.3424
   34.605    0.3531
   34.620    0.4173
   34.635    0.3317
   34.650    0.4387
   34.665    0.4708
   34.680    0.3852
   34.695    0.4601
   34.710    0.4708
   34.725    0.3424
   34.740    0.3531
   34.755    0.4066
   34.770    0.4708
   34.785    0.5243
   34.800    0.5886
   34.815    0.5029
   34.830    0.5029
   34.845    0.3531
   34.860    0.3638
   34.875    0.3745
   34.890    0.2889
   34.905    0.3638
   34.920    0.4387
   34.935    0.3638
   34.950    0.3959
   34.965    0.4066
   34.980    0.3959
   34.995    0.3210
   35.010    0.4173
   35.025    0.4708
   35.040    0.4066
   35.055    0.3745
   35.070    0.3745
   35.085    0.4708
   35.100    0.4922
   35.115    0.4922
   35.130    0.4066
   35.145    0.3638
   35.160    0.3103
   35.175    0.3531
   35.190    0.4387
   35.205    0.3852
   35.220    0.5136
   35.235    0.5029
   35.250    0.4601
   35.265    0.4173
   35.280    0.3210
   35.295    0.3852
   35.310    0.3317
   35.325    0.3424
   35.340    0.4066
   35.355    0.4387
   35.370    0.4708
   35.385    0.3424
   35.400    0.3103
   35.415    0.3745
   35.430    0.4815
   35.445    0.4280
   35.460    0.4494
   35.475    0.3959
   35.490    0.4173
   35.505    0.3745
   35.520    0.3638
   35.535    0.4280
   35.550    0.3103
   35.565    0.3745
   35.580    0.4280
   35.595    0.3210
   35.610    0.3424
   35.625    0.3531
   35.640    0.3852
   35.655    0.3317
   35.670    0.3317
   35.685    0.4387
   35.700    0.4387
   35.715    0.5136
   35.730    0.5350
   35.745    0.5564
   35.760    0.4708
   35.775    0.3852
   35.790    0.2996
   35.805    0.3852
   35.820    0.3959
   35.835    0.4066
   35.850    0.3745
   35.865    0.3852
   35.880    0.4066
   35.895    0.3317
   35.910    0.2782
   35.925    0.3424
   35.940    0.2782
   35.955    0.2675
   35.970    0.3210
   35.985    0.2996
   36.000    0.3317
   36.015    0.3317
   36.030    0.3959
   36.045    0.4280
   36.060    0.4387
   36.075    0.3745
   36.090    0.4601
   36.105    0.4601
   36.120    0.4494
   36.135    0.3638
   36.150    0.2568
   36.165    0.2889
   36.180    0.3210
   36.195    0.2354
   36.210    0.3531
   36.225    0.3531
   36.240    0.2996
   36.255    0.2889
   36.270    0.3317
   36.285    0.3317
   36.300    0.3424
   36.315    0.3745
   36.330    0.3210
   36.345    0.3531
   36.360    0.2675
   36.375    0.3103
   36.390    0.3852
   36.405    0.3317
   36.420    0.2889
   36.435    0.3745
   36.450    0.3103
   36.465    0.2675
   36.480    0.3745
   36.495    0.4173
   36.510    0.3210
   36.525    0.3531
   36.540    0.4066
   36.555    0.3852
   36.570    0.4173
   36.585    0.3745
   36.600    0.4066
   36.615    0.4601
   36.630    0.4815
   36.645    0.4494
   36.660    0.4280
   36.675    0.4815
   36.690    0.4173
   36.705    0.3210
   36.720    0.3852
   36.735    0.3745
   36.750    0.3424
   36.765    0.3424
   36.780    0.2889
   36.795    0.2568
   36.810    0.2675
   36.825    0.3317
   36.840    0.3745
   36.855    0.3103
   36.870    0.3317
   36.885    0.2889
   36.900    0.3531
   36.915    0.4066
   36.930    0.3852
   36.945    0.2889
   36.960    0.3424
   36.975    0.3745
   36.990    0.2889
   37.005    0.2675
   37.020    0.3424
   37.035    0.3531
   37.050    0.2782
   37.065    0.3959
   37.080    0.4387
   37.095    0.2996
   37.110    0.3424
   37.125    0.2568
   37.140    0.3959
   37.155    0.4387
   37.170    0.3638
   37.185    0.4815
   37.200    0.4387
   37.215    0.4066
   37.230    0.3852
   37.245    0.3424
   37.260    0.2782
   37.275    0.2782
   37.290    0.2568
   37.305    0.2461
   37.320    0.2996
   37.335    0.2675
   37.350    0.3103
   37.365    0.2996
   37.380    0.3210
   37.395    0.2782
   37.410    0.2782
   37.425    0.3745
   37.440    0.2996
   37.455    0.3103
   37.470    0.3424
   37.485    0.3103
   37.500    0.2996
   37.515    0.3103
   37.530    0.3745
   37.545    0.3745
   37.560    0.4601
   37.575    0.2782
   37.590    0.3103
   37.605    0.2889
   37.620    0.3210
   37.635    0.3852
   37.650    0.3103
   37.665    0.3424
   37.680    0.3531
   37.695    0.3103
   37.710    0.3531
   37.725    0.3531
   37.740    0.2889
   37.755    0.2461
   37.770    0.3103
   37.785    0.2996
   37.800    0.4387
   37.815    0.4066
   37.830    0.3103
   37.845    0.2675
   37.860    0.4173
   37.875    0.3317
   37.890    0.3424
   37.905    0.2889
   37.920    0.3210
   37.935    0.3745
   37.950    0.3424
   37.965    0.3317
   37.980    0.2889
   37.995    0.3424
   38.010    0.3103
   38.025    0.2568
   38.040    0.3210
   38.055    0.2675
   38.070    0.2782
   38.085    0.3638
   38.100    0.3317
   38.115    0.2461
   38.130    0.3210
   38.145    0.2461
   38.160    0.2675
   38.175    0.3424
   38.190    0.3210
   38.205    0.2675
   38.220    0.3210
   38.235    0.2782
   38.250    0.2354
   38.265    0.2889
   38.280    0.2675
   38.295    0.3424
   38.310    0.3103
   38.325    0.2782
   38.340    0.2568
   38.355    0.3531
   38.370    0.2996
   38.385    0.3103
   38.400    0.4280
   38.415    0.3959
   38.430    0.4173
   38.445    0.4066
   38.460    0.3317
   38.475    0.3210
   38.490    0.2996
   38.505    0.3317
   38.520    0.2568
   38.535    0.1926
   38.550    0.2568
   38.565    0.3424
   38.580    0.3424
   38.595    0.2675
   38.610    0.2782
   38.625    0.2889
   38.640    0.3424
   38.655    0.2996
   38.670    0.3638
   38.685    0.3210
   38.700    0.2675
   38.715    0.2568
   38.730    0.2568
   38.745    0.2461
   38.760    0.2461
   38.775    0.2675
   38.790    0.3210
   38.805    0.3210
   38.820    0.2782
   38.835    0.2782
   38.850    0.3210
   38.865    0.3103
   38.880    0.3317
   38.895    0.3531
   38.910    0.2247
   38.925    0.2033
   38.940    0.2568
   38.955    0.2889
   38.970    0.3103
   38.985    0.2996
   39.000    0.2247
   39.015    0.3317
   39.030    0.3424
   39.045    0.3210
   39.060    0.2675
   39.075    0.1926
   39.090    0.2996
   39.105    0.2996
   39.120    0.2996
   39.135    0.3210
   39.150    0.3103
   39.165    0.2782
   39.180    0.3103
   39.195    0.2675
   39.210    0.3638
   39.225    0.4173
   39.240    0.2461
   39.255    0.3103
   39.270    0.3317
   39.285    0.2889
   39.300    0.3103
   39.315    0.3852
   39.330    0.3531
   39.345    0.2568
   39.360    0.3424
   39.375    0.2782
   39.390    0.3959
   39.405    0.4066
   39.420    0.3317
   39.435    0.2461
   39.450    0.2782
   39.465    0.2889
   39.480    0.2889
   39.495    0.2568
   39.510    0.2247
   39.525    0.3210
   39.540    0.3959
   39.555    0.3959
   39.570    0.4280
   39.585    0.4280
   39.600    0.3424
   39.615    0.2675
   39.630    0.2996
   39.645    0.3317
   39.660    0.3317
   39.675    0.3531
   39.690    0.3103
   39.705    0.2996
   39.720    0.2782
   39.735    0.2033
   39.750    0.3317
   39.765    0.2889
   39.780    0.2354
   39.795    0.2889
   39.810    0.2782
   39.825    0.3959
   39.840    0.3424
   39.855    0.4173
   39.870    0.3852
   39.885    0.2247
   39.900    0.2889
   39.915    0.2568
   39.930    0.2140
   39.945    0.2996
   39.960    0.2889
   39.975    0.2461
   39.990    0.2461
