    1.500   28.8889
    1.515   29.0785
    1.530   28.6993
    1.545   28.3412
    1.560   28.0463
    1.575   27.3618
    1.590   26.0664
    1.605   25.5503
    1.620   25.8662
    1.635   25.9716
    1.650   25.3607
    1.665   24.7499
    1.680   24.0548
    1.695   23.6335
    1.710   22.5382
    1.725   23.0332
    1.740   23.3281
    1.755   21.8115
    1.770   21.7694
    1.785   21.0321
    1.800   21.4113
    1.815   20.7372
    1.830   20.5582
    1.845   20.3897
    1.860   20.0632
    1.875   19.8842
    1.890   19.4313
    1.905   20.1790
    1.920   19.7788
    1.935   19.1680
    1.950   18.7256
    1.965   18.4097
    1.980   18.2412
    1.995   18.6098
    2.010   18.7256
    2.025   17.4724
    2.040   17.1880
    2.055   17.6409
    2.070   16.8404
    2.085   17.3460
    2.100   17.3670
    2.115   16.6930
    2.130   16.4297
    2.145   16.3349
    2.160   16.3033
    2.175   15.9242
    2.190   16.3349
    2.205   16.0295
    2.220   15.5029
    2.235   15.2817
    2.250   15.4292
    2.265   15.9874
    2.280   15.9452
    2.295   15.4713
    2.310   15.4292
    2.325   15.1237
    2.340   15.2923
    2.355   15.2291
    2.370   15.1237
    2.385   15.1343
    2.400   15.0500
    2.415   15.0395
    2.430   15.1764
    2.445   15.4397
    2.460   15.7662
    2.475   15.3344
    2.490   14.6709
    2.505   15.2712
    2.520   15.0606
    2.535   14.5550
    2.550   15.2817
    2.565   15.5134
    2.580   15.4397
    2.595   15.7873
    2.610   15.1553
    2.625   16.0611
    2.640   15.1237
    2.655   15.3765
    2.670   16.6087
    2.685   16.0927
    2.700   16.4086
    2.715   16.6825
    2.730   16.3139
    2.745   16.8510
    2.760   17.5566
    2.775   18.0411
    2.790   18.3465
    2.805   19.2312
    2.820   19.7262
    2.835   19.0100
    2.850   19.5682
    2.865   20.2738
    2.880   21.3902
    2.895   22.3697
    2.910   22.7804
    2.925   23.4545
    2.940   24.0021
    2.955   24.6130
    2.970   25.3818
    2.985   27.5513
    3.000   27.8673
    3.015   28.9521
    3.030   31.1638
    3.045   32.3749
    3.060   32.3960
    3.075   34.5024
    3.090   36.0295
    3.105   37.4092
    3.120   40.7899
    3.135   42.1169
    3.150   44.3075
    3.165   47.2354
    3.180   49.1311
    3.195   52.6172
    3.210   56.2823
    3.225   58.7256
    3.240   63.6756
    3.255   68.7836
    3.270   70.9215
    3.285   77.2512
    3.300   82.0748
    3.315   88.2465
    3.330   94.2285
    3.345  100.7267
    3.360  108.1517
    3.375  116.8404
    3.390  123.4966
    3.405  132.7330
    3.420  141.5482
    3.435  143.3913
    3.450  145.5924
    3.465  142.4013
    3.480  134.1970
    3.495  125.6030
    3.510  113.8810
    3.525  101.7062
    3.540   87.0037
    3.555   75.2080
    3.570   67.9094
    3.585   60.1474
    3.600   53.8599
    3.615   48.6783
    3.630   45.0132
    3.645   42.4855
    3.660   42.4645
    3.675   40.9268
    3.690   39.8420
    3.705   39.5471
    3.720   39.9789
    3.735   39.5366
    3.750   40.2001
    3.765   40.5371
    3.780   40.9268
    3.795   41.2744
    3.810   41.4218
    3.825   42.8015
    3.840   43.8125
    3.855   44.9184
    3.870   47.0985
    3.885   47.4776
    3.900   48.4887
    3.915   49.9947
    3.930   51.1954
    3.945   53.0700
    3.960   53.5124
    3.975   54.3339
    3.990   55.3133
    4.005   56.6087
    4.020   55.6819
    4.035   56.3139
    4.050   57.0616
    4.065   56.2191
    4.080   55.7135
    4.095   55.2291
    4.110   55.1975
    4.125   54.2812
    4.140   52.9331
    4.155   51.8273
    4.170   51.0585
    4.185   48.9416
    4.200   47.6988
    4.215   45.6030
    4.230   43.7388
    4.245   41.6008
    4.260   39.7999
    4.275   36.6825
    4.290   35.5029
    4.305   33.3333
    4.320   32.0590
    4.335   29.4576
    4.350   27.7199
    4.365   25.9716
    4.380   24.6656
    4.395   23.0858
    4.410   21.8747
    4.425   20.6530
    4.440   18.8520
    4.455   18.2728
    4.470   17.3776
    4.485   16.3244
    4.500   15.5240
    4.515   15.4397
    4.530   14.4918
    4.545   13.5124
    4.560   13.7967
    4.575   13.5334
    4.590   12.5224
    4.605   11.9326
    4.620   12.1854
    4.635   11.9537
    4.650   11.2480
    4.665   10.5003
    4.680   10.7004
    4.695   10.9531
    4.710   10.3318
    4.725   10.5213
    4.740   10.1632
    4.755    9.8684
    4.770   10.0474
    4.785    9.7736
    4.800    9.6682
    4.815    9.3628
    4.830    9.2786
    4.845    9.1101
    4.860    9.2364
    4.875    9.4681
    4.890    9.4997
    4.905    9.3944
    4.920    9.4892
    4.935    8.7730
    4.950    8.7414
    4.965    8.8994
    4.980    8.7836
    4.995    8.5729
    5.010    8.8468
    5.025    8.5624
    5.040    8.7730
    5.055    8.4255
    5.070    8.2570
    5.085    8.2464
    5.100    8.2570
    5.115    8.4571
    5.130    8.6361
    5.145    8.2464
    5.160    8.6467
    5.175    8.1727
    5.190    8.6993
    5.205    8.6467
    5.220    8.7941
    5.235    8.7730
    5.250    8.6572
    5.265    8.3518
    5.280    8.4992
    5.295    8.8784
    5.310    8.5308
    5.325    8.4676
    5.340    8.8046
    5.355    8.6572
    5.370    8.7309
    5.385    8.7520
    5.400    8.8994
    5.415    8.9205
    5.430    8.2780
    5.445    7.9726
    5.460    8.4466
    5.475    8.5097
    5.490    8.4466
    5.505    8.2675
    5.520    8.5203
    5.535    8.0569
    5.550    8.0990
    5.565    8.1622
    5.580    7.8884
    5.595    8.0253
    5.610    8.3834
    5.625    8.0990
    5.640    8.0358
    5.655    7.8462
    5.670    7.9621
    5.685    7.8252
    5.700    7.6040
    5.715    7.6040
    5.730    7.6040
    5.745    7.4776
    5.760    7.8041
    5.775    7.8568
    5.790    7.7725
    5.805    7.5092
    5.820    7.5829
    5.835    7.5724
    5.850    7.2143
    5.865    7.4039
    5.880    7.0985
    5.895    7.0563
    5.910    6.8036
    5.925    7.2775
    5.940    7.2670
    5.955    7.0985
    5.970    6.9616
    5.985    7.1617
    6.000    6.8352
    6.015    6.9721
    6.030    6.4666
    6.045    6.9194
    6.060    6.6245
    6.075    6.6983
    6.090    6.4350
    6.105    6.7404
    6.120    6.6245
    6.135    6.6140
    6.150    6.6877
    6.165    6.8984
    6.180    6.8141
    6.195    6.3086
    6.210    6.7930
    6.225    7.0142
    6.240    6.9300
    6.255    6.5403
    6.270    6.7404
    6.285    6.7404
    6.300    6.5087
    6.315    6.3296
    6.330    6.4034
    6.345    6.4244
    6.360    6.9932
    6.375    6.7615
    6.390    6.3191
    6.405    6.5087
    6.420    6.9194
    6.435    6.8562
    6.450    6.3402
    6.465    6.4350
    6.480    6.6245
    6.495    6.6983
    6.510    6.8457
    6.525    6.9405
    6.540    7.0248
    6.555    6.8878
    6.570    6.8457
    6.585    6.7615
    6.600    6.9932
    6.615    6.8457
    6.630    7.0142
    6.645    7.4144
    6.660    7.4460
    6.675    8.0779
    6.690    8.4571
    6.705    8.0253
    6.720    8.6783
    6.735    9.0890
    6.750    9.3207
    6.765    9.4471
    6.780    9.9526
    6.795   10.8794
    6.810   11.4481
    6.825   12.0274
    6.840   13.3228
    6.855   14.0284
    6.870   14.8289
    6.885   15.7978
    6.900   16.6193
    6.915   17.3460
    6.930   18.1569
    6.945   19.1259
    6.960   18.8099
    6.975   18.0305
    6.990   16.8088
    7.005   15.5661
    7.020   15.3765
    7.035   13.6388
    7.050   12.7120
    7.065   11.4271
    7.080   10.6056
    7.095    9.7630
    7.110    9.1838
    7.125    8.5940
    7.140    8.3623
    7.155    8.1411
    7.170    7.9621
    7.185    7.8357
    7.200    7.8146
    7.215    7.3828
    7.230    7.2986
    7.245    6.8984
    7.260    6.8352
    7.275    6.8668
    7.290    7.0563
    7.305    6.8878
    7.320    6.4560
    7.335    6.3823
    7.350    6.4244
    7.365    6.7720
    7.380    6.5613
    7.395    6.6245
    7.410    6.4350
    7.425    6.5087
    7.440    6.6772
    7.455    6.4771
    7.470    6.6772
    7.485    6.3402
    7.500    6.7193
    7.515    6.5192
    7.530    6.3191
    7.545    6.6245
    7.560    6.4560
    7.575    6.0032
    7.590    6.4982
    7.605    6.2243
    7.620    6.2770
    7.635    6.3718
    7.650    6.4350
    7.665    6.3086
    7.680    6.8984
    7.695    6.4982
    7.710    6.2138
    7.725    6.9194
    7.740    6.9932
    7.755    7.0774
    7.770    7.0563
    7.785    6.9932
    7.800    7.4776
    7.815    7.2249
    7.830    7.0669
    7.845    7.2459
    7.860    7.2880
    7.875    7.1722
    7.890    7.5619
    7.905    7.7409
    7.920    7.2565
    7.935    7.5935
    7.950    7.9305
    7.965    7.6883
    7.980    8.0674
    7.995    7.9200
    8.010    7.6672
    8.025    7.8673
    8.040    8.4887
    8.055    8.3202
    8.070    7.9831
    8.085    8.3412
    8.100    8.4255
    8.115    8.4360
    8.130    8.3834
    8.145    8.4992
    8.160    8.6572
    8.175    8.6045
    8.190    8.5624
    8.205    8.2991
    8.220    8.8468
    8.235    8.6677
    8.250    8.6677
    8.265    8.6572
    8.280    8.7204
    8.295    8.8046
    8.310    8.8468
    8.325    8.6361
    8.340    8.6993
    8.355    8.9837
    8.370    8.9415
    8.385    8.6783
    8.400    8.2359
    8.415    8.7309
    8.430    8.7309
    8.445    8.4887
    8.460    9.1101
    8.475    8.7309
    8.490    8.4360
    8.505    8.2780
    8.520    8.3307
    8.535    8.0779
    8.550    7.8252
    8.565    7.9726
    8.580    8.0569
    8.595    7.8778
    8.610    7.8568
    8.625    7.9200
    8.640    7.3934
    8.655    7.7093
    8.670    7.2986
    8.685    7.4039
    8.700    7.3407
    8.715    7.6461
    8.730    7.1827
    8.745    7.0669
    8.760    6.6456
    8.775    7.0563
    8.790    6.3928
    8.805    6.3191
    8.820    6.3402
    8.835    6.8352
    8.850    6.2981
    8.865    5.9926
    8.880    5.9084
    8.895    6.1190
    8.910    6.0137
    8.925    5.6135
    8.940    5.7083
    8.955    5.9084
    8.970    6.0769
    8.985    5.7399
    9.000    5.4028
    9.015    5.3081
    9.030    5.5503
    9.045    5.9821
    9.060    5.7820
    9.075    5.6029
    9.090    5.4660
    9.105    5.1080
    9.120    5.1395
    9.135    5.4555
    9.150    5.4555
    9.165    5.5503
    9.180    5.4555
    9.195    5.2659
    9.210    5.4976
    9.225    5.2343
    9.240    5.4450
    9.255    5.3081
    9.270    4.9921
    9.285    5.0342
    9.300    5.0974
    9.315    4.9289
    9.330    5.3397
    9.345    5.2554
    9.360    5.0658
    9.375    4.9500
    9.390    5.0237
    9.405    4.7815
    9.420    5.3291
    9.435    5.3923
    9.450    5.0658
    9.465    4.8868
    9.480    5.1817
    9.495    4.5814
    9.510    4.9605
    9.525    5.2133
    9.540    5.0237
    9.555    5.0237
    9.570    5.4555
    9.585    5.4871
    9.600    5.2449
    9.615    5.1711
    9.630    4.9078
    9.645    5.1080
    9.660    5.0553
    9.675    4.8763
    9.690    4.9078
    9.705    4.8447
    9.720    5.1606
    9.735    4.7604
    9.750    4.9816
    9.765    4.9184
    9.780    4.6972
    9.795    4.9289
    9.810    5.0764
    9.825    4.8447
    9.840    4.8341
    9.855    5.1711
    9.870    4.8868
    9.885    4.6656
    9.900    4.4866
    9.915    4.8763
    9.930    5.0237
    9.945    4.6867
    9.960    4.6972
    9.975    4.6445
    9.990    5.1395
   10.005    4.9184
   10.020    5.3291
   10.035    4.9710
   10.050    4.9500
   10.065    4.8763
   10.080    5.1817
   10.095    5.3502
   10.110    4.9816
   10.125    4.9394
   10.140    5.1817
   10.155    5.1817
   10.170    4.8341
   10.185    5.0974
   10.200    5.3502
   10.215    5.4028
   10.230    5.0342
   10.245    4.8552
   10.260    4.6972
   10.275    5.0342
   10.290    5.3186
   10.305    5.2449
   10.320    5.2765
   10.335    5.1395
   10.350    5.4976
   10.365    5.6977
   10.380    5.5187
   10.395    5.3607
   10.410    6.1401
   10.425    5.8978
   10.440    5.6977
   10.455    5.8347
   10.470    5.4766
   10.485    5.3818
   10.500    5.7083
   10.515    5.6240
   10.530    5.6345
   10.545    5.6345
   10.560    5.6451
   10.575    5.4344
   10.590    5.1711
   10.605    5.4028
   10.620    5.7399
   10.635    5.4344
   10.650    5.0237
   10.665    5.2238
   10.680    5.2554
   10.695    5.2343
   10.710    4.7815
   10.725    5.2133
   10.740    5.2765
   10.755    5.3186
   10.770    5.2659
   10.785    5.2659
   10.800    5.4344
   10.815    5.4344
   10.830    5.2975
   10.845    4.9605
   10.860    5.2449
   10.875    5.1185
   10.890    5.2975
   10.905    5.3607
   10.920    5.1185
   10.935    5.1080
   10.950    5.4660
   10.965    5.3502
   10.980    4.8025
   10.995    5.1395
   11.010    5.1711
   11.025    4.9921
   11.040    5.0342
   11.055    5.1185
   11.070    4.9500
   11.085    5.0448
   11.100    5.2027
   11.115    5.3607
   11.130    5.3712
   11.145    5.3502
   11.160    5.0974
   11.175    5.2765
   11.190    5.3186
   11.205    5.2343
   11.220    5.2449
   11.235    5.3607
   11.250    5.2343
   11.265    5.0448
   11.280    4.9394
   11.295    5.0132
   11.310    5.1290
   11.325    5.2133
   11.340    5.0974
   11.355    5.2870
   11.370    5.3291
   11.385    5.2133
   11.400    5.1922
   11.415    5.4450
   11.430    5.0764
   11.445    5.1606
   11.460    4.8236
   11.475    4.9394
   11.490    5.0764
   11.505    4.9078
   11.520    5.0658
   11.535    5.0342
   11.550    4.8763
   11.565    4.9921
   11.580    5.2449
   11.595    5.0132
   11.610    5.0974
   11.625    5.2343
   11.640    5.2449
   11.655    4.9816
   11.670    5.0974
   11.685    5.0342
   11.700    5.3818
   11.715    5.2554
   11.730    5.3291
   11.745    5.2554
   11.760    5.0553
   11.775    5.1080
   11.790    5.1817
   11.805    5.2133
   11.820    5.2765
   11.835    5.1185
   11.850    5.1290
   11.865    5.0974
   11.880    5.2870
   11.895    5.3712
   11.910    5.2975
   11.925    5.3081
   11.940    5.1922
   11.955    4.9816
   11.970    5.0026
   11.985    5.3186
   12.000    5.4660
   12.015    5.2027
   12.030    5.2975
   12.045    5.5714
   12.060    5.6872
   12.075    5.4766
   12.090    5.2659
   12.105    5.1080
   12.120    5.0764
   12.135    5.3818
   12.150    5.6451
   12.165    5.6135
   12.180    5.4239
   12.195    5.5714
   12.210    5.2765
   12.225    5.2765
   12.240    5.2238
   12.255    5.2027
   12.270    5.4660
   12.285    5.2554
   12.300    5.3923
   12.315    5.4134
   12.330    5.5187
   12.345    5.3502
   12.360    5.3186
   12.375    5.6345
   12.390    5.4766
   12.405    5.5292
   12.420    5.3818
   12.435    5.6556
   12.450    5.7504
   12.465    5.8557
   12.480    5.7715
   12.495    5.5608
   12.510    5.8768
   12.525    5.5503
   12.540    5.2765
   12.555    5.5608
   12.570    5.5714
   12.585    5.6345
   12.600    5.6977
   12.615    5.4028
   12.630    5.3607
   12.645    5.5082
   12.660    5.3923
   12.675    5.8241
   12.690    5.6872
   12.705    5.3712
   12.720    5.8557
   12.735    6.1295
   12.750    6.0664
   12.765    5.6661
   12.780    5.5082
   12.795    5.4239
   12.810    5.4766
   12.825    5.1185
   12.840    5.4871
   12.855    5.3818
   12.870    5.3291
   12.885    5.3081
   12.900    5.5187
   12.915    5.4555
   12.930    5.3291
   12.945    5.3607
   12.960    5.1185
   12.975    5.5819
   12.990    5.2027
   13.005    5.3291
   13.020    5.5503
   13.035    5.6661
   13.050    5.6767
   13.065    5.3818
   13.080    5.6240
   13.095    5.2133
   13.110    5.5819
   13.125    5.4976
   13.140    5.4976
   13.155    5.5398
   13.170    5.5503
   13.185    5.2449
   13.200    5.4766
   13.215    5.1606
   13.230    5.1395
   13.245    5.3186
   13.260    5.5714
   13.275    5.4344
   13.290    5.3291
   13.305    5.4871
   13.320    5.4660
   13.335    5.4766
   13.350    5.4344
   13.365    5.4555
   13.380    5.1606
   13.395    5.0974
   13.410    5.0237
   13.425    5.2659
   13.440    5.5187
   13.455    5.3712
   13.470    5.1395
   13.485    5.4660
   13.500    5.7188
   13.515    5.3712
   13.530    5.1501
   13.545    4.8447
   13.560    4.8868
   13.575    5.1501
   13.590    5.0658
   13.605    5.2449
   13.620    5.3923
   13.635    5.1711
   13.650    5.1711
   13.665    5.6029
   13.680    5.2975
   13.695    5.6029
   13.710    5.3397
   13.725    5.5082
   13.740    5.1290
   13.755    5.3186
   13.770    5.2659
   13.785    5.2659
   13.800    5.1606
   13.815    5.1395
   13.830    5.5398
   13.845    5.4976
   13.860    5.5082
   13.875    5.4239
   13.890    5.1501
   13.905    5.0026
   13.920    5.1185
   13.935    5.1711
   13.950    4.9078
   13.965    5.0237
   13.980    5.3291
   13.995    5.6556
   14.010    5.5398
   14.025    5.1922
   14.040    5.2554
   14.055    5.1501
   14.070    5.3712
   14.085    5.2765
   14.100    5.2975
   14.115    5.0764
   14.130    4.9710
   14.145    5.3712
   14.160    5.2343
   14.175    5.4028
   14.190    4.9078
   14.205    5.2027
   14.220    5.4134
   14.235    5.1922
   14.250    5.2870
   14.265    5.3502
   14.280    5.1185
   14.295    5.0448
   14.310    5.3923
   14.325    5.2765
   14.340    5.4976
   14.355    5.4871
   14.370    5.4239
   14.385    5.1395
   14.400    5.4134
   14.415    5.4344
   14.430    4.9921
   14.445    4.9710
   14.460    5.2659
   14.475    5.1922
   14.490    5.1606
   14.505    5.0448
   14.520    5.3186
   14.535    5.1922
   14.550    4.8447
   14.565    5.4344
   14.580    5.2343
   14.595    5.0026
   14.610    5.0026
   14.625    5.2765
   14.640    5.1711
   14.655    5.2343
   14.670    5.0764
   14.685    4.9500
   14.700    5.1080
   14.715    4.8868
   14.730    5.2554
   14.745    4.7499
   14.760    4.6867
   14.775    4.7709
   14.790    4.8025
   14.805    5.0342
   14.820    5.0764
   14.835    5.1395
   14.850    4.8763
   14.865    4.9500
   14.880    4.8763
   14.895    5.0658
   14.910    5.0132
   14.925    4.9605
   14.940    4.8763
   14.955    4.7604
   14.970    4.5603
   14.985    5.0132
   15.000    5.1185
   15.015    4.8131
   15.030    4.8131
   15.045    5.0026
   15.060    4.9710
   15.075    5.2765
   15.090    5.1606
   15.105    5.0974
   15.120    5.2343
   15.135    5.0448
   15.150    4.9078
   15.165    4.9816
   15.180    4.8552
   15.195    4.9184
   15.210    4.9394
   15.225    4.9078
   15.240    5.1817
   15.255    5.1606
   15.270    5.2343
   15.285    4.9184
   15.300    4.9289
   15.315    5.2659
   15.330    4.8868
   15.345    4.9078
   15.360    5.2554
   15.375    5.0553
   15.390    4.7077
   15.405    4.5708
   15.420    5.5187
   15.435    5.1711
   15.450    4.9500
   15.465    4.9500
   15.480    5.1080
   15.495    5.0342
   15.510    4.9078
   15.525    5.5082
   15.540    5.3607
   15.555    4.8131
   15.570    5.0026
   15.585    5.5292
   15.600    5.3397
   15.615    5.0132
   15.630    5.1080
   15.645    4.8552
   15.660    4.6867
   15.675    5.2765
   15.690    5.4660
   15.705    4.8763
   15.720    5.1501
   15.735    5.0237
   15.750    5.0869
   15.765    5.0342
   15.780    5.2659
   15.795    5.0448
   15.810    4.9605
   15.825    5.0448
   15.840    5.0658
   15.855    5.1290
   15.870    5.2343
   15.885    5.1711
   15.900    5.0658
   15.915    4.9184
   15.930    4.8341
   15.945    5.0974
   15.960    5.3186
   15.975    5.1606
   15.990    5.0553
   16.005    5.0132
   16.020    5.3923
   16.035    5.4134
   16.050    4.9184
   16.065    5.0026
   16.080    4.9078
   16.095    4.9710
   16.110    5.2027
   16.125    5.1711
   16.140    5.3607
   16.155    4.5814
   16.170    4.9078
   16.185    4.8131
   16.200    4.7393
   16.215    5.1185
   16.230    4.8973
   16.245    5.1185
   16.260    4.8552
   16.275    4.9816
   16.290    5.0342
   16.305    5.0553
   16.320    4.7288
   16.335    4.8236
   16.350    4.9078
   16.365    4.7920
   16.380    4.8131
   16.395    4.6972
   16.410    5.0342
   16.425    4.9289
   16.440    4.9184
   16.455    5.0132
   16.470    5.1501
   16.485    5.2343
   16.500    5.0658
   16.515    4.8868
   16.530    5.0237
   16.545    4.8763
   16.560    4.8657
   16.575    4.8236
   16.590    4.7815
   16.605    4.9394
   16.620    5.0764
   16.635    4.9078
   16.650    4.8763
   16.665    4.8763
   16.680    4.9078
   16.695    5.1501
   16.710    4.5603
   16.725    4.5919
   16.740    4.5814
   16.755    4.9710
   16.770    4.8131
   16.785    4.5814
   16.800    4.7499
   16.815    5.1185
   16.830    4.8447
   16.845    4.6972
   16.860    4.9289
   16.875    4.8447
   16.890    5.0237
   16.905    4.9078
   16.920    4.7077
   16.935    4.7815
   16.950    5.0342
   16.965    4.4866
   16.980    4.9500
   16.995    5.2870
   17.010    4.8657
   17.025    4.3813
   17.040    4.6340
   17.055    4.9078
   17.070    4.8341
   17.085    4.8868
   17.100    4.9078
   17.115    5.0342
   17.130    4.6972
   17.145    4.8763
   17.160    5.0553
   17.175    5.2027
   17.190    4.8868
   17.205    4.9816
   17.220    5.0764
   17.235    4.7920
   17.250    4.8236
   17.265    5.0553
   17.280    5.0869
   17.295    5.1080
   17.310    4.8763
   17.325    4.9394
   17.340    4.8447
   17.355    5.1395
   17.370    4.8552
   17.385    4.6340
   17.400    5.0553
   17.415    5.2343
   17.430    5.1501
   17.445    4.9394
   17.460    5.0658
   17.475    4.8447
   17.490    4.6445
   17.505    4.7709
   17.520    4.9289
   17.535    5.0553
   17.550    4.8763
   17.565    4.7183
   17.580    4.7499
   17.595    4.7077
   17.610    4.4971
   17.625    4.8131
   17.640    5.2343
   17.655    4.6445
   17.670    5.0026
   17.685    4.9078
   17.700    4.7393
   17.715    5.2238
   17.730    5.2554
   17.745    5.1711
   17.760    5.0237
   17.775    5.4555
   17.790    4.8868
   17.805    5.0342
   17.820    4.8552
   17.835    4.5708
   17.850    4.9078
   17.865    5.2343
   17.880    5.0974
   17.895    4.7709
   17.910    4.8973
   17.925    5.0553
   17.940    5.1080
   17.955    5.0764
   17.970    5.3397
   17.985    5.0237
   18.000    4.8025
   18.015    4.6972
   18.030    5.1185
   18.045    5.2343
   18.060    5.3502
   18.075    4.9394
   18.090    4.8973
   18.105    4.9921
   18.120    5.0974
   18.135    4.6551
   18.150    4.9078
   18.165    4.8657
   18.180    4.9184
   18.195    4.6656
   18.210    5.0448
   18.225    5.0658
   18.240    5.0237
   18.255    5.2659
   18.270    4.9710
   18.285    4.8025
   18.300    4.8868
   18.315    5.3607
   18.330    5.0658
   18.345    5.0869
   18.360    4.9710
   18.375    5.1290
   18.390    4.4128
   18.405    5.0132
   18.420    4.9078
   18.435    4.9078
   18.450    5.0658
   18.465    4.9816
   18.480    5.0869
   18.495    4.8131
   18.510    4.9605
   18.525    4.5919
   18.540    4.6024
   18.555    4.7709
   18.570    4.7183
   18.585    4.8973
   18.600    4.9394
   18.615    4.7499
   18.630    4.7920
   18.645    4.9500
   18.660    5.1290
   18.675    5.0448
   18.690    4.6130
   18.705    4.8657
   18.720    4.8131
   18.735    5.0342
   18.750    5.1185
   18.765    4.8657
   18.780    5.0132
   18.795    4.5603
   18.810    4.8341
   18.825    4.9500
   18.840    5.1290
   18.855    4.8552
   18.870    5.0869
   18.885    5.1606
   18.900    4.9394
   18.915    4.9710
   18.930    4.8868
   18.945    4.9816
   18.960    5.2554
   18.975    5.2238
   18.990    5.0237
   19.005    4.7604
   19.020    5.0764
   19.035    4.9605
   19.050    4.7393
   19.065    5.0553
   19.080    5.0342
   19.095    4.7288
   19.110    4.9921
   19.125    5.0237
   19.140    5.0026
   19.155    4.8236
   19.170    4.7499
   19.185    4.8131
   19.200    5.0764
   19.215    5.0448
   19.230    4.7393
   19.245    4.8341
   19.260    4.8973
   19.275    5.1817
   19.290    5.2659
   19.305    4.8657
   19.320    5.1290
   19.335    4.9394
   19.350    4.9605
   19.365    5.1817
   19.380    4.6972
   19.395    5.1290
   19.410    5.2449
   19.425    4.9394
   19.440    5.0658
   19.455    5.0026
   19.470    4.9710
   19.485    5.4660
   19.500    5.3081
   19.515    5.0869
   19.530    5.2027
   19.545    5.3081
   19.560    5.3291
   19.575    5.1080
   19.590    4.9184
   19.605    5.4028
   19.620    5.2343
   19.635    5.2343
   19.650    5.4028
   19.665    5.6451
   19.680    5.4450
   19.695    5.5082
   19.710    5.2659
   19.725    5.0974
   19.740    5.2765
   19.755    5.3186
   19.770    5.1922
   19.785    5.5714
   19.800    5.0869
   19.815    5.6029
   19.830    5.5187
   19.845    5.2554
   19.860    5.2027
   19.875    5.1501
   19.890    5.2133
   19.905    5.1185
   19.920    5.5082
   19.935    5.1817
   19.950    5.6135
   19.965    5.1606
   19.980    5.2975
   19.995    5.0553
   20.010    5.2027
   20.025    5.4134
   20.040    5.5082
   20.055    5.2238
   20.070    5.4976
   20.085    5.3502
   20.100    5.4239
   20.115    5.4976
   20.130    5.6135
   20.145    5.1080
   20.160    5.2027
   20.175    5.3607
   20.190    5.2343
   20.205    5.2554
   20.220    5.2975
   20.235    5.3291
   20.250    5.1817
   20.265    5.0553
   20.280    5.1606
   20.295    5.5924
   20.310    5.7293
   20.325    5.3502
   20.340    5.3712
   20.355    5.3607
   20.370    5.3186
   20.385    5.1501
   20.400    5.2554
   20.415    5.4660
   20.430    5.0553
   20.445    5.2027
   20.460    5.1185
   20.475    5.2975
   20.490    5.2870
   20.505    5.1922
   20.520    5.1817
   20.535    5.2870
   20.550    5.0342
   20.565    4.9921
   20.580    5.5187
   20.595    5.4134
   20.610    5.3081
   20.625    5.2554
   20.640    5.2659
   20.655    5.0026
   20.670    5.1290
   20.685    5.0974
   20.700    5.0342
   20.715    5.5292
   20.730    5.0974
   20.745    5.5292
   20.760    5.0132
   20.775    5.2765
   20.790    5.5187
   20.805    5.3291
   20.820    5.1711
   20.835    5.3923
   20.850    5.3397
   20.865    5.0237
   20.880    5.4028
   20.895    5.1501
   20.910    5.2765
   20.925    4.9710
   20.940    5.1922
   20.955    5.0342
   20.970    5.4766
   20.985    5.5714
   21.000    5.2133
   21.015    5.0132
   21.030    5.0974
   21.045    5.0026
   21.060    5.3186
   21.075    5.3818
   21.090    5.1501
   21.105    5.3502
   21.120    5.5608
   21.135    5.2027
   21.150    5.2975
   21.165    5.2554
   21.180    5.2133
   21.195    5.1395
   21.210    5.0448
   21.225    5.0132
   21.240    5.1817
   21.255    5.2238
   21.270    5.3923
   21.285    5.1817
   21.300    5.1711
   21.315    5.1395
   21.330    4.8973
   21.345    5.2659
   21.360    5.2870
   21.375    4.8868
   21.390    5.0974
   21.405    5.1080
   21.420    5.0026
   21.435    5.0237
   21.450    5.2870
   21.465    4.8868
   21.480    5.1711
   21.495    4.9394
   21.510    5.1080
   21.525    4.7499
   21.540    4.9184
   21.555    5.2554
   21.570    4.9078
   21.585    4.9394
   21.600    5.3186
   21.615    5.3186
   21.630    4.8236
   21.645    5.0764
   21.660    5.1817
   21.675    5.1185
   21.690    5.3818
   21.705    5.2554
   21.720    4.9921
   21.735    5.4134
   21.750    5.2765
   21.765    5.1080
   21.780    4.7709
   21.795    5.0237
   21.810    4.9394
   21.825    4.9816
   21.840    4.9184
   21.855    4.9710
   21.870    5.3923
   21.885    5.5398
   21.900    5.0658
   21.915    5.0974
   21.930    4.8447
   21.945    5.2554
   21.960    5.0974
   21.975    5.1185
   21.990    4.9921
   22.005    5.5924
   22.020    5.5714
   22.035    5.2765
   22.050    5.1606
   22.065    4.9289
   22.080    5.1290
   22.095    5.3291
   22.110    5.0869
   22.125    5.0448
   22.140    4.8341
   22.155    5.3502
   22.170    5.0869
   22.185    4.9921
   22.200    5.1080
   22.215    5.4028
   22.230    5.2238
   22.245    4.8868
   22.260    5.1501
   22.275    4.8868
   22.290    4.8025
   22.305    5.1922
   22.320    4.9184
   22.335    5.2659
   22.350    5.0132
   22.365    4.7288
   22.380    5.1922
   22.395    5.2133
   22.410    5.1711
   22.425    4.7499
   22.440    4.6867
   22.455    4.6867
   22.470    4.9289
   22.485    5.0237
   22.500    4.8341
   22.515    5.0342
   22.530    4.8025
   22.545    5.0132
   22.560    5.0026
   22.575    4.8657
   22.590    5.0553
   22.605    4.9078
   22.620    5.0448
   22.635    5.1711
   22.650    4.9816
   22.665    4.8868
   22.680    4.8447
   22.695    5.1185
   22.710    5.1395
   22.725    5.0342
   22.740    5.2238
   22.755    4.8447
   22.770    5.0764
   22.785    4.6130
   22.800    4.5708
   22.815    4.8552
   22.830    4.9921
   22.845    5.2027
   22.860    4.8973
   22.875    5.2027
   22.890    5.1922
   22.905    4.8341
   22.920    5.0342
   22.935    4.6340
   22.950    4.8552
   22.965    4.6340
   22.980    4.7815
   22.995    4.8131
   23.010    4.9289
   23.025    4.6551
   23.040    4.5498
   23.055    4.8763
   23.070    4.7499
   23.085    4.8973
   23.100    4.5498
   23.115    4.7499
   23.130    4.6551
   23.145    4.8341
   23.160    4.9078
   23.175    4.5814
   23.190    4.7499
   23.205    4.6656
   23.220    4.8236
   23.235    4.6867
   23.250    4.6235
   23.265    5.0026
   23.280    5.2027
   23.295    4.9816
   23.310    4.6445
   23.325    4.4550
   23.340    4.5392
   23.355    4.5708
   23.370    4.8552
   23.385    5.1395
   23.400    4.9921
   23.415    4.6656
   23.430    4.6867
   23.445    5.2027
   23.460    4.9921
   23.475    4.5287
   23.490    4.4550
   23.505    4.7288
   23.520    4.8657
   23.535    4.8341
   23.550    4.6656
   23.565    4.3286
   23.580    4.3075
   23.595    4.3286
   23.610    4.5603
   23.625    4.8657
   23.640    4.7815
   23.655    4.8868
   23.670    4.6024
   23.685    4.7077
   23.700    4.6024
   23.715    4.6340
   23.730    4.8025
   23.745    4.4866
   23.760    4.6445
   23.775    4.8763
   23.790    4.7604
   23.805    4.5287
   23.820    4.4234
   23.835    4.4971
   23.850    4.7183
   23.865    4.7604
   23.880    5.0553
   23.895    4.9605
   23.910    4.6761
   23.925    4.6551
   23.940    4.5287
   23.955    4.6024
   23.970    4.7920
   23.985    4.5498
   24.000    4.2970
   24.015    4.4760
   24.030    4.6972
   24.045    4.5708
   24.060    4.6551
   24.075    4.2759
   24.090    4.8657
   24.105    4.6761
   24.120    4.5814
   24.135    4.7920
   24.150    4.7920
   24.165    4.5919
   24.180    4.6024
   24.195    4.7920
   24.210    4.4234
   24.225    4.7709
   24.240    4.7815
   24.255    4.4339
   24.270    4.2338
   24.285    4.2549
   24.300    4.8131
   24.315    4.7604
   24.330    4.7077
   24.345    4.6761
   24.360    4.3497
   24.375    4.3602
   24.390    4.6445
   24.405    4.6340
   24.420    4.5814
   24.435    4.7499
   24.450    4.6656
   24.465    4.7288
   24.480    5.1185
   24.495    5.0342
   24.510    4.8236
   24.525    4.8025
   24.540    4.7288
   24.555    4.6867
   24.570    4.8447
   24.585    4.7815
   24.600    4.7815
   24.615    4.6656
   24.630    4.5287
   24.645    4.5708
   24.660    4.4866
   24.675    4.5814
   24.690    4.3602
   24.705    4.8131
   24.720    4.5498
   24.735    4.8552
   24.750    4.6235
   24.765    5.1501
   24.780    4.3813
   24.795    5.0553
   24.810    4.8236
   24.825    4.6761
   24.840    4.6445
   24.855    4.6867
   24.870    4.3497
   24.885    4.4444
   24.900    4.5498
   24.915    4.5392
   24.930    4.3391
   24.945    4.4128
   24.960    4.4550
   24.975    4.4760
   24.990    4.4971
   25.005    4.8236
   25.020    4.4866
   25.035    4.4866
   25.050    4.4655
   25.065    4.4760
   25.080    4.4971
   25.095    4.6340
   25.110    4.5076
   25.125    4.2338
   25.140    4.4655
   25.155    4.8763
   25.170    4.6761
   25.185    4.6130
   25.200    4.3286
   25.215    4.5287
   25.230    4.3181
   25.245    4.4339
   25.260    4.4971
   25.275    4.2759
   25.290    4.2022
   25.305    4.6656
   25.320    4.3602
   25.335    4.4971
   25.350    4.5603
   25.365    4.4655
   25.380    4.3707
   25.395    4.6024
   25.410    4.6445
   25.425    4.2759
   25.440    4.2654
   25.455    4.2127
   25.470    4.0126
   25.485    4.2127
   25.500    4.3707
   25.515    4.2127
   25.530    4.1706
   25.545    4.3707
   25.560    4.3075
   25.575    4.3918
   25.590    4.1917
   25.605    4.6130
   25.620    4.2233
   25.635    4.1706
   25.650    4.3286
   25.665    4.1390
   25.680    4.3918
   25.695    4.1496
   25.710    4.3602
   25.725    4.5814
   25.740    3.9810
   25.755    4.1390
   25.770    4.1074
   25.785    4.3707
   25.800    4.4655
   25.815    4.1180
   25.830    4.0653
   25.845    3.9389
   25.860    3.9073
   25.875    4.0337
   25.890    4.2127
   25.905    4.0126
   25.920    4.0758
   25.935    4.1390
   25.950    4.1496
   25.965    3.8652
   25.980    3.9073
   25.995    4.0969
   26.010    4.3602
   26.025    4.5287
   26.040    3.9600
   26.055    4.0337
   26.070    4.0758
   26.085    3.9600
   26.100    4.0758
   26.115    4.0021
   26.130    4.0442
   26.145    4.1180
   26.160    4.3497
   26.175    4.2759
   26.190    4.0653
   26.205    3.9284
   26.220    4.2233
   26.235    4.0442
   26.250    4.3602
   26.265    4.3813
   26.280    4.1180
   26.295    4.2338
   26.310    4.4550
   26.325    4.2759
   26.340    4.1390
   26.355    4.3075
   26.370    3.9494
   26.385    4.2970
   26.400    3.9810
   26.415    4.1074
   26.430    4.3075
   26.445    3.9494
   26.460    4.0969
   26.475    4.0969
   26.490    4.1285
   26.505    4.1074
   26.520    3.9179
   26.535    4.1180
   26.550    4.0653
   26.565    4.1285
   26.580    4.2865
   26.595    4.2233
   26.610    3.8547
   26.625    4.2233
   26.640    4.2654
   26.655    4.0442
   26.670    4.1180
   26.685    4.1180
   26.700    4.3181
   26.715    4.1917
   26.730    4.0864
   26.745    3.8652
   26.760    4.3497
   26.775    4.1074
   26.790    3.8336
   26.805    4.3602
   26.820    4.0337
   26.835    4.0653
   26.850    4.0653
   26.865    3.8652
   26.880    3.9810
   26.895    3.8968
   26.910    4.3602
   26.925    4.2127
   26.940    3.9179
   26.955    3.8757
   26.970    3.9810
   26.985    4.1074
   27.000    4.0126
   27.015    3.9810
   27.030    4.3391
   27.045    4.2865
   27.060    3.9494
   27.075    3.8441
   27.090    4.2127
   27.105    4.0548
   27.120    3.9916
   27.135    3.9284
   27.150    4.1496
   27.165    4.2127
   27.180    4.1706
   27.195    3.9705
   27.210    3.9494
   27.225    4.0969
   27.240    4.1285
   27.255    3.7809
   27.270    3.8757
   27.285    3.8968
   27.300    4.0232
   27.315    3.9705
   27.330    3.8441
   27.345    3.8652
   27.360    3.6862
   27.375    3.6230
   27.390    3.6230
   27.405    4.0232
   27.420    3.8441
   27.435    3.8441
   27.450    3.9389
   27.465    4.0548
   27.480    3.8020
   27.495    4.0864
   27.510    3.9179
   27.525    3.8968
   27.540    4.0337
   27.555    3.9600
   27.570    4.0548
   27.585    3.9494
   27.600    3.6967
   27.615    3.7493
   27.630    4.1496
   27.645    3.9916
   27.660    3.7809
   27.675    3.6335
   27.690    3.8547
   27.705    4.1074
   27.720    3.8863
   27.735    3.7809
   27.750    3.8020
   27.765    3.7809
   27.780    3.8863
   27.795    3.6651
   27.810    3.5914
   27.825    4.0021
   27.840    4.2338
   27.855    3.8652
   27.870    3.8863
   27.885    3.8441
   27.900    4.0126
   27.915    4.2549
   27.930    4.2127
   27.945    4.1496
   27.960    3.9179
   27.975    4.2654
   27.990    4.0969
   28.005    4.0653
   28.020    4.0232
   28.035    4.2233
   28.050    4.2970
   28.065    4.2338
   28.080    3.9916
   28.095    4.1285
   28.110    4.4444
   28.125    4.4339
   28.140    4.4023
   28.155    4.1390
   28.170    3.9810
   28.185    3.9916
   28.200    4.0232
   28.215    3.9916
   28.230    3.9179
   28.245    3.9600
   28.260    4.0337
   28.275    3.9916
   28.290    4.2654
   28.305    4.1180
   28.320    4.1917
   28.335    3.9916
   28.350    4.2443
   28.365    4.3707
   28.380    4.1706
   28.395    4.3497
   28.410    3.8231
   28.425    3.8757
   28.440    4.1390
   28.455    4.2865
   28.470    4.1917
   28.485    3.9179
   28.500    3.9494
   28.515    4.0864
   28.530    3.8547
   28.545    3.8231
   28.560    3.7915
   28.575    3.8547
   28.590    4.1074
   28.605    4.1601
   28.620    3.8125
   28.635    3.8863
   28.650    3.7493
   28.665    4.0126
   28.680    3.9284
   28.695    3.8231
   28.710    3.8652
   28.725    3.8336
   28.740    4.1390
   28.755    3.7915
   28.770    3.9810
   28.785    3.9179
   28.800    4.2022
   28.815    3.8757
   28.830    4.0232
   28.845    4.1390
   28.860    3.8968
   28.875    3.7177
   28.890    3.9179
   28.905    3.6335
   28.920    3.6335
   28.935    4.0548
   28.950    4.0548
   28.965    3.7599
   28.980    3.9073
   28.995    3.8336
   29.010    3.9073
   29.025    3.8231
   29.040    3.7177
   29.055    3.8547
   29.070    3.7809
   29.085    3.8757
   29.100    3.9810
   29.115    3.9073
   29.130    3.8652
   29.145    3.9389
   29.160    3.9810
   29.175    3.8547
   29.190    4.1285
   29.205    4.0021
   29.220    3.9916
   29.235    3.9916
   29.250    3.7809
   29.265    3.7809
   29.280    3.9705
   29.295    4.0442
   29.310    3.8441
   29.325    3.6756
   29.340    3.9494
   29.355    3.6651
   29.370    3.6862
   29.385    4.0758
   29.400    3.7283
   29.415    3.6967
   29.430    3.7177
   29.445    3.9284
   29.460    3.7599
   29.475    3.8652
   29.490    3.8336
   29.505    3.6546
   29.520    4.0337
   29.535    3.7072
   29.550    3.6335
   29.565    3.6862
   29.580    3.9600
   29.595    3.8020
   29.610    3.8863
   29.625    3.9600
   29.640    3.6019
   29.655    3.5598
   29.670    3.8336
   29.685    3.9284
   29.700    3.9916
   29.715    3.5914
   29.730    3.6546
   29.745    3.7809
   29.760    3.6546
   29.775    4.0442
   29.790    3.8652
   29.805    3.7915
   29.820    3.6335
   29.835    3.9600
   29.850    3.7599
   29.865    3.6230
   29.880    3.7915
   29.895    3.7072
   29.910    3.4439
   29.925    3.7072
   29.940    3.6230
   29.955    3.8757
   29.970    3.7493
   29.985    3.8547
   30.000    3.7915
   30.015    3.7493
   30.030    3.5808
   30.045    3.5598
   30.060    3.7493
   30.075    3.6546
   30.090    3.7177
   30.105    3.5703
   30.120    3.8757
   30.135    3.7072
   30.150    3.6230
   30.165    4.0653
   30.180    3.5176
   30.195    3.6440
   30.210    3.5914
   30.225    3.8757
   30.240    3.9389
   30.255    3.6967
   30.270    3.8652
   30.285    3.7283
   30.300    3.7177
   30.315    3.3807
   30.330    3.5914
   30.345    3.9389
   30.360    3.7177
   30.375    3.7177
   30.390    3.7072
   30.405    3.4439
   30.420    3.8020
   30.435    3.7493
   30.450    3.5914
   30.465    3.4755
   30.480    3.4755
   30.495    3.8020
   30.510    3.6230
   30.525    3.5176
   30.540    3.4650
   30.555    3.6546
   30.570    3.6335
   30.585    3.4334
   30.600    3.7177
   30.615    3.7283
   30.630    3.5703
   30.645    3.7493
   30.660    3.8336
   30.675    3.7599
   30.690    3.4860
   30.705    3.4966
   30.720    3.6651
   30.735    3.7072
   30.750    3.7809
   30.765    3.9073
   30.780    3.7072
   30.795    3.5176
   30.810    3.6124
   30.825    3.4123
   30.840    3.3913
   30.855    3.5387
   30.870    3.7704
   30.885    3.7388
   30.900    3.2859
   30.915    3.6546
   30.930    3.7072
   30.945    3.8020
   30.960    3.4860
   30.975    3.6019
   30.990    3.6124
   31.005    3.6651
   31.020    3.5598
   31.035    3.7809
   31.050    3.6967
   31.065    3.6546
   31.080    3.5914
   31.095    3.5492
   31.110    3.6335
   31.125    3.4544
   31.140    3.8652
   31.155    3.4755
   31.170    3.6862
   31.185    3.5282
   31.200    3.4123
   31.215    3.5914
   31.230    3.4966
   31.245    3.5071
   31.260    3.6862
   31.275    3.8336
   31.290    3.6546
   31.305    3.5598
   31.320    3.3281
   31.335    3.8231
   31.350    3.6019
   31.365    3.4755
   31.380    3.6230
   31.395    3.4439
   31.410    3.5808
   31.425    3.5282
   31.440    3.6230
   31.455    3.4755
   31.470    3.9600
   31.485    3.7177
   31.500    3.2649
   31.515    3.4544
   31.530    3.7072
   31.545    3.4439
   31.560    3.7177
   31.575    3.5703
   31.590    3.5914
   31.605    3.6440
   31.620    3.9810
   31.635    3.8020
   31.650    3.6124
   31.665    3.4650
   31.680    3.4229
   31.695    3.6124
   31.710    3.8441
   31.725    3.7177
   31.740    4.0864
   31.755    3.8336
   31.770    3.6335
   31.785    3.6440
   31.800    3.4018
   31.815    3.4334
   31.830    3.9600
   31.845    3.7072
   31.860    3.8652
   31.875    3.7493
   31.890    3.3281
   31.905    3.5914
   31.920    3.4544
   31.935    3.5071
   31.950    3.4334
   31.965    3.6019
   31.980    3.6862
   31.995    3.3491
   32.010    3.3386
   32.025    3.2754
   32.040    3.3702
   32.055    3.5176
   32.070    3.5598
   32.085    3.5598
   32.100    3.4860
   32.115    3.5176
   32.130    3.3913
   32.145    3.4860
   32.160    3.5176
   32.175    3.5071
   32.190    2.9910
   32.205    3.4755
   32.220    3.5914
   32.235    3.6756
   32.250    3.5176
   32.265    3.5703
   32.280    3.6862
   32.295    3.3807
   32.310    3.4966
   32.325    3.3597
   32.340    3.5282
   32.355    3.5176
   32.370    3.5492
   32.385    3.4229
   32.400    3.6651
   32.415    3.3281
   32.430    3.5176
   32.445    3.7072
   32.460    3.5492
   32.475    3.4439
   32.490    3.4229
   32.505    3.5387
   32.520    3.6440
   32.535    3.5387
   32.550    3.4755
   32.565    3.6440
   32.580    3.4544
   32.595    3.3807
   32.610    3.5914
   32.625    3.9179
   32.640    3.6019
   32.655    3.6967
   32.670    3.7915
   32.685    3.4650
   32.700    3.4755
   32.715    3.4229
   32.730    3.5071
   32.745    3.3281
   32.760    3.4439
   32.775    3.4123
   32.790    3.1596
   32.805    3.2017
   32.820    3.4229
   32.835    3.5598
   32.850    3.6019
   32.865    3.4966
   32.880    3.2859
   32.895    3.4229
   32.910    3.3175
   32.925    3.3807
   32.940    3.3807
   32.955    3.4650
   32.970    3.6019
   32.985    3.3281
   33.000    3.4966
   33.015    3.5492
   33.030    3.8020
   33.045    3.5492
   33.060    3.4229
   33.075    3.4229
   33.090    3.4755
   33.105    3.1596
   33.120    3.6019
   33.135    3.4334
   33.150    3.6546
   33.165    3.5492
   33.180    3.3913
   33.195    3.4966
   33.210    3.4755
   33.225    3.6019
   33.240    3.6019
   33.255    3.5703
   33.270    3.3702
   33.285    3.5492
   33.300    3.4544
   33.315    3.2965
   33.330    3.5387
   33.345    3.6967
   33.360    3.4018
   33.375    3.2754
   33.390    3.3386
   33.405    3.4650
   33.420    3.1385
   33.435    3.3807
   33.450    3.4123
   33.465    3.3281
   33.480    3.2227
   33.495    3.5598
   33.510    3.4439
   33.525    3.5071
   33.540    3.5176
   33.555    3.3702
   33.570    3.6756
   33.585    3.6124
   33.600    3.3597
   33.615    3.2333
   33.630    3.4860
   33.645    3.3281
   33.660    2.9384
   33.675    3.2017
   33.690    3.3386
   33.705    3.2859
   33.720    3.3491
   33.735    3.6124
   33.750    3.4229
   33.765    3.4755
   33.780    3.5703
   33.795    3.5071
   33.810    3.1490
   33.825    3.1069
   33.840    3.4439
   33.855    3.4650
   33.870    3.3807
   33.885    3.4334
   33.900    3.5492
   33.915    3.3175
   33.930    3.2017
   33.945    3.3913
   33.960    3.3597
   33.975    3.4123
   33.990    3.4334
   34.005    3.4860
   34.020    3.5282
   34.035    3.3070
   34.050    3.1280
   34.065    3.2649
   34.080    3.2333
   34.095    3.5387
   34.110    3.2333
   34.125    3.2227
   34.140    3.2859
   34.155    3.5808
   34.170    3.5282
   34.185    3.4544
   34.200    3.3597
   34.215    3.6124
   34.230    3.4860
   34.245    3.1701
   34.260    3.2227
   34.275    3.2122
   34.290    3.1912
   34.305    3.1912
   34.320    3.4123
   34.335    3.4860
   34.350    3.2965
   34.365    3.2543
   34.380    3.6124
   34.395    3.4229
   34.410    3.4755
   34.425    3.3807
   34.440    3.4650
   34.455    3.2438
   34.470    3.1596
   34.485    3.2965
   34.500    3.3175
   34.515    3.4018
   34.530    3.5914
   34.545    3.4966
   34.560    3.2017
   34.575    3.4860
   34.590    3.3913
   34.605    3.3597
   34.620    3.6651
   34.635    3.2122
   34.650    3.2017
   34.665    3.0753
   34.680    3.1174
   34.695    3.3702
   34.710    3.4860
   34.725    3.5808
   34.740    3.3386
   34.755    3.6230
   34.770    3.3386
   34.785    3.2543
   34.800    3.4018
   34.815    3.2017
   34.830    3.4439
   34.845    3.4123
   34.860    3.5282
   34.875    3.3281
   34.890    3.3913
   34.905    3.4966
   34.920    3.2438
   34.935    3.6440
   34.950    3.3597
   34.965    3.5071
   34.980    3.6124
   34.995    3.6862
   35.010    3.6756
   35.025    3.6124
   35.040    3.5282
   35.055    3.4860
   35.070    3.4229
   35.085    3.4650
   35.100    3.3807
   35.115    3.3281
   35.130    3.2965
   35.145    3.6124
   35.160    3.6440
   35.175    3.1174
   35.190    3.2965
   35.205    3.4229
   35.220    3.5492
   35.235    3.2333
   35.250    3.3491
   35.265    3.2965
   35.280    3.3070
   35.295    3.5808
   35.310    3.3913
   35.325    3.4018
   35.340    3.4439
   35.355    3.2438
   35.370    3.2965
   35.385    3.4544
   35.400    3.2543
   35.415    3.5808
   35.430    3.2438
   35.445    3.4334
   35.460    3.5492
   35.475    3.3175
   35.490    3.4544
   35.505    3.5176
   35.520    3.5071
   35.535    3.4544
   35.550    3.2754
   35.565    3.2859
   35.580    3.2965
   35.595    3.1912
   35.610    3.3070
   35.625    3.2649
   35.640    3.2438
   35.655    3.2017
   35.670    3.2754
   35.685    3.4966
   35.700    3.3807
   35.715    3.4966
   35.730    3.3807
   35.745    3.5598
   35.760    3.1701
   35.775    3.5282
   35.790    3.2965
   35.805    3.3491
   35.820    3.3386
   35.835    3.2649
   35.850    3.0121
   35.865    2.9595
   35.880    3.3070
   35.895    3.5703
   35.910    3.1806
   35.925    3.2859
   35.940    3.4650
   35.955    3.2965
   35.970    3.2965
   35.985    3.3175
   36.000    3.3491
   36.015    3.3807
   36.030    3.3702
   36.045    3.5808
   36.060    3.3702
   36.075    3.4650
   36.090    3.3281
   36.105    2.9910
   36.120    3.3281
   36.135    3.2965
   36.150    3.1806
   36.165    2.8541
   36.180    3.1280
   36.195    3.0858
   36.210    3.2122
   36.225    3.4334
   36.240    3.2543
   36.255    3.4229
   36.270    3.3175
   36.285    3.5492
   36.300    3.4229
   36.315    3.2859
   36.330    3.3386
   36.345    3.3491
   36.360    3.4334
   36.375    3.3491
   36.390    3.3281
   36.405    3.3597
   36.420    3.1912
   36.435    3.1385
   36.450    3.2333
   36.465    3.3070
   36.480    3.3386
   36.495    3.2438
   36.510    3.3175
   36.525    3.3281
   36.540    3.2965
   36.555    3.3386
   36.570    3.3597
   36.585    3.2017
   36.600    3.2649
   36.615    3.2543
   36.630    3.2227
   36.645    3.1912
   36.660    3.1701
   36.675    3.2227
   36.690    3.1490
   36.705    3.3175
   36.720    3.2333
   36.735    3.3070
   36.750    3.2227
   36.765    3.1174
   36.780    3.3597
   36.795    3.4439
   36.810    3.5387
   36.825    3.3597
   36.840    3.6967
   36.855    3.6230
   36.870    3.6862
   36.885    3.4018
   36.900    3.4229
   36.915    3.3175
   36.930    3.4018
   36.945    3.5387
   36.960    3.3913
   36.975    3.5071
   36.990    3.2438
   37.005    3.1174
   37.020    3.3597
   37.035    3.1596
   37.050    3.0016
   37.065    3.2333
   37.080    3.1174
   37.095    3.1596
   37.110    3.5071
   37.125    3.2333
   37.140    3.1912
   37.155    3.4860
   37.170    3.2859
   37.185    3.3913
   37.200    3.3913
   37.215    3.5387
   37.230    3.2965
   37.245    3.4018
   37.260    3.3702
   37.275    3.3491
   37.290    2.9279
   37.305    3.2122
   37.320    3.0332
   37.335    3.1069
   37.350    3.0753
   37.365    3.3070
   37.380    3.4966
   37.395    3.3070
   37.410    3.2333
   37.425    3.1069
   37.440    3.2438
   37.455    3.1069
   37.470    3.2438
   37.485    3.2017
   37.500    3.2543
   37.515    2.9910
   37.530    3.2543
   37.545    3.2965
   37.560    3.0542
   37.575    3.1912
   37.590    3.0858
   37.605    2.9700
   37.620    3.4334
   37.635    3.3702
   37.650    3.3070
   37.665    3.3597
   37.680    3.3597
   37.695    3.1701
   37.710    3.3491
   37.725    3.1174
   37.740    3.3491
   37.755    3.3070
   37.770    3.3175
   37.785    3.5808
   37.800    3.6019
   37.815    3.0226
   37.830    3.1280
   37.845    3.3807
   37.860    3.2122
   37.875    2.9805
   37.890    3.4018
   37.905    3.2543
   37.920    3.0121
   37.935    3.1596
   37.950    3.2017
   37.965    3.1069
   37.980    3.0753
   37.995    3.2227
   38.010    2.9910
   38.025    3.5176
   38.040    3.3702
   38.055    3.3281
   38.070    3.5282
   38.085    3.4123
   38.100    3.1701
   38.115    3.1385
   38.130    3.1912
   38.145    3.2543
   38.160    3.4334
   38.175    3.2965
   38.190    3.0332
   38.205    3.0437
   38.220    3.1174
   38.235    3.2965
   38.250    3.2017
   38.265    3.1806
   38.280    3.0964
   38.295    3.0858
   38.310    3.1701
   38.325    3.2227
   38.340    3.0858
   38.355    3.3807
   38.370    3.3702
   38.385    3.3597
   38.400    3.2754
   38.415    3.3597
   38.430    3.4334
   38.445    3.4123
   38.460    3.2859
   38.475    3.0437
   38.490    3.0858
   38.505    3.3281
   38.520    3.4439
   38.535    3.3070
   38.550    3.1174
   38.565    3.0648
   38.580    3.2333
   38.595    3.3913
   38.610    3.3386
   38.625    3.2649
   38.640    3.1806
   38.655    3.1701
   38.670    3.0753
   38.685    3.5598
   38.700    3.2543
   38.715    3.2122
   38.730    3.1174
   38.745    3.3175
   38.760    3.1701
   38.775    3.0648
   38.790    3.1280
   38.805    3.2859
   38.820    3.3913
   38.835    3.4966
   38.850    3.3281
   38.865    3.1174
   38.880    3.0332
   38.895    3.1069
   38.910    3.1069
   38.925    3.2543
   38.940    3.2543
   38.955    3.1806
   38.970    3.1280
   38.985    3.3070
   39.000    3.3175
   39.015    3.3175
   39.030    3.4650
   39.045    3.6124
   39.060    3.3281
   39.075    3.0648
   39.090    3.1069
   39.105    3.1069
   39.120    3.3070
   39.135    3.0332
   39.150    3.1174
   39.165    3.2859
   39.180    3.3281
   39.195    3.0964
   39.210    3.1490
   39.225    3.3807
   39.240    3.2017
   39.255    3.1806
   39.270    3.5071
   39.285    3.4650
   39.300    3.2227
   39.315    3.4123
   39.330    3.2017
   39.345    2.9279
   39.360    3.4544
   39.375    3.5282
   39.390    3.1912
   39.405    3.0542
   39.420    2.9805
   39.435    3.3491
   39.450    3.5071
   39.465    3.1280
   39.480    3.2438
   39.495    3.1701
   39.510    3.1385
   39.525    3.3281
   39.540    3.1069
   39.555    3.1280
   39.570    3.1912
   39.585    3.0648
   39.600    3.2333
   39.615    3.3175
   39.630    3.2017
   39.645    3.1280
   39.660    3.2965
   39.675    3.1806
   39.690    3.1701
   39.705    3.1069
   39.720    3.3807
   39.735    3.1490
   39.750    3.1806
   39.765    3.0226
   39.780    3.1174
   39.795    3.0016
   39.810    3.2122
   39.825    3.4544
   39.840    3.6124
   39.855    3.3491
   39.870    3.1490
   39.885    3.1280
   39.900    3.2543
   39.915    3.4966
   39.930    3.3702
   39.945    3.3175
   39.960    3.2122
   39.975    2.9595
   39.990    3.2017
