    1.500    1.5096
    1.515    1.4394
    1.530    1.5798
    1.545    1.5973
    1.560    1.4745
    1.575    1.8782
    1.590    1.5447
    1.605    1.4569
    1.620    1.3165
    1.635    1.4920
    1.650    1.6851
    1.665    1.5096
    1.680    1.4394
    1.695    1.3516
    1.710    1.6324
    1.725    1.7027
    1.740    1.3867
    1.755    1.3516
    1.770    1.4042
    1.785    1.8957
    1.800    1.5271
    1.815    1.3867
    1.830    1.8957
    1.845    1.5798
    1.860    1.4745
    1.875    1.4920
    1.890    1.4745
    1.905    1.5096
    1.920    1.6675
    1.935    1.6851
    1.950    1.6324
    1.965    1.5447
    1.980    1.6324
    1.995    1.6149
    2.010    1.4745
    2.025    1.8782
    2.040    1.9133
    2.055    1.5096
    2.070    1.4920
    2.085    1.7027
    2.100    1.6500
    2.115    1.7729
    2.130    1.7027
    2.145    1.4394
    2.160    1.4569
    2.175    2.1590
    2.190    1.7202
    2.205    1.5096
    2.220    1.7729
    2.235    1.7729
    2.250    1.7904
    2.265    1.6324
    2.280    1.5973
    2.295    1.6149
    2.310    1.7553
    2.325    1.5622
    2.340    1.5447
    2.355    1.4569
    2.370    1.5798
    2.385    1.6324
    2.400    1.7027
    2.415    1.7729
    2.430    1.6149
    2.445    1.8957
    2.460    1.7202
    2.475    1.7202
    2.490    1.8606
    2.505    1.6675
    2.520    1.7202
    2.535    1.8606
    2.550    1.9484
    2.565    1.7027
    2.580    1.6851
    2.595    1.6149
    2.610    1.5271
    2.625    1.8080
    2.640    1.7202
    2.655    1.7378
    2.670    1.8431
    2.685    1.6675
    2.700    1.5798
    2.715    1.8080
    2.730    1.5798
    2.745    1.4569
    2.760    1.5798
    2.775    1.6324
    2.790    1.6500
    2.805    1.7553
    2.820    1.7729
    2.835    1.6675
    2.850    1.8957
    2.865    1.6851
    2.880    1.6851
    2.895    1.4042
    2.910    1.7378
    2.925    1.4920
    2.940    1.4569
    2.955    1.8080
    2.970    2.0011
    2.985    2.0713
    3.000    1.8606
    3.015    1.7027
    3.030    1.7729
    3.045    1.9133
    3.060    1.7904
    3.075    1.7202
    3.090    1.7378
    3.105    1.7729
    3.120    1.5622
    3.135    1.7729
    3.150    1.9308
    3.165    1.6149
    3.180    1.6500
    3.195    1.8080
    3.210    1.4218
    3.225    1.6675
    3.240    1.8255
    3.255    1.7729
    3.270    1.8782
    3.285    1.8255
    3.300    1.5798
    3.315    1.2463
    3.330    1.7202
    3.345    1.8255
    3.360    1.7729
    3.375    1.8957
    3.390    1.4920
    3.405    1.6675
    3.420    1.8957
    3.435    1.9133
    3.450    1.8080
    3.465    1.6851
    3.480    1.6851
    3.495    1.6675
    3.510    1.9308
    3.525    1.4745
    3.540    1.8606
    3.555    1.8957
    3.570    1.8782
    3.585    1.8431
    3.600    1.7729
    3.615    1.5973
    3.630    1.7027
    3.645    1.7729
    3.660    1.8957
    3.675    1.8255
    3.690    1.8255
    3.705    1.5447
    3.720    1.8255
    3.735    1.7378
    3.750    1.7202
    3.765    1.8957
    3.780    1.5973
    3.795    1.7202
    3.810    1.6149
    3.825    1.7904
    3.840    1.8782
    3.855    1.9659
    3.870    1.8080
    3.885    1.4569
    3.900    1.5798
    3.915    1.6149
    3.930    1.6324
    3.945    1.6675
    3.960    1.9835
    3.975    2.0713
    3.990    1.7027
    4.005    1.8080
    4.020    1.8957
    4.035    1.7904
    4.050    1.7904
    4.065    1.5096
    4.080    1.7202
    4.095    1.8606
    4.110    1.9484
    4.125    1.9659
    4.140    1.9659
    4.155    1.7553
    4.170    1.9308
    4.185    1.9484
    4.200    2.0186
    4.215    1.9659
    4.230    2.0186
    4.245    1.8255
    4.260    1.8782
    4.275    2.1766
    4.290    1.8255
    4.305    1.6149
    4.320    1.6675
    4.335    1.5973
    4.350    1.7378
    4.365    1.7202
    4.380    2.0011
    4.395    1.7027
    4.410    2.0362
    4.425    2.1239
    4.440    1.9835
    4.455    1.7027
    4.470    1.9308
    4.485    1.7553
    4.500    1.7202
    4.515    1.6500
    4.530    1.8782
    4.545    1.6149
    4.560    1.5447
    4.575    1.6149
    4.590    1.9308
    4.605    1.8606
    4.620    1.6149
    4.635    1.7904
    4.650    1.7904
    4.665    1.8606
    4.680    1.9835
    4.695    1.7729
    4.710    1.8431
    4.725    1.8782
    4.740    1.8431
    4.755    1.7553
    4.770    1.8080
    4.785    1.7553
    4.800    1.5973
    4.815    1.8431
    4.830    1.8255
    4.845    1.9133
    4.860    1.9659
    4.875    1.8431
    4.890    1.9308
    4.905    1.6851
    4.920    2.0186
    4.935    2.0186
    4.950    1.7202
    4.965    1.8431
    4.980    1.8782
    4.995    1.6851
    5.010    1.9133
    5.025    1.7904
    5.040    1.8606
    5.055    1.8255
    5.070    1.7729
    5.085    1.7904
    5.100    1.7378
    5.115    1.6500
    5.130    2.0186
    5.145    1.8957
    5.160    1.8782
    5.175    1.7027
    5.190    1.8957
    5.205    1.5096
    5.220    2.0537
    5.235    1.8255
    5.250    1.8782
    5.265    1.9835
    5.280    2.2819
    5.295    1.7378
    5.310    1.7904
    5.325    1.7729
    5.340    1.7202
    5.355    1.9133
    5.370    1.8782
    5.385    2.2117
    5.400    1.9308
    5.415    1.8255
    5.430    1.7904
    5.445    1.8606
    5.460    1.9484
    5.475    1.6500
    5.490    1.8255
    5.505    1.6500
    5.520    1.8255
    5.535    1.7729
    5.550    1.9308
    5.565    1.9133
    5.580    1.8606
    5.595    2.0888
    5.610    1.9133
    5.625    2.0888
    5.640    1.6324
    5.655    1.7202
    5.670    1.7729
    5.685    1.8255
    5.700    1.7904
    5.715    1.8255
    5.730    2.0713
    5.745    1.8782
    5.760    1.6500
    5.775    1.8782
    5.790    1.7904
    5.805    1.8080
    5.820    1.9835
    5.835    2.0011
    5.850    1.9308
    5.865    1.8080
    5.880    1.7553
    5.895    1.8431
    5.910    1.6851
    5.925    2.0011
    5.940    1.9659
    5.955    2.0362
    5.970    2.0011
    5.985    2.0011
    6.000    1.8255
    6.015    1.6500
    6.030    1.7904
    6.045    1.9308
    6.060    1.8255
    6.075    1.8606
    6.090    1.9133
    6.105    1.9308
    6.120    1.8431
    6.135    1.8606
    6.150    1.7027
    6.165    1.7904
    6.180    1.7027
    6.195    1.8431
    6.210    1.8431
    6.225    1.9308
    6.240    1.8782
    6.255    2.0362
    6.270    1.9484
    6.285    1.8080
    6.300    1.6149
    6.315    2.0888
    6.330    1.7027
    6.345    1.5973
    6.360    1.7202
    6.375    2.1590
    6.390    1.8606
    6.405    1.5973
    6.420    1.6675
    6.435    2.1064
    6.450    1.8255
    6.465    1.9308
    6.480    1.8255
    6.495    1.9308
    6.510    1.7553
    6.525    1.8606
    6.540    1.5973
    6.555    1.8431
    6.570    2.0713
    6.585    1.9659
    6.600    1.5622
    6.615    1.8606
    6.630    1.4745
    6.645    1.5447
    6.660    1.8255
    6.675    2.1766
    6.690    1.7553
    6.705    1.7378
    6.720    1.8782
    6.735    1.9835
    6.750    1.9308
    6.765    1.7027
    6.780    1.8606
    6.795    1.8782
    6.810    2.0011
    6.825    2.1590
    6.840    1.9659
    6.855    1.9659
    6.870    1.8782
    6.885    1.6500
    6.900    1.6851
    6.915    1.8080
    6.930    1.8782
    6.945    1.9835
    6.960    1.5798
    6.975    1.6675
    6.990    1.8255
    7.005    1.7553
    7.020    2.0713
    7.035    2.1064
    7.050    1.9133
    7.065    2.0186
    7.080    1.7378
    7.095    1.9835
    7.110    1.6324
    7.125    1.7202
    7.140    2.0186
    7.155    2.2643
    7.170    1.9133
    7.185    1.9308
    7.200    1.9484
    7.215    2.0362
    7.230    2.0362
    7.245    2.0713
    7.260    1.8957
    7.275    1.8782
    7.290    2.0362
    7.305    1.7904
    7.320    1.7202
    7.335    1.7729
    7.350    1.9484
    7.365    1.7202
    7.380    1.7904
    7.395    1.9308
    7.410    2.0713
    7.425    1.8431
    7.440    1.7202
    7.455    1.9835
    7.470    1.7553
    7.485    1.8255
    7.500    1.6149
    7.515    1.6851
    7.530    1.7904
    7.545    1.8957
    7.560    2.0011
    7.575    1.6500
    7.590    1.7202
    7.605    2.0186
    7.620    2.0186
    7.635    1.9133
    7.650    1.7729
    7.665    2.0537
    7.680    1.8606
    7.695    1.7027
    7.710    1.6324
    7.725    1.7027
    7.740    1.8782
    7.755    1.7729
    7.770    2.2292
    7.785    2.0011
    7.800    1.5622
    7.815    1.7378
    7.830    1.7553
    7.845    1.6851
    7.860    1.9484
    7.875    2.1415
    7.890    1.9484
    7.905    1.8957
    7.920    1.7729
    7.935    1.7202
    7.950    1.8957
    7.965    1.9133
    7.980    1.7202
    7.995    1.9659
    8.010    1.7553
    8.025    1.3867
    8.040    1.7378
    8.055    2.0011
    8.070    2.0537
    8.085    2.0011
    8.100    1.8080
    8.115    1.7027
    8.130    1.7553
    8.145    1.9308
    8.160    1.9133
    8.175    1.9835
    8.190    1.8255
    8.205    1.8431
    8.220    1.8431
    8.235    1.5622
    8.250    1.8782
    8.265    1.5973
    8.280    1.8606
    8.295    2.0362
    8.310    1.8957
    8.325    1.8431
    8.340    1.9659
    8.355    1.9484
    8.370    2.0186
    8.385    1.9133
    8.400    1.5973
    8.415    1.7027
    8.430    1.8431
    8.445    1.8606
    8.460    1.8957
    8.475    1.7729
    8.490    1.8255
    8.505    1.7202
    8.520    1.8255
    8.535    2.1415
    8.550    1.8606
    8.565    1.6324
    8.580    1.9484
    8.595    1.9835
    8.610    1.7553
    8.625    2.0011
    8.640    1.6851
    8.655    2.0362
    8.670    1.5973
    8.685    1.6675
    8.700    1.9835
    8.715    1.8255
    8.730    1.6675
    8.745    1.7553
    8.760    1.8606
    8.775    1.7904
    8.790    2.0537
    8.805    1.8080
    8.820    1.6675
    8.835    1.8255
    8.850    1.7027
    8.865    1.7027
    8.880    1.8431
    8.895    1.9659
    8.910    1.8606
    8.925    1.4920
    8.940    1.6500
    8.955    1.6500
    8.970    1.8431
    8.985    1.9308
    9.000    1.8080
    9.015    1.7904
    9.030    1.9659
    9.045    2.1415
    9.060    1.9484
    9.075    1.8782
    9.090    1.6851
    9.105    1.6324
    9.120    1.8080
    9.135    1.7202
    9.150    1.8957
    9.165    1.7378
    9.180    1.7378
    9.195    1.7202
    9.210    1.6149
    9.225    1.4920
    9.240    1.6675
    9.255    1.8080
    9.270    1.9659
    9.285    2.2292
    9.300    1.7553
    9.315    1.7729
    9.330    1.8080
    9.345    1.7553
    9.360    2.0362
    9.375    1.8080
    9.390    1.6324
    9.405    1.8255
    9.420    2.0011
    9.435    2.0186
    9.450    1.8431
    9.465    1.8255
    9.480    1.7027
    9.495    1.7904
    9.510    1.5096
    9.525    1.8080
    9.540    1.7202
    9.555    1.6675
    9.570    1.7729
    9.585    1.7027
    9.600    1.7553
    9.615    1.7027
    9.630    1.6675
    9.645    1.7904
    9.660    1.5798
    9.675    1.7202
    9.690    1.9659
    9.705    2.1239
    9.720    1.7378
    9.735    1.7202
    9.750    1.7904
    9.765    1.9133
    9.780    1.8080
    9.795    1.7378
    9.810    1.6324
    9.825    1.7027
    9.840    1.7027
    9.855    1.6149
    9.870    1.8782
    9.885    1.8782
    9.900    2.0011
    9.915    1.8606
    9.930    1.7378
    9.945    1.8255
    9.960    1.7202
    9.975    1.7729
    9.990    1.7202
   10.005    1.5447
   10.020    1.5798
   10.035    1.6675
   10.050    1.7027
   10.065    1.7904
   10.080    1.7904
   10.095    1.7553
   10.110    1.7729
   10.125    1.8431
   10.140    1.7904
   10.155    1.6851
   10.170    1.8431
   10.185    1.7904
   10.200    1.7027
   10.215    1.9835
   10.230    1.9308
   10.245    1.8782
   10.260    1.8957
   10.275    1.7202
   10.290    1.6500
   10.305    1.6500
   10.320    1.8080
   10.335    1.9835
   10.350    1.8255
   10.365    1.7202
   10.380    1.7729
   10.395    1.5622
   10.410    1.8782
   10.425    1.8255
   10.440    1.5447
   10.455    1.8431
   10.470    2.0011
   10.485    1.7378
   10.500    1.8606
   10.515    1.7027
   10.530    1.8255
   10.545    2.1064
   10.560    1.5271
   10.575    1.6675
   10.590    1.7378
   10.605    1.9659
   10.620    1.8080
   10.635    2.0011
   10.650    1.5271
   10.665    1.7729
   10.680    1.8782
   10.695    1.6851
   10.710    1.6851
   10.725    1.9133
   10.740    1.6149
   10.755    1.6324
   10.770    1.6500
   10.785    1.6675
   10.800    1.6149
   10.815    1.5798
   10.830    1.7904
   10.845    1.7378
   10.860    1.5622
   10.875    1.6500
   10.890    1.8255
   10.905    1.9835
   10.920    1.7027
   10.935    1.5798
   10.950    1.6149
   10.965    1.8255
   10.980    1.8255
   10.995    1.7202
   11.010    1.6324
   11.025    1.5096
   11.040    1.7378
   11.055    1.8255
   11.070    1.5798
   11.085    1.9308
   11.100    2.0011
   11.115    1.7904
   11.130    1.7553
   11.145    1.5622
   11.160    1.7027
   11.175    1.7378
   11.190    1.9835
   11.205    1.6851
   11.220    1.6149
   11.235    1.7904
   11.250    1.8431
   11.265    1.6324
   11.280    1.7378
   11.295    1.8080
   11.310    1.7729
   11.325    1.8080
   11.340    1.6324
   11.355    1.8255
   11.370    1.8431
   11.385    1.8431
   11.400    1.7027
   11.415    2.0011
   11.430    1.6675
   11.445    1.9659
   11.460    1.8606
   11.475    1.7729
   11.490    1.6675
   11.505    1.7378
   11.520    1.5798
   11.535    1.7553
   11.550    1.7904
   11.565    1.9133
   11.580    1.7904
   11.595    1.7904
   11.610    1.6324
   11.625    1.8255
   11.640    1.5973
   11.655    1.6500
   11.670    1.6675
   11.685    1.5271
   11.700    1.5271
   11.715    1.7553
   11.730    1.9308
   11.745    1.7378
   11.760    1.8606
   11.775    1.6324
   11.790    1.7202
   11.805    1.5622
   11.820    1.8431
   11.835    1.7553
   11.850    1.5622
   11.865    2.0537
   11.880    1.8080
   11.895    1.6149
   11.910    1.6500
   11.925    1.8080
   11.940    1.5973
   11.955    1.4394
   11.970    1.6500
   11.985    1.5271
   12.000    1.6500
   12.015    1.5271
   12.030    1.5096
   12.045    1.6675
   12.060    1.8606
   12.075    1.7729
   12.090    1.7553
   12.105    1.5622
   12.120    1.8080
   12.135    1.8080
   12.150    1.6675
   12.165    1.6500
   12.180    1.7553
   12.195    1.6324
   12.210    1.6851
   12.225    1.6500
   12.240    1.5096
   12.255    1.5447
   12.270    1.7202
   12.285    1.5447
   12.300    1.6324
   12.315    1.7202
   12.330    1.7553
   12.345    2.0888
   12.360    1.9133
   12.375    1.7553
   12.390    1.5447
   12.405    1.7553
   12.420    1.6324
   12.435    1.7027
   12.450    1.5271
   12.465    1.5798
   12.480    1.7027
   12.495    1.7553
   12.510    1.7729
   12.525    1.7378
   12.540    1.6675
   12.555    1.7378
   12.570    1.8255
   12.585    1.7202
   12.600    1.9835
   12.615    1.8957
   12.630    1.4920
   12.645    1.9308
   12.660    1.9308
   12.675    1.7553
   12.690    1.7904
   12.705    1.7378
   12.720    1.8255
   12.735    1.5096
   12.750    1.4394
   12.765    1.4745
   12.780    1.7553
   12.795    1.7553
   12.810    1.7553
   12.825    1.6500
   12.840    1.6675
   12.855    1.8606
   12.870    1.6149
   12.885    1.8431
   12.900    1.7553
   12.915    1.8080
   12.930    1.9133
   12.945    1.9308
   12.960    1.8080
   12.975    1.8080
   12.990    1.8957
   13.005    1.6500
   13.020    1.8255
   13.035    1.4394
   13.050    1.4218
   13.065    1.4569
   13.080    1.4394
   13.095    1.6500
   13.110    1.5622
   13.125    1.5447
   13.140    1.5447
   13.155    1.6324
   13.170    1.9659
   13.185    1.9308
   13.200    1.7378
   13.215    1.5096
   13.230    1.3867
   13.245    1.7553
   13.260    1.6851
   13.275    1.6500
   13.290    1.5973
   13.305    1.7553
   13.320    1.4569
   13.335    1.5271
   13.350    1.5096
   13.365    1.8080
   13.380    1.5096
   13.395    1.5271
   13.410    1.6675
   13.425    1.7202
   13.440    1.5447
   13.455    1.4394
   13.470    1.4042
   13.485    1.4745
   13.500    1.8431
   13.515    1.6500
   13.530    1.6149
   13.545    1.6675
   13.560    1.7553
   13.575    1.6675
   13.590    1.5271
   13.605    1.4920
   13.620    1.5096
   13.635    1.7553
   13.650    1.7904
   13.665    1.8431
   13.680    1.5271
   13.695    1.6675
   13.710    1.5622
   13.725    1.6149
   13.740    1.9308
   13.755    2.0186
   13.770    1.7553
   13.785    1.7027
   13.800    1.7027
   13.815    1.6500
   13.830    1.7378
   13.845    1.7553
   13.860    1.6675
   13.875    1.7202
   13.890    1.5096
   13.905    1.6324
   13.920    1.4218
   13.935    1.5798
   13.950    1.5622
   13.965    1.7202
   13.980    1.5447
   13.995    1.7553
   14.010    1.5622
   14.025    1.6149
   14.040    1.5798
   14.055    1.5447
   14.070    1.8957
   14.085    1.6675
   14.100    1.6675
   14.115    1.7729
   14.130    1.5973
   14.145    1.6149
   14.160    1.8606
   14.175    1.6851
   14.190    1.6675
   14.205    1.5622
   14.220    1.4920
   14.235    1.7904
   14.250    1.8431
   14.265    1.8782
   14.280    1.7378
   14.295    1.6500
   14.310    1.7553
   14.325    1.5447
   14.340    1.7553
   14.355    1.6500
   14.370    1.5622
   14.385    1.5096
   14.400    1.5096
   14.415    1.7553
   14.430    1.7378
   14.445    1.7202
   14.460    1.6500
   14.475    1.6851
   14.490    1.5798
   14.505    1.4569
   14.520    1.5271
   14.535    1.4920
   14.550    1.7729
   14.565    1.6851
   14.580    1.5096
   14.595    1.5622
   14.610    1.7027
   14.625    1.6324
   14.640    1.2463
   14.655    1.7378
   14.670    1.7202
   14.685    1.2112
   14.700    1.3691
   14.715    1.2989
   14.730    1.6324
   14.745    1.6675
   14.760    1.6851
   14.775    1.5798
   14.790    1.5271
   14.805    1.7378
   14.820    1.6675
   14.835    1.4920
   14.850    1.7553
   14.865    1.5271
   14.880    1.7202
   14.895    1.6324
   14.910    1.6675
   14.925    1.6675
   14.940    1.5798
   14.955    1.7378
   14.970    1.7202
   14.985    1.6324
   15.000    1.5798
   15.015    1.6324
   15.030    1.6324
   15.045    1.3340
   15.060    1.5271
   15.075    1.8080
   15.090    1.4569
   15.105    1.6149
   15.120    1.7202
   15.135    1.5622
   15.150    1.5447
   15.165    1.4042
   15.180    1.5096
   15.195    1.5798
   15.210    1.7378
   15.225    1.4920
   15.240    1.4569
   15.255    1.4218
   15.270    1.6149
   15.285    1.7553
   15.300    1.5096
   15.315    1.5096
   15.330    1.4042
   15.345    1.6324
   15.360    1.7027
   15.375    1.6500
   15.390    1.5622
   15.405    1.6675
   15.420    1.4569
   15.435    1.4218
   15.450    1.4569
   15.465    1.3516
   15.480    1.3340
   15.495    1.3516
   15.510    1.4745
   15.525    1.5447
   15.540    1.6149
   15.555    1.6851
   15.570    1.4745
   15.585    1.7553
   15.600    1.6851
   15.615    1.6324
   15.630    1.5622
   15.645    1.4920
   15.660    1.5096
   15.675    1.5447
   15.690    1.7202
   15.705    1.8255
   15.720    1.7027
   15.735    1.4218
   15.750    1.3867
   15.765    1.4218
   15.780    1.4394
   15.795    1.5271
   15.810    1.4569
   15.825    1.6851
   15.840    1.4745
   15.855    1.3867
   15.870    1.8606
   15.885    1.4920
   15.900    1.5973
   15.915    1.4569
   15.930    1.5622
   15.945    1.5096
   15.960    1.3867
   15.975    1.8080
   15.990    1.6675
   16.005    1.7027
   16.020    1.6324
   16.035    1.7027
   16.050    1.8606
   16.065    1.7202
   16.080    1.5271
   16.095    1.6675
   16.110    1.5622
   16.125    1.4920
   16.140    1.4218
   16.155    1.5447
   16.170    1.5447
   16.185    2.0362
   16.200    1.7027
   16.215    1.8431
   16.230    1.8606
   16.245    1.6851
   16.260    1.4920
   16.275    1.5096
   16.290    1.6851
   16.305    1.6675
   16.320    1.6500
   16.335    1.8957
   16.350    1.4745
   16.365    1.4920
   16.380    1.4920
   16.395    1.6500
   16.410    1.8080
   16.425    1.7202
   16.440    1.7027
   16.455    1.7553
   16.470    1.6149
   16.485    1.4394
   16.500    1.5622
   16.515    1.5096
   16.530    1.6851
   16.545    1.6324
   16.560    1.8431
   16.575    1.5622
   16.590    1.6149
   16.605    1.7027
   16.620    1.5096
   16.635    1.6149
   16.650    1.5973
   16.665    1.7202
   16.680    1.4920
   16.695    1.4745
   16.710    1.7904
   16.725    1.7202
   16.740    1.5798
   16.755    1.6324
   16.770    1.4218
   16.785    1.3340
   16.800    1.6675
   16.815    1.8782
   16.830    1.7553
   16.845    1.8080
   16.860    1.5622
   16.875    1.4745
   16.890    1.6149
   16.905    1.2814
   16.920    1.5271
   16.935    1.5798
   16.950    1.7553
   16.965    1.5798
   16.980    1.3340
   16.995    1.4394
   17.010    1.4394
   17.025    1.6324
   17.040    1.7553
   17.055    1.6675
   17.070    1.5271
   17.085    1.4218
   17.100    1.5973
   17.115    1.7904
   17.130    1.6675
   17.145    1.8255
   17.160    1.4569
   17.175    1.5096
   17.190    1.6851
   17.205    1.8782
   17.220    1.5096
   17.235    1.8431
   17.250    1.5798
   17.265    1.5271
   17.280    1.6324
   17.295    1.7904
   17.310    1.4920
   17.325    1.2989
   17.340    1.6149
   17.355    1.5096
   17.370    1.4218
   17.385    1.5271
   17.400    1.5271
   17.415    1.2814
   17.430    1.5447
   17.445    1.5798
   17.460    1.5447
   17.475    1.5973
   17.490    1.5447
   17.505    1.5973
   17.520    1.7027
   17.535    1.6500
   17.550    1.6500
   17.565    1.6324
   17.580    1.4745
   17.595    1.4218
   17.610    1.4920
   17.625    1.6149
   17.640    1.7202
   17.655    1.7729
   17.670    1.3516
   17.685    1.7202
   17.700    1.9308
   17.715    1.9308
   17.730    1.8080
   17.745    1.7378
   17.760    1.4569
   17.775    1.5622
   17.790    1.6500
   17.805    1.4218
   17.820    1.2989
   17.835    1.4920
   17.850    1.6675
   17.865    2.0537
   17.880    1.6149
   17.895    1.7202
   17.910    1.5622
   17.925    1.5622
   17.940    1.7202
   17.955    1.6675
   17.970    1.6675
   17.985    1.6324
   18.000    1.4920
   18.015    1.3340
   18.030    1.7202
   18.045    1.8080
   18.060    1.5622
   18.075    1.6149
   18.090    1.5096
   18.105    1.4920
   18.120    1.5973
   18.135    1.6675
   18.150    1.5973
   18.165    1.7729
   18.180    1.5798
   18.195    1.5622
   18.210    1.7904
   18.225    1.7553
   18.240    1.7027
   18.255    1.3867
   18.270    1.4569
   18.285    1.6149
   18.300    1.3867
   18.315    1.6149
   18.330    1.8431
   18.345    1.7729
   18.360    1.6851
   18.375    1.6324
   18.390    1.7553
   18.405    1.9308
   18.420    1.7553
   18.435    1.6149
   18.450    1.5622
   18.465    1.6675
   18.480    1.5447
   18.495    1.5798
   18.510    1.4394
   18.525    1.4569
   18.540    1.5973
   18.555    1.7553
   18.570    1.8255
   18.585    1.4745
   18.600    1.6324
   18.615    1.6149
   18.630    1.6500
   18.645    1.4042
   18.660    1.6851
   18.675    2.0888
   18.690    1.7729
   18.705    1.7027
   18.720    1.4218
   18.735    1.5447
   18.750    1.8255
   18.765    1.6149
   18.780    1.7378
   18.795    1.9659
   18.810    1.7553
   18.825    1.7729
   18.840    1.5973
   18.855    1.6851
   18.870    1.7202
   18.885    1.6324
   18.900    1.8255
   18.915    1.6500
   18.930    1.8606
   18.945    1.7553
   18.960    1.6500
   18.975    1.5973
   18.990    1.5271
   19.005    1.5622
   19.020    1.5622
   19.035    1.5622
   19.050    1.4745
   19.065    1.6500
   19.080    1.8606
   19.095    1.5973
   19.110    1.6149
   19.125    1.6149
   19.140    1.6851
   19.155    1.7202
   19.170    1.4920
   19.185    1.4569
   19.200    1.7904
   19.215    1.8080
   19.230    1.6149
   19.245    1.7904
   19.260    1.7904
   19.275    1.5973
   19.290    1.5973
   19.305    1.6324
   19.320    1.6500
   19.335    1.8431
   19.350    1.5622
   19.365    1.4920
   19.380    1.6675
   19.395    1.6324
   19.410    1.4569
   19.425    1.6324
   19.440    1.7378
   19.455    1.7553
   19.470    1.5798
   19.485    1.7729
   19.500    1.4920
   19.515    1.4218
   19.530    1.5271
   19.545    1.7027
   19.560    1.6149
   19.575    1.8255
   19.590    1.4920
   19.605    1.6675
   19.620    1.7202
   19.635    1.5271
   19.650    1.7027
   19.665    1.7729
   19.680    1.5798
   19.695    1.6675
   19.710    1.8255
   19.725    1.5096
   19.740    1.4920
   19.755    1.7729
   19.770    1.8957
   19.785    1.7027
   19.800    1.7729
   19.815    1.7904
   19.830    1.6851
   19.845    1.8606
   19.860    1.8782
   19.875    1.8782
   19.890    1.6675
   19.905    1.8080
   19.920    1.6675
   19.935    1.8080
   19.950    1.8080
   19.965    1.9835
   19.980    1.8431
   19.995    1.7027
   20.010    1.5798
   20.025    1.5447
   20.040    1.3691
   20.055    1.4745
   20.070    2.0362
   20.085    2.0362
   20.100    1.6324
   20.115    1.6324
   20.130    1.7904
   20.145    1.5973
   20.160    1.4920
   20.175    1.5271
   20.190    1.5973
   20.205    1.7027
   20.220    1.4569
   20.235    1.4569
   20.250    1.6851
   20.265    1.7729
   20.280    1.7904
   20.295    1.6851
   20.310    1.5622
   20.325    1.7904
   20.340    1.5973
   20.355    1.5973
   20.370    1.6324
   20.385    1.7378
   20.400    1.6675
   20.415    1.7378
   20.430    1.5798
   20.445    1.6324
   20.460    1.6675
   20.475    1.5798
   20.490    1.5798
   20.505    1.6500
   20.520    1.5447
   20.535    1.7729
   20.550    1.8606
   20.565    1.7202
   20.580    1.6675
   20.595    1.4569
   20.610    1.5973
   20.625    1.6851
   20.640    1.9835
   20.655    1.4569
   20.670    1.6149
   20.685    1.8255
   20.700    1.8957
   20.715    1.7553
   20.730    1.3340
   20.745    1.9308
   20.760    1.5271
   20.775    1.5096
   20.790    1.6500
   20.805    1.6149
   20.820    1.9659
   20.835    1.8080
   20.850    1.6324
   20.865    1.7904
   20.880    1.5973
   20.895    1.5798
   20.910    1.6851
   20.925    1.8957
   20.940    1.8255
   20.955    1.5447
   20.970    1.7202
   20.985    1.6675
   21.000    1.6675
   21.015    1.5798
   21.030    1.6851
   21.045    1.8080
   21.060    1.5271
   21.075    1.7202
   21.090    1.7202
   21.105    1.8782
   21.120    1.9484
   21.135    1.8255
   21.150    1.8255
   21.165    1.7553
   21.180    1.6500
   21.195    1.6851
   21.210    1.7904
   21.225    1.8255
   21.240    1.4218
   21.255    1.6851
   21.270    1.6324
   21.285    1.7378
   21.300    1.7553
   21.315    1.7904
   21.330    2.0362
   21.345    1.6149
   21.360    1.5447
   21.375    1.7378
   21.390    1.8782
   21.405    1.9133
   21.420    1.5622
   21.435    1.5973
   21.450    1.6675
   21.465    1.4920
   21.480    1.6149
   21.495    1.5798
   21.510    1.7729
   21.525    2.0362
   21.540    1.6675
   21.555    1.6149
   21.570    1.7729
   21.585    2.0186
   21.600    1.8080
   21.615    1.9133
   21.630    1.8255
   21.645    1.6500
   21.660    1.6851
   21.675    1.8431
   21.690    1.7202
   21.705    1.8431
   21.720    1.7027
   21.735    1.9659
   21.750    1.8255
   21.765    1.5096
   21.780    1.9308
   21.795    1.5798
   21.810    1.6675
   21.825    1.7202
   21.840    1.7202
   21.855    1.8255
   21.870    1.7378
   21.885    1.6675
   21.900    1.5973
   21.915    1.5096
   21.930    1.7904
   21.945    1.8782
   21.960    1.6675
   21.975    1.7027
   21.990    1.9308
   22.005    1.8606
   22.020    1.7553
   22.035    1.7378
   22.050    1.7553
   22.065    1.7729
   22.080    1.6851
   22.095    1.6324
   22.110    1.8606
   22.125    1.6324
   22.140    1.8431
   22.155    1.7378
   22.170    1.6324
   22.185    1.4218
   22.200    1.4042
   22.215    1.6149
   22.230    1.8606
   22.245    1.9308
   22.260    1.5973
   22.275    1.6500
   22.290    1.7729
   22.305    1.8255
   22.320    1.7202
   22.335    1.7729
   22.350    1.7904
   22.365    1.3867
   22.380    1.7729
   22.395    1.5798
   22.410    1.7378
   22.425    1.6324
   22.440    1.6675
   22.455    1.9835
   22.470    1.8080
   22.485    1.5973
   22.500    1.6675
   22.515    1.6149
   22.530    1.3340
   22.545    1.5096
   22.560    1.8606
   22.575    1.9835
   22.590    1.7378
   22.605    1.6675
   22.620    1.5447
   22.635    1.8080
   22.650    1.5973
   22.665    1.7202
   22.680    1.5271
   22.695    1.6851
   22.710    1.6851
   22.725    1.7202
   22.740    1.8431
   22.755    1.7027
   22.770    1.5622
   22.785    1.9133
   22.800    1.8255
   22.815    1.6500
   22.830    1.5973
   22.845    1.6851
   22.860    1.5271
   22.875    1.5622
   22.890    1.8080
   22.905    1.5271
   22.920    1.5271
   22.935    1.7202
   22.950    1.8957
   22.965    1.8606
   22.980    1.4569
   22.995    1.7027
   23.010    1.6851
   23.025    1.6851
   23.040    1.6675
   23.055    1.7378
   23.070    1.6675
   23.085    1.5447
   23.100    1.8606
   23.115    2.0186
   23.130    1.8080
   23.145    1.9835
   23.160    1.8080
   23.175    1.7729
   23.190    1.6675
   23.205    1.5271
   23.220    1.5798
   23.235    1.7904
   23.250    1.7553
   23.265    1.7202
   23.280    1.6675
   23.295    1.7202
   23.310    1.7378
   23.325    1.6500
   23.340    1.5447
   23.355    1.6500
   23.370    1.5271
   23.385    1.6500
   23.400    1.5096
   23.415    1.5447
   23.430    1.4745
   23.445    1.7553
   23.460    1.6500
   23.475    1.6675
   23.490    1.7904
   23.505    1.9484
   23.520    1.5798
   23.535    1.4920
   23.550    1.4569
   23.565    1.7553
   23.580    1.6149
   23.595    1.6851
   23.610    1.9133
   23.625    1.6324
   23.640    1.6500
   23.655    1.8606
   23.670    1.8255
   23.685    1.7378
   23.700    1.6675
   23.715    1.5447
   23.730    2.0537
   23.745    1.5622
   23.760    1.6500
   23.775    1.7027
   23.790    1.4745
   23.805    1.6149
   23.820    1.4394
   23.835    1.7202
   23.850    1.8606
   23.865    1.7027
   23.880    1.6675
   23.895    1.7904
   23.910    1.6324
   23.925    1.9308
   23.940    1.7729
   23.955    1.6149
   23.970    1.6149
   23.985    1.6500
   24.000    1.5798
   24.015    1.8080
   24.030    1.8431
   24.045    1.6149
   24.060    1.7378
   24.075    1.6851
   24.090    1.9484
   24.105    1.8606
   24.120    2.0011
   24.135    1.7202
   24.150    1.5798
   24.165    1.6324
   24.180    1.8080
   24.195    1.5973
   24.210    1.5798
   24.225    1.9133
   24.240    1.9835
   24.255    1.7202
   24.270    1.7378
   24.285    1.7904
   24.300    1.5622
   24.315    1.9133
   24.330    1.8080
   24.345    1.7027
   24.360    1.4745
   24.375    1.3867
   24.390    1.4745
   24.405    1.5271
   24.420    1.7904
   24.435    1.6675
   24.450    1.6149
   24.465    1.5973
   24.480    1.7729
   24.495    1.5447
   24.510    1.4920
   24.525    1.5096
   24.540    1.6500
   24.555    1.7378
   24.570    1.7202
   24.585    1.6324
   24.600    1.4920
   24.615    1.7729
   24.630    1.6500
   24.645    1.5622
   24.660    1.3691
   24.675    2.0011
   24.690    1.8080
   24.705    1.5798
   24.720    1.3867
   24.735    1.7027
   24.750    1.6675
   24.765    1.5973
   24.780    1.7553
   24.795    1.8080
   24.810    1.5798
   24.825    1.5622
   24.840    1.7904
   24.855    1.7378
   24.870    1.6851
   24.885    1.5973
   24.900    1.5973
   24.915    1.6675
   24.930    1.4394
   24.945    1.6851
   24.960    1.5096
   24.975    1.8782
   24.990    1.7729
   25.005    1.7553
   25.020    1.6851
   25.035    1.5622
   25.050    1.7904
   25.065    1.6675
   25.080    1.8255
   25.095    1.6324
   25.110    1.3867
   25.125    1.6149
   25.140    1.7729
   25.155    1.5096
   25.170    1.8431
   25.185    1.6324
   25.200    1.5622
   25.215    1.8080
   25.230    1.5798
   25.245    1.6851
   25.260    1.7553
   25.275    1.6851
   25.290    1.6149
   25.305    1.7729
   25.320    1.5271
   25.335    1.4920
   25.350    1.7027
   25.365    1.5798
   25.380    1.5096
   25.395    1.7553
   25.410    1.7553
   25.425    1.5447
   25.440    1.8957
   25.455    1.7027
   25.470    1.5973
   25.485    1.8431
   25.500    1.7904
   25.515    1.7553
   25.530    1.7202
   25.545    1.4745
   25.560    1.5447
   25.575    1.7027
   25.590    1.8080
   25.605    1.7027
   25.620    1.6324
   25.635    1.6500
   25.650    1.5447
   25.665    1.7378
   25.680    1.8255
   25.695    1.7202
   25.710    1.6149
   25.725    1.4394
   25.740    1.7553
   25.755    1.7904
   25.770    1.6500
   25.785    1.6500
   25.800    1.5271
   25.815    1.5096
   25.830    1.6851
   25.845    1.6500
   25.860    1.7729
   25.875    1.5622
   25.890    1.4394
   25.905    1.4042
   25.920    1.3165
   25.935    1.5447
   25.950    1.3691
   25.965    1.7027
   25.980    1.5447
   25.995    1.4920
   26.010    1.5271
   26.025    1.5271
   26.040    1.6675
   26.055    1.4218
   26.070    1.5447
   26.085    1.5798
   26.100    1.6149
   26.115    1.5096
   26.130    1.5798
   26.145    1.4920
   26.160    1.4745
   26.175    1.6324
   26.190    1.5271
   26.205    1.7027
   26.220    1.6324
   26.235    1.6500
   26.250    1.6149
   26.265    1.7729
   26.280    1.5973
   26.295    1.5271
   26.310    1.3691
   26.325    1.5798
   26.340    1.6851
   26.355    1.4042
   26.370    1.3867
   26.385    1.7904
   26.400    1.5096
   26.415    1.4920
   26.430    1.4394
   26.445    1.5096
   26.460    1.4218
   26.475    1.4394
   26.490    1.3516
   26.505    1.3516
   26.520    1.5447
   26.535    1.4569
   26.550    1.6149
   26.565    1.5447
   26.580    1.5096
   26.595    1.4920
   26.610    1.4920
   26.625    1.4394
   26.640    1.2989
   26.655    1.5622
   26.670    1.5447
   26.685    1.5271
   26.700    1.5622
   26.715    1.7904
   26.730    1.7027
   26.745    1.4042
   26.760    1.3165
   26.775    1.5622
   26.790    1.4569
   26.805    1.4569
   26.820    1.4569
   26.835    1.4394
   26.850    1.4218
   26.865    1.7553
   26.880    1.4745
   26.895    1.5096
   26.910    1.7027
   26.925    1.4745
   26.940    1.4920
   26.955    1.6500
   26.970    1.5096
   26.985    1.3340
   27.000    1.5271
   27.015    1.4394
   27.030    1.6675
   27.045    1.7202
   27.060    1.4218
   27.075    1.4920
   27.090    1.4218
   27.105    1.5096
   27.120    1.5973
   27.135    1.6149
   27.150    1.4042
   27.165    1.4394
   27.180    1.6149
   27.195    1.5973
   27.210    1.5447
   27.225    1.5622
   27.240    1.4394
   27.255    1.5271
   27.270    1.4218
   27.285    1.7202
   27.300    1.5096
   27.315    1.6500
   27.330    1.2463
   27.345    1.2112
   27.360    1.6324
   27.375    1.5447
   27.390    1.5271
   27.405    1.4218
   27.420    1.4394
   27.435    1.3691
   27.450    1.3867
   27.465    1.5271
   27.480    1.4042
   27.495    1.3516
   27.510    1.4394
   27.525    1.6324
   27.540    1.5798
   27.555    1.4042
   27.570    1.3516
   27.585    1.4745
   27.600    1.4218
   27.615    1.4745
   27.630    1.3340
   27.645    1.4042
   27.660    1.4569
   27.675    1.4218
   27.690    1.4218
   27.705    1.2638
   27.720    1.4218
   27.735    1.4394
   27.750    1.4745
   27.765    1.5271
   27.780    1.6675
   27.795    1.5271
   27.810    1.4745
   27.825    1.5447
   27.840    1.5798
   27.855    1.5447
   27.870    1.6324
   27.885    1.6500
   27.900    1.4042
   27.915    1.4569
   27.930    1.3516
   27.945    1.6500
   27.960    1.6149
   27.975    1.5798
   27.990    1.2989
   28.005    1.2989
   28.020    1.6500
   28.035    1.6851
   28.050    1.5447
   28.065    1.4394
   28.080    1.4218
   28.095    1.3691
   28.110    1.2989
   28.125    1.5798
   28.140    1.4394
   28.155    1.3867
   28.170    1.3516
   28.185    1.5096
   28.200    1.2814
   28.215    1.4218
   28.230    1.4569
   28.245    1.5096
   28.260    1.5271
   28.275    1.5798
   28.290    1.3340
   28.305    1.3867
   28.320    1.4218
   28.335    1.2814
   28.350    1.4569
   28.365    1.2112
   28.380    1.4042
   28.395    1.4394
   28.410    1.4745
   28.425    1.6500
   28.440    1.6324
   28.455    1.5447
   28.470    1.3165
   28.485    1.4920
   28.500    1.5622
   28.515    1.2814
   28.530    1.4920
   28.545    1.5798
   28.560    1.6500
   28.575    1.3165
   28.590    1.3691
   28.605    1.5447
   28.620    1.3691
   28.635    1.2287
   28.650    1.2112
   28.665    1.2638
   28.680    1.2989
   28.695    1.3691
   28.710    1.4394
   28.725    1.3340
   28.740    1.3691
   28.755    1.4042
   28.770    1.3340
   28.785    1.2814
   28.800    1.3691
   28.815    1.5271
   28.830    1.5973
   28.845    1.3340
   28.860    1.2814
   28.875    1.4042
   28.890    1.4042
   28.905    1.6500
   28.920    1.4042
   28.935    1.5271
   28.950    1.4745
   28.965    1.3867
   28.980    1.7904
   28.995    1.6851
   29.010    1.3867
   29.025    1.3867
   29.040    1.3691
   29.055    1.4042
   29.070    1.3867
   29.085    1.3516
   29.100    1.2814
   29.115    1.3165
   29.130    1.3516
   29.145    1.3516
   29.160    1.2989
   29.175    1.2989
   29.190    1.2463
   29.205    1.3516
   29.220    1.1936
   29.235    1.3691
   29.250    1.3867
   29.265    1.4218
   29.280    1.5622
   29.295    1.4042
   29.310    1.2112
   29.325    1.1936
   29.340    1.2814
   29.355    1.5447
   29.370    1.2463
   29.385    1.1761
   29.400    1.4042
   29.415    1.4042
   29.430    1.2989
   29.445    1.4042
   29.460    1.4569
   29.475    1.3516
   29.490    1.3691
   29.505    1.2287
   29.520    1.1585
   29.535    1.4394
   29.550    1.3867
   29.565    1.2989
   29.580    1.3691
   29.595    1.6149
   29.610    1.6500
   29.625    1.4745
   29.640    1.4394
   29.655    1.5622
   29.670    1.4745
   29.685    1.3516
   29.700    1.2638
   29.715    1.3691
   29.730    1.3691
   29.745    1.3867
   29.760    1.3516
   29.775    1.3691
   29.790    1.2463
   29.805    1.3691
   29.820    1.4394
   29.835    1.5271
   29.850    1.4745
   29.865    1.2989
   29.880    1.3165
   29.895    1.5271
   29.910    1.3516
   29.925    1.4042
   29.940    1.3340
   29.955    1.2112
   29.970    1.4394
   29.985    1.4394
   30.000    1.2463
   30.015    1.2287
   30.030    1.3340
   30.045    1.3340
   30.060    1.3516
   30.075    1.2112
   30.090    1.2638
   30.105    0.9654
   30.120    1.5622
   30.135    1.4569
   30.150    1.4920
   30.165    1.3340
   30.180    1.4569
   30.195    1.2989
   30.210    1.3691
   30.225    1.3691
   30.240    1.4218
   30.255    1.5096
   30.270    1.2287
   30.285    1.2814
   30.300    1.1936
   30.315    1.0883
   30.330    1.2287
   30.345    1.2463
   30.360    1.2814
   30.375    1.4745
   30.390    1.2638
   30.405    1.2638
   30.420    1.3516
   30.435    1.3867
   30.450    1.2638
   30.465    1.1936
   30.480    1.6500
   30.495    1.4394
   30.510    1.3340
   30.525    1.4745
   30.540    1.2287
   30.555    1.2287
   30.570    1.1936
   30.585    1.2287
   30.600    1.5622
   30.615    1.5271
   30.630    1.3516
   30.645    1.2814
   30.660    1.3165
   30.675    1.1761
   30.690    1.2112
   30.705    1.4394
   30.720    1.5622
   30.735    1.4569
   30.750    1.1936
   30.765    1.3516
   30.780    1.3691
   30.795    1.2814
   30.810    1.3867
   30.825    1.3165
   30.840    1.1585
   30.855    1.2638
   30.870    1.1761
   30.885    1.2638
   30.900    1.3340
   30.915    1.3867
   30.930    1.1058
   30.945    1.0181
   30.960    1.1936
   30.975    1.4569
   30.990    1.4394
   31.005    1.3516
   31.020    1.1761
   31.035    1.0181
   31.050    1.0707
   31.065    1.2287
   31.080    1.0883
   31.095    1.1058
   31.110    1.2638
   31.125    1.1761
   31.140    1.0707
   31.155    1.3165
   31.170    1.2287
   31.185    1.3165
   31.200    1.1585
   31.215    1.1761
   31.230    1.3691
   31.245    1.1936
   31.260    1.3165
   31.275    1.4920
   31.290    1.2463
   31.305    1.1585
   31.320    1.2638
   31.335    1.2463
   31.350    1.1761
   31.365    1.2989
   31.380    1.0356
   31.395    1.2463
   31.410    1.4745
   31.425    1.1410
   31.440    1.1058
   31.455    1.2112
   31.470    1.1234
   31.485    1.2814
   31.500    1.1585
   31.515    1.1410
   31.530    1.4218
   31.545    1.2287
   31.560    1.1936
   31.575    1.3516
   31.590    1.1936
   31.605    1.2814
   31.620    1.1761
   31.635    1.1761
   31.650    0.9303
   31.665    1.1234
   31.680    1.1058
   31.695    1.1761
   31.710    1.3165
   31.725    1.1585
   31.740    1.2287
   31.755    1.1585
   31.770    1.0532
   31.785    1.3340
   31.800    1.0356
   31.815    1.1058
   31.830    1.1585
   31.845    1.2638
   31.860    1.1761
   31.875    1.2112
   31.890    1.0181
   31.905    1.1234
   31.920    1.3165
   31.935    1.0883
   31.950    0.8250
   31.965    1.0181
   31.980    1.3516
   31.995    1.0883
   32.010    1.0707
   32.025    1.0532
   32.040    1.1936
   32.055    1.2814
   32.070    1.1234
   32.085    1.0356
   32.100    1.1234
   32.115    1.3165
   32.130    1.2287
   32.145    1.1058
   32.160    1.2463
   32.175    1.2638
   32.190    1.1936
   32.205    1.2287
   32.220    1.0707
   32.235    1.2814
   32.250    1.2463
   32.265    1.3516
   32.280    1.0181
   32.295    1.0532
   32.310    1.1234
   32.325    1.3165
   32.340    1.1058
   32.355    1.0883
   32.370    1.1585
   32.385    1.2638
   32.400    1.2112
   32.415    1.2463
   32.430    1.1936
   32.445    1.1058
   32.460    1.1761
   32.475    1.1585
   32.490    1.0181
   32.505    1.1410
   32.520    1.0005
   32.535    1.0532
   32.550    1.0181
   32.565    0.9654
   32.580    1.2463
   32.595    1.2638
   32.610    1.2112
   32.625    1.1936
   32.640    1.0707
   32.655    1.1058
   32.670    1.0005
   32.685    0.9303
   32.700    1.1936
   32.715    1.1585
   32.730    1.1410
   32.745    1.1761
   32.760    1.1234
   32.775    1.0005
   32.790    0.7548
   32.805    0.9654
   32.820    1.2112
   32.835    1.1761
   32.850    1.2287
   32.865    1.2112
   32.880    1.0356
   32.895    1.0532
   32.910    1.1761
   32.925    1.1058
   32.940    1.1410
   32.955    1.0181
   32.970    1.2287
   32.985    1.3340
   33.000    1.1410
   33.015    1.1058
   33.030    1.0707
   33.045    1.0181
   33.060    1.0181
   33.075    1.1058
   33.090    1.0883
   33.105    0.9654
   33.120    1.0356
   33.135    1.2814
   33.150    1.0356
   33.165    1.0883
   33.180    0.9830
   33.195    1.0356
   33.210    1.2463
   33.225    1.2638
   33.240    0.8952
   33.255    0.9654
   33.270    1.0181
   33.285    0.9479
   33.300    0.8250
   33.315    0.9479
   33.330    1.1410
   33.345    1.1234
   33.360    0.9830
   33.375    1.0181
   33.390    0.9479
   33.405    1.1234
   33.420    1.0532
   33.435    0.9830
   33.450    0.9128
   33.465    0.9830
   33.480    0.9479
   33.495    1.0005
   33.510    0.8952
   33.525    1.3516
   33.540    1.1234
   33.555    1.0883
   33.570    1.0883
   33.585    1.1936
   33.600    1.0883
   33.615    0.9830
   33.630    1.0707
   33.645    1.0356
   33.660    0.9830
   33.675    0.9303
   33.690    1.0005
   33.705    1.0883
   33.720    1.0883
   33.735    1.0532
   33.750    0.9479
   33.765    1.0356
   33.780    1.0532
   33.795    1.0707
   33.810    0.9830
   33.825    1.0532
   33.840    1.1234
   33.855    1.2112
   33.870    0.9830
   33.885    0.9479
   33.900    0.8601
   33.915    0.9654
   33.930    0.9128
   33.945    0.9654
   33.960    1.0181
   33.975    1.0883
   33.990    1.1058
   34.005    1.0356
   34.020    1.0356
   34.035    0.8250
   34.050    0.9479
   34.065    1.0883
   34.080    0.8777
   34.095    0.8250
   34.110    1.1234
   34.125    1.0883
   34.140    0.9654
   34.155    0.8601
   34.170    1.0532
   34.185    1.0707
   34.200    1.0707
   34.215    1.0005
   34.230    0.9479
   34.245    1.0181
   34.260    1.0532
   34.275    1.0707
   34.290    1.0532
   34.305    0.9654
   34.320    1.0707
   34.335    1.1761
   34.350    1.0532
   34.365    0.9303
   34.380    0.9303
   34.395    0.9654
   34.410    1.0181
   34.425    0.8250
   34.440    0.8777
   34.455    0.9303
   34.470    1.0356
   34.485    1.0532
   34.500    0.8952
   34.515    0.9128
   34.530    0.8952
   34.545    0.9479
   34.560    0.9830
   34.575    0.8952
   34.590    0.9654
   34.605    1.1410
   34.620    1.0707
   34.635    1.0707
   34.650    0.8952
   34.665    0.7899
   34.680    0.8425
   34.695    0.8777
   34.710    1.0707
   34.725    0.9830
   34.740    1.0005
   34.755    0.8952
   34.770    0.9128
   34.785    0.9479
   34.800    0.9479
   34.815    1.0181
   34.830    1.0356
   34.845    1.0005
   34.860    0.9479
   34.875    1.0005
   34.890    0.8777
   34.905    0.9303
   34.920    0.8777
   34.935    0.7372
   34.950    0.8250
   34.965    0.9128
   34.980    1.0181
   34.995    1.1234
   35.010    0.7899
   35.025    0.9303
   35.040    0.8952
   35.055    0.9128
   35.070    1.0356
   35.085    0.7899
   35.100    0.8777
   35.115    0.8952
   35.130    1.1058
   35.145    1.2112
   35.160    1.1058
   35.175    1.0883
   35.190    0.9128
   35.205    0.9303
   35.220    0.8952
   35.235    0.7197
   35.250    0.7723
   35.265    0.8601
   35.280    1.1936
   35.295    0.9303
   35.310    0.8425
   35.325    0.9303
   35.340    0.9654
   35.355    0.8952
   35.370    0.8952
   35.385    0.6846
   35.400    0.8250
   35.415    0.8777
   35.430    0.9303
   35.445    0.8601
   35.460    0.8250
   35.475    0.8250
   35.490    0.7548
   35.505    0.7899
   35.520    0.7548
   35.535    0.8601
   35.550    0.9128
   35.565    0.7197
   35.580    0.9479
   35.595    0.9303
   35.610    0.9303
   35.625    0.9128
   35.640    0.9303
   35.655    0.8425
   35.670    0.9654
   35.685    0.9479
   35.700    0.9654
   35.715    0.8425
   35.730    0.8074
   35.745    0.8250
   35.760    0.8074
   35.775    0.8250
   35.790    0.8250
   35.805    0.9654
   35.820    0.9479
   35.835    1.0005
   35.850    0.6670
   35.865    0.8601
   35.880    0.8601
   35.895    0.7899
   35.910    0.7899
   35.925    0.9654
   35.940    0.8777
   35.955    0.7548
   35.970    0.8952
   35.985    0.7372
   36.000    1.0532
   36.015    0.9654
   36.030    0.6846
   36.045    0.6144
   36.060    0.8074
   36.075    0.8250
   36.090    0.7548
   36.105    0.8425
   36.120    0.7548
   36.135    0.7548
   36.150    0.7723
   36.165    0.9303
   36.180    0.9654
   36.195    0.9830
   36.210    0.8425
   36.225    0.7021
   36.240    0.8425
   36.255    0.8074
   36.270    0.8601
   36.285    0.7372
   36.300    0.7372
   36.315    0.9830
   36.330    0.7899
   36.345    0.8601
   36.360    0.9654
   36.375    0.8601
   36.390    0.6670
   36.405    0.7021
   36.420    0.8074
   36.435    0.6670
   36.450    0.7021
   36.465    0.6319
   36.480    0.6670
   36.495    0.7197
   36.510    0.8074
   36.525    0.7372
   36.540    0.7372
   36.555    0.8425
   36.570    0.8952
   36.585    0.9654
   36.600    0.8074
   36.615    0.7197
   36.630    0.8601
   36.645    0.7723
   36.660    0.5793
   36.675    0.7548
   36.690    0.6846
   36.705    0.7021
   36.720    0.7372
   36.735    0.8250
   36.750    0.7372
   36.765    0.7197
   36.780    0.7197
   36.795    0.7372
   36.810    0.7899
   36.825    0.7723
   36.840    0.7372
   36.855    0.6319
   36.870    0.7723
   36.885    0.8074
   36.900    0.9303
   36.915    0.8952
   36.930    0.7197
   36.945    0.9303
   36.960    0.8601
   36.975    0.8074
   36.990    0.5793
   37.005    0.7021
   37.020    0.8425
   37.035    0.8074
   37.050    0.9479
   37.065    0.7548
   37.080    0.5793
   37.095    0.6144
   37.110    0.7197
   37.125    0.7548
   37.140    0.7899
   37.155    0.5968
   37.170    0.7723
   37.185    0.6670
   37.200    0.7548
   37.215    0.6846
   37.230    0.7372
   37.245    0.5617
   37.260    0.7548
   37.275    0.8250
   37.290    0.8601
   37.305    0.7197
   37.320    0.7372
   37.335    0.9303
   37.350    0.7021
   37.365    0.7723
   37.380    0.7723
   37.395    0.9303
   37.410    0.6495
   37.425    0.6846
   37.440    0.7021
   37.455    0.7372
   37.470    0.6670
   37.485    0.7723
   37.500    0.8074
   37.515    0.7372
   37.530    0.7723
   37.545    0.8074
   37.560    0.8777
   37.575    0.7723
   37.590    0.5793
   37.605    0.6495
   37.620    0.7021
   37.635    0.7548
   37.650    0.7899
   37.665    0.7899
   37.680    0.7021
   37.695    0.7899
   37.710    0.7197
   37.725    0.6846
   37.740    0.5441
   37.755    0.7372
   37.770    0.6670
   37.785    0.6495
   37.800    0.8074
   37.815    0.7197
   37.830    0.6144
   37.845    0.6846
   37.860    0.7899
   37.875    0.5617
   37.890    0.6495
   37.905    0.7899
   37.920    0.7723
   37.935    0.7899
   37.950    0.8250
   37.965    0.7548
   37.980    0.6670
   37.995    0.6495
   38.010    0.5968
   38.025    0.5266
   38.040    0.7548
   38.055    0.6319
   38.070    0.7723
   38.085    0.6670
   38.100    0.6670
   38.115    0.5441
   38.130    0.6319
   38.145    0.7372
   38.160    0.6670
   38.175    0.7548
   38.190    0.6670
   38.205    0.7021
   38.220    0.6670
   38.235    0.8250
   38.250    0.6144
   38.265    0.6846
   38.280    0.6495
   38.295    0.6846
   38.310    0.5968
   38.325    0.6670
   38.340    0.8074
   38.355    0.6670
   38.370    0.6670
   38.385    0.5968
   38.400    0.6144
   38.415    0.5793
   38.430    0.6144
   38.445    0.6846
   38.460    0.6144
   38.475    0.6144
   38.490    0.8074
   38.505    0.6846
   38.520    0.7548
   38.535    0.7548
   38.550    0.6846
   38.565    0.7197
   38.580    0.8074
   38.595    0.7021
   38.610    0.4739
   38.625    0.6670
   38.640    0.6144
   38.655    0.5617
   38.670    0.5793
   38.685    0.7899
   38.700    0.7372
   38.715    0.7372
   38.730    0.7548
   38.745    0.5441
   38.760    0.4739
   38.775    0.8425
   38.790    0.7723
   38.805    0.6846
   38.820    0.6495
   38.835    0.6495
   38.850    0.6144
   38.865    0.6144
   38.880    0.4915
   38.895    0.6319
   38.910    0.7372
   38.925    0.7197
   38.940    0.5793
   38.955    0.7548
   38.970    0.6144
   38.985    0.5793
   39.000    0.8425
   39.015    0.6670
   39.030    0.5266
   39.045    0.6495
   39.060    0.7197
   39.075    0.7548
   39.090    0.7548
   39.105    0.6144
   39.120    0.5266
   39.135    0.6495
   39.150    0.7021
   39.165    0.4564
   39.180    0.6670
   39.195    0.7197
   39.210    0.6846
   39.225    0.5968
   39.240    0.8425
   39.255    0.7372
   39.270    0.7021
   39.285    0.7548
   39.300    0.6144
   39.315    0.4915
   39.330    0.6319
   39.345    0.6846
   39.360    0.6670
   39.375    0.4564
   39.390    0.6319
   39.405    0.6846
   39.420    0.6670
   39.435    0.8425
   39.450    0.8250
   39.465    0.6144
   39.480    0.6144
   39.495    0.8777
   39.510    0.6846
   39.525    0.5793
   39.540    0.6846
   39.555    0.6670
   39.570    0.6495
   39.585    0.5617
   39.600    0.6846
   39.615    0.5968
   39.630    0.5968
   39.645    0.5793
   39.660    0.7197
   39.675    0.5968
   39.690    0.6846
   39.705    0.5617
   39.720    0.5090
   39.735    0.5441
   39.750    0.6144
   39.765    0.5266
   39.780    0.5793
   39.795    0.6144
   39.810    0.6670
   39.825    0.6144
   39.840    0.5793
   39.855    0.6144
   39.870    0.6670
   39.885    0.6846
   39.900    0.7372
   39.915    0.8952
   39.930    0.7899
   39.945    0.7021
   39.960    0.7197
   39.975    0.6670
   39.990    0.6319
   40.005    0.6495
   40.020    0.6319
   40.035    0.4388
   40.050    0.5968
   40.065    0.5968
   40.080    0.6319
   40.095    0.7548
   40.110    0.6144
   40.125    0.6319
   40.140    0.5793
   40.155    0.6495
   40.170    0.4564
   40.185    0.7723
   40.200    0.7723
   40.215    0.6495
   40.230    0.6846
   40.245    0.7197
   40.260    0.6144
   40.275    0.6319
   40.290    0.7372
   40.305    0.5793
   40.320    0.6670
   40.335    0.5968
   40.350    0.6846
   40.365    0.5793
   40.380    0.7548
   40.395    0.5793
   40.410    0.6144
   40.425    0.6319
   40.440    0.6495
   40.455    0.7723
   40.470    0.5617
   40.485    0.5793
   40.500    0.7723
   40.515    0.6144
   40.530    0.5793
   40.545    0.7372
   40.560    0.7021
   40.575    0.7197
   40.590    0.8074
   40.605    0.5793
   40.620    0.6846
   40.635    0.6670
   40.650    0.5617
   40.665    0.5090
   40.680    0.6319
   40.695    0.6846
   40.710    0.5968
   40.725    0.7548
   40.740    0.5617
   40.755    0.5793
   40.770    0.6846
   40.785    0.5968
   40.800    0.6846
   40.815    0.6670
   40.830    0.6846
   40.845    0.6319
   40.860    0.6144
   40.875    0.5090
   40.890    0.5793
   40.905    0.5441
   40.920    0.5968
   40.935    0.7197
   40.950    0.5441
   40.965    0.8250
   40.980    0.5968
   40.995    0.6846
   41.010    0.6670
   41.025    0.5266
   41.040    0.4564
   41.055    0.5090
   41.070    0.5968
   41.085    0.5793
   41.100    0.6670
   41.115    0.5441
   41.130    0.5441
   41.145    0.6319
   41.160    0.6670
   41.175    0.5793
   41.190    0.7899
   41.205    0.7899
   41.220    0.5617
   41.235    0.5968
   41.250    0.6495
   41.265    0.7372
   41.280    0.6144
   41.295    0.6144
   41.310    0.6846
   41.325    0.6144
   41.340    0.6846
   41.355    0.5968
   41.370    0.5968
   41.385    0.6846
   41.400    0.6495
   41.415    0.5793
   41.430    0.4915
   41.445    0.6670
   41.460    0.6495
   41.475    0.5968
   41.490    0.6144
   41.505    0.6144
   41.520    0.6670
   41.535    0.5441
   41.550    0.6495
   41.565    0.6495
   41.580    0.6670
   41.595    0.6319
   41.610    0.7372
   41.625    0.5968
   41.640    0.7372
   41.655    0.6846
   41.670    0.6319
   41.685    0.7021
   41.700    0.6495
   41.715    0.7021
   41.730    0.5090
   41.745    0.5793
   41.760    0.7899
   41.775    0.6319
   41.790    0.5266
   41.805    0.7021
   41.820    0.6144
   41.835    0.6495
   41.850    0.5617
   41.865    0.7021
   41.880    0.6495
   41.895    0.5090
   41.910    0.4564
   41.925    0.6670
   41.940    0.6495
   41.955    0.6144
   41.970    0.5266
   41.985    0.4739
   42.000    0.4739
   42.015    0.4739
   42.030    0.7197
   42.045    0.5793
   42.060    0.5441
   42.075    0.5793
   42.090    0.5441
   42.105    0.5968
   42.120    0.5090
   42.135    0.7372
   42.150    0.5793
   42.165    0.6670
   42.180    0.8601
   42.195    0.4739
   42.210    0.6319
   42.225    0.7021
   42.240    0.6495
   42.255    0.6495
   42.270    0.5266
   42.285    0.6144
   42.300    0.6144
   42.315    0.7372
   42.330    0.6144
   42.345    0.6319
   42.360    0.6495
   42.375    0.6144
   42.390    0.7197
   42.405    0.6495
   42.420    0.5793
   42.435    0.6495
   42.450    0.5266
   42.465    0.5266
   42.480    0.5090
   42.495    0.4213
   42.510    0.5441
   42.525    0.5793
   42.540    0.4388
   42.555    0.5266
   42.570    0.5266
   42.585    0.4915
   42.600    0.6144
   42.615    0.7197
   42.630    0.7021
   42.645    0.6319
   42.660    0.5793
   42.675    0.7197
   42.690    0.6846
   42.705    0.5968
   42.720    0.6846
   42.735    0.6670
   42.750    0.5617
   42.765    0.5441
   42.780    0.4564
   42.795    0.6495
   42.810    0.6144
   42.825    0.4739
   42.840    0.4388
   42.855    0.4739
   42.870    0.5617
   42.885    0.6144
   42.900    0.5617
   42.915    0.6846
   42.930    0.7899
   42.945    0.5090
   42.960    0.5793
   42.975    0.6670
   42.990    0.5617
   43.005    0.5441
   43.020    0.6144
   43.035    0.4915
   43.050    0.6495
   43.065    0.4388
   43.080    0.5266
   43.095    0.5793
   43.110    0.6846
   43.125    0.7021
   43.140    0.5441
   43.155    0.4915
   43.170    0.5441
   43.185    0.6144
   43.200    0.6495
   43.215    0.6144
   43.230    0.6319
   43.245    0.6495
   43.260    0.5793
   43.275    0.5441
   43.290    0.6495
   43.305    0.5968
   43.320    0.5617
   43.335    0.6846
   43.350    0.5266
   43.365    0.6144
   43.380    0.5968
   43.395    0.5968
   43.410    0.7723
   43.425    0.6144
   43.440    0.5968
   43.455    0.6670
   43.470    0.5968
   43.485    0.5968
   43.500    0.5090
   43.515    0.5090
   43.530    0.5266
   43.545    0.6144
   43.560    0.5441
   43.575    0.5793
   43.590    0.5441
   43.605    0.7197
   43.620    0.7548
   43.635    0.5266
   43.650    0.5090
   43.665    0.6495
   43.680    0.6319
   43.695    0.6846
   43.710    0.6144
   43.725    0.5441
   43.740    0.5441
   43.755    0.5793
   43.770    0.7548
   43.785    0.5617
   43.800    0.4564
   43.815    0.4915
   43.830    0.6495
   43.845    0.6846
   43.860    0.7548
   43.875    0.6319
   43.890    0.5266
   43.905    0.5617
   43.920    0.5441
   43.935    0.4739
   43.950    0.6319
   43.965    0.6319
   43.980    0.5968
   43.995    0.6144
   44.010    0.5968
   44.025    0.5441
   44.040    0.7197
   44.055    0.6319
   44.070    0.5441
   44.085    0.6144
   44.100    0.7197
   44.115    0.6495
   44.130    0.5968
   44.145    0.5090
   44.160    0.5090
   44.175    0.5617
   44.190    0.5266
   44.205    0.4388
   44.220    0.4388
   44.235    0.4739
   44.250    0.5968
   44.265    0.6670
   44.280    0.6670
   44.295    0.6670
   44.310    0.4915
   44.325    0.6495
   44.340    0.5266
   44.355    0.6144
   44.370    0.5617
   44.385    0.4915
   44.400    0.5441
   44.415    0.5617
   44.430    0.5441
   44.445    0.6846
   44.460    0.6144
   44.475    0.5968
   44.490    0.5441
   44.505    0.6144
   44.520    0.5617
   44.535    0.4564
   44.550    0.5793
   44.565    0.5090
   44.580    0.5968
   44.595    0.5968
   44.610    0.5968
   44.625    0.6144
   44.640    0.6495
   44.655    0.4915
   44.670    0.6670
   44.685    0.4037
   44.700    0.4739
   44.715    0.6495
   44.730    0.5793
   44.745    0.4213
   44.760    0.6144
   44.775    0.6846
   44.790    0.5441
   44.805    0.6144
   44.820    0.7197
   44.835    0.6144
   44.850    0.6319
   44.865    0.5090
   44.880    0.5968
   44.895    0.5793
   44.910    0.6670
   44.925    0.6495
   44.940    0.6846
   44.955    0.6670
   44.970    0.4739
   44.985    0.4037
   45.000    0.5090
   45.015    0.7372
   45.030    0.6670
   45.045    0.5968
   45.060    0.4037
   45.075    0.5090
   45.090    0.5266
   45.105    0.4739
   45.120    0.6495
   45.135    0.5793
   45.150    0.7548
   45.165    0.8250
   45.180    0.5793
   45.195    0.5793
   45.210    0.4564
   45.225    0.6319
   45.240    0.5793
   45.255    0.5617
   45.270    0.4915
   45.285    0.5793
   45.300    0.4915
   45.315    0.6670
   45.330    0.5266
   45.345    0.6144
   45.360    0.4739
   45.375    0.4915
   45.390    0.5441
   45.405    0.6144
   45.420    0.4915
   45.435    0.3686
   45.450    0.7372
   45.465    0.5090
   45.480    0.6144
   45.495    0.5441
   45.510    0.5441
   45.525    0.5266
   45.540    0.4739
   45.555    0.4739
   45.570    0.4388
   45.585    0.5441
   45.600    0.5441
   45.615    0.5266
   45.630    0.6144
   45.645    0.6670
   45.660    0.5617
   45.675    0.7197
   45.690    0.5793
   45.705    0.5090
   45.720    0.5968
   45.735    0.5968
   45.750    0.5266
   45.765    0.4915
   45.780    0.5266
   45.795    0.5617
   45.810    0.3862
   45.825    0.4213
   45.840    0.5793
   45.855    0.6495
   45.870    0.6670
   45.885    0.5968
   45.900    0.7197
   45.915    0.5090
   45.930    0.4388
   45.945    0.5617
   45.960    0.6670
   45.975    0.4739
   45.990    0.4388
   46.005    0.5441
   46.020    0.5968
   46.035    0.4388
   46.050    0.6495
   46.065    0.6319
   46.080    0.7548
   46.095    0.6495
   46.110    0.5266
   46.125    0.5090
   46.140    0.4388
   46.155    0.5266
   46.170    0.4564
   46.185    0.4213
   46.200    0.5617
   46.215    0.5617
   46.230    0.5617
   46.245    0.4915
   46.260    0.4213
   46.275    0.3862
   46.290    0.3511
   46.305    0.4037
   46.320    0.4564
   46.335    0.4564
   46.350    0.3862
   46.365    0.5090
   46.380    0.4388
   46.395    0.5266
   46.410    0.5441
   46.425    0.4739
   46.440    0.5441
   46.455    0.4564
   46.470    0.5266
   46.485    0.4739
   46.500    0.4388
   46.515    0.3335
   46.530    0.6144
   46.545    0.5090
   46.560    0.5090
   46.575    0.4915
   46.590    0.5266
   46.605    0.6319
   46.620    0.5968
   46.635    0.5793
   46.650    0.4564
   46.665    0.5090
   46.680    0.6319
   46.695    0.7197
   46.710    0.5617
   46.725    0.4915
   46.740    0.4037
   46.755    0.5617
   46.770    0.4037
   46.785    0.4739
   46.800    0.4915
   46.815    0.5441
   46.830    0.4915
   46.845    0.4915
   46.860    0.5793
   46.875    0.4739
   46.890    0.4213
   46.905    0.6846
   46.920    0.5793
   46.935    0.4564
   46.950    0.4388
   46.965    0.4739
   46.980    0.5266
   46.995    0.5617
   47.010    0.6670
   47.025    0.5090
   47.040    0.5090
   47.055    0.5266
   47.070    0.5617
   47.085    0.4388
   47.100    0.5441
   47.115    0.6144
   47.130    0.5090
   47.145    0.5968
   47.160    0.7021
   47.175    0.7548
   47.190    0.5090
   47.205    0.4213
   47.220    0.5090
   47.235    0.4739
   47.250    0.3862
   47.265    0.5090
   47.280    0.4037
   47.295    0.6319
   47.310    0.5617
   47.325    0.7723
   47.340    0.6846
   47.355    0.5968
   47.370    0.5266
   47.385    0.4739
   47.400    0.4213
   47.415    0.6144
   47.430    0.5793
   47.445    0.4388
   47.460    0.4739
   47.475    0.4739
   47.490    0.5793
   47.505    0.5090
   47.520    0.4388
   47.535    0.4388
   47.550    0.5617
   47.565    0.4739
   47.580    0.4564
   47.595    0.4388
   47.610    0.5793
   47.625    0.5617
   47.640    0.5617
   47.655    0.5793
   47.670    0.5090
   47.685    0.5441
   47.700    0.4915
   47.715    0.5090
   47.730    0.6670
   47.745    0.5266
   47.760    0.3862
   47.775    0.5617
   47.790    0.7197
   47.805    0.4739
   47.820    0.4739
   47.835    0.3686
   47.850    0.5441
   47.865    0.6144
   47.880    0.5266
   47.895    0.5090
   47.910    0.4213
   47.925    0.4388
   47.940    0.4739
   47.955    0.4388
   47.970    0.4213
   47.985    0.3862
   48.000    0.4915
   48.015    0.6319
   48.030    0.5617
   48.045    0.5266
   48.060    0.6144
   48.075    0.5090
   48.090    0.4915
   48.105    0.4564
   48.120    0.4915
   48.135    0.3686
   48.150    0.5617
   48.165    0.4915
   48.180    0.5617
   48.195    0.4915
   48.210    0.3686
   48.225    0.4388
   48.240    0.5793
   48.255    0.5968
   48.270    0.5793
   48.285    0.4915
   48.300    0.4739
   48.315    0.3862
   48.330    0.3511
   48.345    0.5441
   48.360    0.3160
   48.375    0.4915
   48.390    0.5793
   48.405    0.6495
   48.420    0.5793
   48.435    0.5793
   48.450    0.5266
   48.465    0.5793
   48.480    0.4739
   48.495    0.4037
   48.510    0.4564
   48.525    0.4739
   48.540    0.4388
   48.555    0.4915
   48.570    0.4564
   48.585    0.5968
   48.600    0.6495
   48.615    0.4915
   48.630    0.4037
   48.645    0.4388
   48.660    0.4213
   48.675    0.6495
   48.690    0.6144
   48.705    0.5090
   48.720    0.4915
   48.735    0.4388
   48.750    0.5441
   48.765    0.5441
   48.780    0.5968
   48.795    0.4388
   48.810    0.4915
   48.825    0.4739
   48.840    0.6144
   48.855    0.4915
   48.870    0.5968
   48.885    0.4564
   48.900    0.4037
   48.915    0.4564
   48.930    0.4739
   48.945    0.5090
   48.960    0.4213
   48.975    0.7197
   48.990    0.6144
   49.005    0.4739
   49.020    0.4388
   49.035    0.5617
   49.050    0.5266
   49.065    0.4388
   49.080    0.4037
   49.095    0.6319
   49.110    0.5090
   49.125    0.4564
   49.140    0.4388
   49.155    0.5617
   49.170    0.3862
   49.185    0.5090
   49.200    0.5793
   49.215    0.5090
   49.230    0.4037
   49.245    0.5266
   49.260    0.5968
   49.275    0.5090
   49.290    0.5617
   49.305    0.4739
   49.320    0.4388
   49.335    0.5793
   49.350    0.4213
   49.365    0.4915
   49.380    0.5090
   49.395    0.4739
   49.410    0.4915
   49.425    0.4213
   49.440    0.5090
   49.455    0.5968
   49.470    0.4037
   49.485    0.3686
   49.500    0.4915
   49.515    0.3335
   49.530    0.3511
   49.545    0.4388
   49.560    0.3335
   49.575    0.2984
   49.590    0.4915
   49.605    0.3862
   49.620    0.4037
   49.635    0.4388
   49.650    0.5441
   49.665    0.5968
   49.680    0.4388
   49.695    0.4213
   49.710    0.6495
   49.725    0.6144
   49.740    0.6846
   49.755    0.5441
   49.770    0.4213
   49.785    0.4564
   49.800    0.4564
   49.815    0.5266
   49.830    0.4037
   49.845    0.4388
   49.860    0.4213
   49.875    0.4388
   49.890    0.4915
   49.905    0.4564
   49.920    0.4739
   49.935    0.4388
   49.950    0.4915
   49.965    0.5617
   49.980    0.4388
