    1.500   19.8823
    1.515   20.1284
    1.530   19.6362
    1.545   18.8443
    1.560   18.6945
    1.575   17.6672
    1.590   17.2820
    1.605   16.1477
    1.620   16.2119
    1.635   15.5270
    1.650   14.9492
    1.665   14.5960
    1.680   14.7566
    1.695   14.3178
    1.710   13.9968
    1.725   13.6865
    1.740   13.7079
    1.755   13.3440
    1.770   12.7555
    1.785   12.0813
    1.800   12.1455
    1.815   12.1027
    1.830   11.4821
    1.845   11.3323
    1.860   11.1075
    1.875   11.0005
    1.890   10.7544
    1.905   10.5832
    1.920   10.4227
    1.935   10.4976
    1.950   10.1445
    1.965    9.8448
    1.980    9.4382
    1.995    9.5024
    2.010    9.1279
    2.025    9.0530
    2.040    9.1279
    2.055    8.4537
    2.070    8.6356
    2.085    8.8925
    2.100    8.6998
    2.115    8.1648
    2.130    7.6726
    2.145    7.2231
    2.160    7.9936
    2.175    7.1268
    2.190    7.2338
    2.205    7.2445
    2.220    7.1054
    2.235    6.7523
    2.250    6.5062
    2.265    6.9342
    2.280    7.1268
    2.295    6.1958
    2.310    6.8272
    2.325    6.3991
    2.340    6.2600
    2.355    6.3242
    2.370    6.2707
    2.385    5.9497
    2.400    6.1316
    2.415    5.7464
    2.430    5.6929
    2.445    6.0460
    2.460    5.7464
    2.475    5.4789
    2.490    5.9390
    2.505    5.4254
    2.520    5.6501
    2.535    5.4575
    2.550    5.1685
    2.565    5.2648
    2.580    4.8261
    2.595    4.8689
    2.610    4.6442
    2.625    4.8903
    2.640    4.6870
    2.655    4.5586
    2.670    4.8582
    2.685    4.9866
    2.700    4.8689
    2.715    5.1043
    2.730    4.8047
    2.745    4.6656
    2.760    4.7833
    2.775    4.3232
    2.790    4.7191
    2.805    4.3125
    2.820    4.3767
    2.835    4.5051
    2.850    4.6977
    2.865    4.2911
    2.880    4.1627
    2.895    4.1627
    2.910    4.0984
    2.925    4.0770
    2.940    4.1734
    2.955    3.9379
    2.970    4.0770
    2.985    3.9914
    3.000    4.4088
    3.015    3.9165
    3.030    4.0984
    3.045    4.0877
    3.060    4.1199
    3.075    3.8309
    3.090    3.6169
    3.105    4.0770
    3.120    3.8630
    3.135    4.1734
    3.150    4.1413
    3.165    4.0770
    3.180    3.7132
    3.195    4.0449
    3.210    3.7453
    3.225    4.0342
    3.240    4.4195
    3.255    4.2162
    3.270    3.9379
    3.285    4.1413
    3.300    3.6811
    3.315    3.5527
    3.330    4.0556
    3.345    4.0984
    3.360    4.5586
    3.375    4.1520
    3.390    4.1734
    3.405    4.7405
    3.420    4.4088
    3.435    4.5265
    3.450    4.2590
    3.465    4.3874
    3.480    4.8261
    3.495    4.4409
    3.510    4.9438
    3.525    5.0294
    3.540    5.2113
    3.555    5.3398
    3.570    5.2862
    3.585    5.6180
    3.600    5.7999
    3.615    6.0888
    3.630    6.0781
    3.645    6.4741
    3.660    6.6453
    3.675    6.7844
    3.690    6.7630
    3.705    7.0947
    3.720    7.5655
    3.735    7.6940
    3.750    7.9508
    3.765    8.4965
    3.780    8.9460
    3.795    9.5238
    3.810    9.3526
    3.825    9.6308
    3.840   10.1338
    3.855   10.8614
    3.870   11.2681
    3.885   11.7175
    3.900   12.0064
    3.915   11.7175
    3.930   11.7817
    3.945   11.4607
    3.960   12.4452
    3.975   12.6485
    3.990   12.8304
    4.005   12.3382
    4.020   12.4666
    4.035   12.1669
    4.050   12.1883
    4.065   11.8673
    4.080   12.0171
    4.095   11.8566
    4.110   11.8245
    4.125   10.9791
    4.140   11.0219
    4.155   10.4976
    4.170    9.6094
    4.185    9.8876
    4.200    9.6950
    4.215    9.1172
    4.230    8.7426
    4.245    8.6356
    4.260    8.1220
    4.275    7.2766
    4.290    7.4692
    4.305    6.8272
    4.320    6.8379
    4.335    6.9770
    4.350    6.6881
    4.365    6.3456
    4.380    5.8320
    4.395    5.7464
    4.410    5.9069
    4.425    5.8427
    4.440    5.4254
    4.455    5.4361
    4.470    5.7571
    4.485    5.5966
    4.500    5.5752
    4.515    5.3505
    4.530    5.5752
    4.545    5.4361
    4.560    5.5003
    4.575    5.7571
    4.590    5.6715
    4.605    5.2648
    4.620    5.0294
    4.635    5.2970
    4.650    5.5110
    4.665    5.5859
    4.680    5.4682
    4.695    5.4361
    4.710    5.7143
    4.725    5.8427
    4.740    6.2279
    4.755    5.6501
    4.770    5.5003
    4.785    5.8320
    4.800    5.6287
    4.815    5.9925
    4.830    5.9283
    4.845    5.9604
    4.860    6.0032
    4.875    5.8962
    4.890    6.4955
    4.905    6.2814
    4.920    6.0460
    4.935    5.9711
    4.950    6.2172
    4.965    6.2172
    4.980    6.1958
    4.995    5.8855
    5.010    5.6073
    5.025    5.5752
    5.040    5.2862
    5.055    5.0401
    5.070    5.4575
    5.085    5.0508
    5.100    5.1150
    5.115    5.0401
    5.130    4.9866
    5.145    4.7405
    5.160    4.6442
    5.175    4.6014
    5.190    4.3660
    5.205    4.4623
    5.220    4.1199
    5.235    4.3446
    5.250    4.1841
    5.265    4.0877
    5.280    3.9379
    5.295    3.7560
    5.310    3.8737
    5.325    3.6276
    5.340    3.4243
    5.355    3.1568
    5.370    3.3708
    5.385    3.1354
    5.400    3.1354
    5.415    3.2103
    5.430    3.0177
    5.445    2.9856
    5.460    2.9749
    5.475    2.9856
    5.490    2.7715
    5.505    2.4719
    5.520    2.6752
    5.535    2.4184
    5.550    2.4826
    5.565    2.4398
    5.580    2.6110
    5.595    2.5575
    5.610    2.4184
    5.625    2.2579
    5.640    2.4505
    5.655    2.3970
    5.670    2.4184
    5.685    2.2579
    5.700    2.1723
    5.715    2.1402
    5.730    2.2365
    5.745    2.2900
    5.760    2.0225
    5.775    2.1937
    5.790    2.1937
    5.805    2.0011
    5.820    2.0546
    5.835    2.1509
    5.850    1.9904
    5.865    2.1509
    5.880    2.1295
    5.895    2.0760
    5.910    2.2793
    5.925    1.9262
    5.940    1.8620
    5.955    2.2793
    5.970    1.7335
    5.985    2.1723
    6.000    2.1616
    6.015    2.1295
    6.030    2.1295
    6.045    2.1723
    6.060    2.2044
    6.075    2.0974
    6.090    2.1937
    6.105    2.0332
    6.120    2.0760
    6.135    2.0974
    6.150    2.4184
    6.165    2.1402
    6.180    2.2472
    6.195    2.1616
    6.210    2.1188
    6.225    2.0653
    6.240    2.2686
    6.255    2.2900
    6.270    2.0546
    6.285    2.1402
    6.300    2.2365
    6.315    2.0974
    6.330    2.1402
    6.345    2.2472
    6.360    2.1723
    6.375    2.3649
    6.390    2.5682
    6.405    2.1295
    6.420    2.0439
    6.435    2.2151
    6.450    2.0760
    6.465    2.1081
    6.480    2.1081
    6.495    2.2258
    6.510    2.4719
    6.525    2.1723
    6.540    2.2900
    6.555    2.1830
    6.570    2.1723
    6.585    2.0867
    6.600    2.1830
    6.615    2.1937
    6.630    2.2365
    6.645    2.1616
    6.660    1.9797
    6.675    1.8620
    6.690    2.2044
    6.705    2.1830
    6.720    1.9048
    6.735    2.0546
    6.750    1.8299
    6.765    1.7764
    6.780    1.8513
    6.795    1.8620
    6.810    2.0867
    6.825    2.0118
    6.840    1.9369
    6.855    1.8941
    6.870    1.8406
    6.885    2.0332
    6.900    1.7442
    6.915    1.7335
    6.930    1.7121
    6.945    1.8513
    6.960    1.8192
    6.975    1.8513
    6.990    1.8513
    7.005    1.7335
    7.020    1.6907
    7.035    1.6158
    7.050    1.7978
    7.065    1.5730
    7.080    1.8513
    7.095    1.7121
    7.110    1.7978
    7.125    1.7549
    7.140    1.6051
    7.155    1.5944
    7.170    1.6265
    7.185    1.5837
    7.200    1.6372
    7.215    1.5623
    7.230    1.5623
    7.245    1.5302
    7.260    1.6265
    7.275    1.4339
    7.290    1.3055
    7.305    1.4981
    7.320    1.6479
    7.335    1.5088
    7.350    1.4553
    7.365    1.3911
    7.380    1.5195
    7.395    1.4874
    7.410    1.5302
    7.425    1.6479
    7.440    1.5409
    7.455    1.5516
    7.470    1.5944
    7.485    1.3804
    7.500    1.5302
    7.515    1.4660
    7.530    1.3697
    7.545    1.5195
    7.560    1.4767
    7.575    1.5195
    7.590    1.5944
    7.605    1.6158
    7.620    1.4767
    7.635    1.6051
    7.650    1.6479
    7.665    1.5623
    7.680    1.6586
    7.695    1.6265
    7.710    1.6158
    7.725    1.6372
    7.740    1.5409
    7.755    1.7549
    7.770    1.7549
    7.785    1.9797
    7.800    1.9476
    7.815    1.8406
    7.830    1.7014
    7.845    1.7549
    7.860    1.6586
    7.875    1.8513
    7.890    2.0011
    7.905    2.1723
    7.920    1.9904
    7.935    1.9476
    7.950    2.3328
    7.965    2.2365
    7.980    2.1937
    7.995    2.1295
    8.010    2.2900
    8.025    2.2686
    8.040    2.6110
    8.055    2.1937
    8.070    2.2044
    8.085    2.2365
    8.100    2.4291
    8.115    2.3542
    8.130    2.7608
    8.145    2.2686
    8.160    2.4826
    8.175    2.3649
    8.190    2.4933
    8.205    2.2472
    8.220    2.1081
    8.235    2.2579
    8.250    2.1188
    8.265    2.1081
    8.280    2.2365
    8.295    2.0867
    8.310    2.1295
    8.325    1.9904
    8.340    2.0760
    8.355    1.8299
    8.370    1.7014
    8.385    1.7764
    8.400    1.8727
    8.415    1.9690
    8.430    1.6158
    8.445    1.7228
    8.460    1.5944
    8.475    1.5409
    8.490    1.7442
    8.505    1.7121
    8.520    1.4553
    8.535    1.5088
    8.550    1.3804
    8.565    1.4339
    8.580    1.4339
    8.595    1.3269
    8.610    1.3911
    8.625    1.3376
    8.640    1.5409
    8.655    1.4018
    8.670    1.2948
    8.685    1.1129
    8.700    1.3162
    8.715    1.4767
    8.730    1.3376
    8.745    1.3804
    8.760    1.2199
    8.775    1.3590
    8.790    1.2841
    8.805    1.4339
    8.820    1.3376
    8.835    1.4125
    8.850    1.4339
    8.865    1.3055
    8.880    1.2948
    8.895    1.1557
    8.910    1.3055
    8.925    1.1878
    8.940    1.2092
    8.955    1.2948
    8.970    1.2948
    8.985    1.3055
    9.000    1.0808
    9.015    1.0701
    9.030    1.3055
    9.045    1.2948
    9.060    1.2948
    9.075    1.3162
    9.090    1.3162
    9.105    1.2520
    9.120    1.3483
    9.135    1.3483
    9.150    1.2413
    9.165    1.1557
    9.180    1.2627
    9.195    1.4125
    9.210    1.4125
    9.225    1.3697
    9.240    1.2306
    9.255    1.2092
    9.270    1.2948
    9.285    1.1771
    9.300    1.1878
    9.315    1.1557
    9.330    1.3055
    9.345    1.1557
    9.360    1.2092
    9.375    1.1236
    9.390    1.2948
    9.405    1.0701
    9.420    1.2092
    9.435    1.3269
    9.450    1.2734
    9.465    1.1236
    9.480    1.2948
    9.495    1.2092
    9.510    1.3590
    9.525    1.1878
    9.540    1.3697
    9.555    1.0594
    9.570    1.3376
    9.585    1.4339
    9.600    1.3376
    9.615    1.4339
    9.630    1.3269
    9.645    1.2841
    9.660    1.3804
    9.675    1.0915
    9.690    1.2413
    9.705    1.4660
    9.720    1.2520
    9.735    1.3697
    9.750    1.4125
    9.765    1.3162
    9.780    1.2413
    9.795    1.3804
    9.810    1.2948
    9.825    1.1343
    9.840    1.2092
    9.855    1.3483
    9.870    1.2841
    9.885    1.3697
    9.900    1.2734
    9.915    1.3483
    9.930    1.3911
    9.945    1.3697
    9.960    1.3911
    9.975    1.4018
    9.990    1.3483
   10.005    1.6051
   10.020    1.4874
   10.035    1.5088
   10.050    1.2948
   10.065    1.3590
   10.080    1.4446
   10.095    1.4446
   10.110    1.4767
   10.125    1.2092
   10.140    1.3269
   10.155    1.3483
   10.170    1.5516
   10.185    1.5837
   10.200    1.5730
   10.215    1.2627
   10.230    1.3376
   10.245    1.4981
   10.260    1.4767
   10.275    1.4981
   10.290    1.2948
   10.305    1.2306
   10.320    1.3911
   10.335    1.3055
   10.350    1.2627
   10.365    1.3269
   10.380    1.2413
   10.395    1.2413
   10.410    1.2092
   10.425    1.2627
   10.440    1.3804
   10.455    1.2306
   10.470    1.0380
   10.485    1.0915
   10.500    1.1236
   10.515    1.3697
   10.530    1.1343
   10.545    1.0915
   10.560    1.0808
   10.575    0.8668
   10.590    1.2948
   10.605    1.1129
   10.620    1.2734
   10.635    1.2199
   10.650    1.1129
   10.665    1.1343
   10.680    1.3055
   10.695    1.1878
   10.710    0.9524
   10.725    0.9738
   10.740    0.9203
   10.755    0.9203
   10.770    1.1343
   10.785    1.0487
   10.800    1.0701
   10.815    1.0701
   10.830    0.9952
   10.845    1.1236
   10.860    0.9952
   10.875    0.9203
   10.890    0.9096
   10.905    0.9738
   10.920    0.9738
   10.935    0.9310
   10.950    0.9738
   10.965    0.9738
   10.980    0.9524
   10.995    0.7812
   11.010    0.8775
   11.025    1.0701
   11.040    1.0487
   11.055    1.0166
   11.070    1.0594
   11.085    0.9310
   11.100    1.0915
   11.115    0.8882
   11.130    1.0059
   11.145    1.0487
   11.160    1.1129
   11.175    1.0166
   11.190    0.7384
   11.205    0.8561
   11.220    0.8882
   11.235    0.9310
   11.250    1.0059
   11.265    1.0701
   11.280    1.0380
   11.295    0.8347
   11.310    0.9096
   11.325    0.8775
   11.340    0.8133
   11.355    0.9310
   11.370    0.9203
   11.385    0.8775
   11.400    0.9631
   11.415    0.9417
   11.430    0.7705
   11.445    0.8240
   11.460    0.8882
   11.475    0.8882
   11.490    0.8989
   11.505    0.8347
   11.520    0.9203
   11.535    0.7277
   11.550    0.9524
   11.565    0.8989
   11.580    1.0273
   11.595    0.7705
   11.610    0.8454
   11.625    0.8775
   11.640    0.8775
   11.655    0.7812
   11.670    0.7812
   11.685    0.9952
   11.700    0.8668
   11.715    0.9417
   11.730    0.9417
   11.745    0.8882
   11.760    0.9203
   11.775    0.8668
   11.790    0.8668
   11.805    0.9096
   11.820    0.8240
   11.835    0.7705
   11.850    0.8668
   11.865    0.8989
   11.880    0.9417
   11.895    0.9096
   11.910    0.9310
   11.925    1.0915
   11.940    1.0487
   11.955    1.0487
   11.970    1.0059
   11.985    0.9952
   12.000    0.9738
   12.015    0.9310
   12.030    0.9417
   12.045    0.9738
   12.060    0.9096
   12.075    0.8347
   12.090    0.9738
   12.105    1.0273
   12.120    0.9952
   12.135    0.9738
   12.150    1.1129
   12.165    0.9096
   12.180    0.7812
   12.195    1.1022
   12.210    1.0273
   12.225    1.0166
   12.240    0.8989
   12.255    0.9203
   12.270    1.0594
   12.285    0.9631
   12.300    0.9310
   12.315    1.0059
   12.330    0.9738
   12.345    0.9845
   12.360    1.0166
   12.375    0.8882
   12.390    0.9203
   12.405    0.9631
   12.420    0.8668
   12.435    0.9096
   12.450    0.8882
   12.465    0.9631
   12.480    0.8561
   12.495    1.0059
   12.510    0.8775
   12.525    0.9631
   12.540    1.0059
   12.555    0.9524
   12.570    1.1450
   12.585    0.9738
   12.600    0.7491
   12.615    0.9310
   12.630    1.0487
   12.645    1.0380
   12.660    0.8454
   12.675    1.1450
   12.690    1.1236
   12.705    1.1771
   12.720    1.0273
   12.735    1.0594
   12.750    1.0273
   12.765    1.0059
   12.780    0.9952
   12.795    0.9845
   12.810    0.9952
   12.825    0.9952
   12.840    0.9631
   12.855    0.8775
   12.870    0.8775
   12.885    0.8775
   12.900    0.9096
   12.915    1.0487
   12.930    1.1022
   12.945    1.0273
   12.960    1.0273
   12.975    1.0487
   12.990    0.8668
   13.005    1.0594
   13.020    0.9310
   13.035    0.8775
   13.050    0.9417
   13.065    1.0594
   13.080    1.0915
   13.095    0.9096
   13.110    1.0166
   13.125    1.1664
   13.140    1.0808
   13.155    1.0166
   13.170    0.9738
   13.185    0.9524
   13.200    0.9417
   13.215    1.0380
   13.230    0.9631
   13.245    0.9203
   13.260    1.0166
   13.275    0.8882
   13.290    0.9524
   13.305    0.8454
   13.320    0.8561
   13.335    0.9738
   13.350    0.8561
   13.365    1.0701
   13.380    0.8561
   13.395    0.7491
   13.410    1.0594
   13.425    0.8347
   13.440    0.8668
   13.455    0.8882
   13.470    1.0808
   13.485    0.9631
   13.500    1.0059
   13.515    0.8561
   13.530    1.0380
   13.545    0.8561
   13.560    0.8775
   13.575    0.9524
   13.590    1.0273
   13.605    0.8775
   13.620    0.9096
   13.635    0.8454
   13.650    0.9738
   13.665    1.0273
   13.680    0.8989
   13.695    0.8775
   13.710    0.9310
   13.725    0.9417
   13.740    0.9738
   13.755    0.9417
   13.770    1.0380
   13.785    0.9203
   13.800    0.8240
   13.815    0.8454
   13.830    0.9952
   13.845    0.9203
   13.860    0.8668
   13.875    0.8775
   13.890    0.8668
   13.905    0.8454
   13.920    0.9738
   13.935    0.9417
   13.950    0.9952
   13.965    1.1236
   13.980    0.8133
   13.995    0.7491
   14.010    0.8668
   14.025    1.0273
   14.040    1.0487
   14.055    0.7598
   14.070    0.8240
   14.085    0.7491
   14.100    1.0059
   14.115    0.8775
   14.130    0.9203
   14.145    0.7705
   14.160    0.8240
   14.175    0.6956
   14.190    0.8026
   14.205    0.8882
   14.220    0.9952
   14.235    0.8882
   14.250    0.8882
   14.265    0.9310
   14.280    0.8775
   14.295    0.9631
   14.310    0.8775
   14.325    0.7919
   14.340    0.9096
   14.355    0.8347
   14.370    0.8989
   14.385    0.7919
   14.400    0.9631
   14.415    0.9738
   14.430    0.8775
   14.445    0.9310
   14.460    0.9096
   14.475    0.9952
   14.490    0.8454
   14.505    0.9310
   14.520    0.9203
   14.535    0.9096
   14.550    0.8989
   14.565    0.9310
   14.580    1.0273
   14.595    0.7705
   14.610    0.8989
   14.625    0.9631
   14.640    0.9524
   14.655    0.9310
   14.670    0.9203
   14.685    0.9096
   14.700    0.8668
   14.715    0.8026
   14.730    0.9096
   14.745    0.8133
   14.760    0.8775
   14.775    0.9310
   14.790    0.9845
   14.805    0.9310
   14.820    0.8561
   14.835    0.8775
   14.850    0.8026
   14.865    1.0487
   14.880    1.1129
   14.895    0.9417
   14.910    1.0594
   14.925    1.0166
   14.940    0.7919
   14.955    0.9096
   14.970    0.9524
   14.985    0.9310
   15.000    0.9096
   15.015    0.8347
   15.030    0.9203
   15.045    1.0059
   15.060    0.9417
   15.075    0.9203
   15.090    0.9310
   15.105    0.9203
   15.120    0.9096
   15.135    0.8775
   15.150    0.8775
   15.165    0.7491
   15.180    1.0594
   15.195    1.0059
   15.210    0.9310
   15.225    0.8775
   15.240    0.8561
   15.255    0.8989
   15.270    0.8775
   15.285    0.8882
   15.300    0.8989
   15.315    0.8454
   15.330    0.8026
   15.345    0.8561
   15.360    0.9096
   15.375    1.0166
   15.390    1.1129
   15.405    0.8347
   15.420    0.8454
   15.435    0.8775
   15.450    0.8561
   15.465    0.9738
   15.480    1.0059
   15.495    0.9845
   15.510    0.9845
   15.525    1.0487
   15.540    0.9738
   15.555    0.8989
   15.570    0.8561
   15.585    0.8989
   15.600    0.8026
   15.615    0.8775
   15.630    0.7598
   15.645    0.9417
   15.660    0.9310
   15.675    1.0273
   15.690    0.9096
   15.705    0.8668
   15.720    0.9524
   15.735    0.8133
   15.750    0.9524
   15.765    0.8133
   15.780    0.8561
   15.795    0.8454
   15.810    0.8668
   15.825    0.8454
   15.840    0.8882
   15.855    0.8882
   15.870    0.8775
   15.885    0.8240
   15.900    0.9738
   15.915    0.8454
   15.930    0.9096
   15.945    0.7063
   15.960    0.7919
   15.975    0.8882
   15.990    0.8240
   16.005    0.8454
   16.020    0.8133
   16.035    0.8240
   16.050    0.8347
   16.065    0.9203
   16.080    0.8775
   16.095    0.9631
   16.110    0.7277
   16.125    0.8989
   16.140    0.8668
   16.155    0.9738
   16.170    0.8133
   16.185    0.9738
   16.200    0.9952
   16.215    0.8133
   16.230    0.8133
   16.245    0.9845
   16.260    0.9096
   16.275    1.0166
   16.290    0.9096
   16.305    0.9203
   16.320    0.8775
   16.335    0.9310
   16.350    0.9845
   16.365    0.9738
   16.380    0.8561
   16.395    0.9310
   16.410    0.9203
   16.425    0.8561
   16.440    0.9524
   16.455    0.9524
   16.470    1.0487
   16.485    0.9738
   16.500    0.8989
   16.515    1.2413
   16.530    1.1450
   16.545    0.8240
   16.560    0.8133
   16.575    0.7919
   16.590    0.8989
   16.605    0.8561
   16.620    0.9096
   16.635    0.7705
   16.650    0.9310
   16.665    0.8882
   16.680    1.0487
   16.695    1.0059
   16.710    1.1450
   16.725    1.0273
   16.740    0.8454
   16.755    0.8133
   16.770    0.9310
   16.785    0.9203
   16.800    0.8989
   16.815    0.9845
   16.830    0.8882
   16.845    1.1022
   16.860    0.9738
   16.875    1.0166
   16.890    1.0915
   16.905    0.9417
   16.920    1.0487
   16.935    1.1450
   16.950    0.9096
   16.965    0.7705
   16.980    0.9631
   16.995    0.9631
   17.010    0.9738
   17.025    1.1236
   17.040    0.9417
   17.055    0.8454
   17.070    0.8668
   17.085    0.9524
   17.100    1.0059
   17.115    0.8775
   17.130    0.9310
   17.145    0.7277
   17.160    0.8347
   17.175    0.8989
   17.190    0.8775
   17.205    0.8882
   17.220    0.9203
   17.235    0.8240
   17.250    0.8668
   17.265    0.8347
   17.280    0.8133
   17.295    0.8026
   17.310    0.9096
   17.325    1.0273
   17.340    1.0166
   17.355    0.7598
   17.370    0.9631
   17.385    0.9738
   17.400    0.8133
   17.415    0.9524
   17.430    0.9203
   17.445    0.7919
   17.460    0.7812
   17.475    0.8668
   17.490    0.9310
   17.505    0.8454
   17.520    0.9096
   17.535    1.0487
   17.550    1.0273
   17.565    0.7491
   17.580    0.7705
   17.595    0.8989
   17.610    0.9417
   17.625    0.9631
   17.640    0.8668
   17.655    0.9631
   17.670    0.9952
   17.685    0.8989
   17.700    0.7812
   17.715    0.7491
   17.730    0.8882
   17.745    0.9096
   17.760    0.9310
   17.775    0.7277
   17.790    0.9417
   17.805    0.8454
   17.820    0.9631
   17.835    0.9524
   17.850    0.9952
   17.865    0.8240
   17.880    0.7170
   17.895    0.7384
   17.910    0.7384
   17.925    0.7170
   17.940    0.7812
   17.955    0.7919
   17.970    0.8668
   17.985    0.9952
   18.000    0.9524
   18.015    0.8133
   18.030    0.9524
   18.045    0.8347
   18.060    0.9310
   18.075    0.8026
   18.090    0.8347
   18.105    0.8989
   18.120    0.8989
   18.135    0.8561
   18.150    0.8668
   18.165    0.9096
   18.180    0.8561
   18.195    0.7384
   18.210    0.8240
   18.225    0.8882
   18.240    0.8347
   18.255    1.0059
   18.270    0.9310
   18.285    0.8240
   18.300    0.9203
   18.315    0.9096
   18.330    0.8775
   18.345    0.8561
   18.360    0.8989
   18.375    0.8882
   18.390    0.8561
   18.405    0.9631
   18.420    0.8347
   18.435    0.8989
   18.450    0.7919
   18.465    0.8133
   18.480    0.8240
   18.495    0.9096
   18.510    0.8989
   18.525    0.7919
   18.540    0.8240
   18.555    0.8561
   18.570    0.6849
   18.585    0.8454
   18.600    0.9524
   18.615    0.9096
   18.630    1.0273
   18.645    0.9203
   18.660    0.7384
   18.675    0.8668
   18.690    0.9952
   18.705    0.8882
   18.720    0.9738
   18.735    0.8026
   18.750    0.7384
   18.765    0.8561
   18.780    0.8561
   18.795    0.8882
   18.810    0.8561
   18.825    0.9203
   18.840    0.8240
   18.855    0.9096
   18.870    0.9203
   18.885    0.8347
   18.900    0.7170
   18.915    0.7277
   18.930    0.7491
   18.945    0.8026
   18.960    0.7063
   18.975    0.7919
   18.990    0.8454
   19.005    1.0380
   19.020    0.7919
   19.035    0.8240
   19.050    0.8454
   19.065    0.7705
   19.080    0.6849
   19.095    0.8775
   19.110    0.8133
   19.125    0.7705
   19.140    0.9203
   19.155    0.9096
   19.170    0.9417
   19.185    0.8561
   19.200    0.7170
   19.215    0.8882
   19.230    0.9096
   19.245    0.8026
   19.260    0.7491
   19.275    0.7705
   19.290    0.8133
   19.305    0.8133
   19.320    0.8240
   19.335    0.9310
   19.350    0.8026
   19.365    0.6956
   19.380    0.8775
   19.395    0.8775
   19.410    0.9310
   19.425    0.8240
   19.440    0.7277
   19.455    0.9203
   19.470    0.8668
   19.485    0.7705
   19.500    0.8775
   19.515    0.8454
   19.530    0.8668
   19.545    0.8775
   19.560    0.8026
   19.575    0.8561
   19.590    0.8026
   19.605    0.8347
   19.620    0.8668
   19.635    0.9952
   19.650    0.9845
   19.665    0.9096
   19.680    0.8347
   19.695    0.8668
   19.710    0.8454
   19.725    0.8240
   19.740    0.8775
   19.755    0.8775
   19.770    0.7705
   19.785    0.7170
   19.800    0.7919
   19.815    0.7812
   19.830    0.8882
   19.845    0.9310
   19.860    0.8882
   19.875    0.7598
   19.890    0.7812
   19.905    0.7812
   19.920    0.9417
   19.935    1.0166
   19.950    0.8882
   19.965    0.6849
   19.980    0.7491
   19.995    0.9310
   20.010    0.8026
   20.025    0.8561
   20.040    1.0273
   20.055    0.9203
   20.070    0.6742
   20.085    0.7491
   20.100    0.9096
   20.115    0.7598
   20.130    0.7812
   20.145    0.7277
   20.160    0.8989
   20.175    0.8026
   20.190    0.8882
   20.205    0.8454
   20.220    0.8775
   20.235    0.8561
   20.250    0.9203
   20.265    0.8026
   20.280    0.9417
   20.295    0.8240
   20.310    0.8026
   20.325    0.7598
   20.340    0.7705
   20.355    0.8882
   20.370    0.8775
   20.385    0.6849
   20.400    0.8882
   20.415    0.7384
   20.430    0.7491
   20.445    0.7384
   20.460    0.7812
   20.475    0.8347
   20.490    0.9203
   20.505    0.9417
   20.520    0.8882
   20.535    0.8133
   20.550    0.9310
   20.565    0.8133
   20.580    0.7919
   20.595    0.8882
   20.610    0.8347
   20.625    0.8668
   20.640    0.7919
   20.655    0.8347
   20.670    0.8882
   20.685    0.7705
   20.700    0.8347
   20.715    0.9096
   20.730    0.8240
   20.745    0.9203
   20.760    0.9310
   20.775    1.0273
   20.790    0.8133
   20.805    0.8240
   20.820    0.6635
   20.835    0.7812
   20.850    0.8347
   20.865    0.7491
   20.880    0.8454
   20.895    0.7705
   20.910    0.9310
   20.925    0.8240
   20.940    0.8240
   20.955    0.8347
   20.970    0.9738
   20.985    0.8561
   21.000    0.7277
   21.015    0.8026
   21.030    0.8668
   21.045    0.8240
   21.060    0.8454
   21.075    0.7598
   21.090    0.8882
   21.105    0.8454
   21.120    0.7384
   21.135    0.9845
   21.150    0.8882
   21.165    0.8668
   21.180    0.8882
   21.195    0.9096
   21.210    0.8668
   21.225    0.8668
   21.240    0.8240
   21.255    0.7919
   21.270    0.8454
   21.285    0.8240
   21.300    0.6956
   21.315    0.7384
   21.330    0.8775
   21.345    0.9738
   21.360    0.7170
   21.375    0.7277
   21.390    0.7705
   21.405    0.9096
   21.420    0.8989
   21.435    1.1022
   21.450    0.8133
   21.465    0.8240
   21.480    0.7812
   21.495    0.7277
   21.510    0.7277
   21.525    0.8026
   21.540    0.7384
   21.555    0.8454
   21.570    0.8775
   21.585    0.8775
   21.600    0.8240
   21.615    0.9631
   21.630    0.8668
   21.645    0.8026
   21.660    0.8454
   21.675    0.8133
   21.690    0.9524
   21.705    0.8454
   21.720    0.9203
   21.735    0.7598
   21.750    0.8882
   21.765    0.7170
   21.780    0.8561
   21.795    0.7170
   21.810    0.7598
   21.825    0.8454
   21.840    0.7598
   21.855    0.9631
   21.870    0.9096
   21.885    0.7812
   21.900    0.8347
   21.915    0.8133
   21.930    0.9738
   21.945    0.7170
   21.960    0.7919
   21.975    0.8026
   21.990    0.9845
   22.005    0.7812
   22.020    0.8882
   22.035    0.8989
   22.050    0.8561
   22.065    1.0915
   22.080    0.9845
   22.095    1.0808
   22.110    1.0487
   22.125    0.9310
   22.140    0.8668
   22.155    0.8668
   22.170    0.8133
   22.185    0.6742
   22.200    0.8347
   22.215    0.7491
   22.230    0.7812
   22.245    0.7491
   22.260    0.8347
   22.275    0.8668
   22.290    0.8561
   22.305    0.7384
   22.320    0.9631
   22.335    0.8454
   22.350    0.7598
   22.365    0.7598
   22.380    0.7705
   22.395    0.8668
   22.410    0.8775
   22.425    0.8882
   22.440    0.7170
   22.455    0.5993
   22.470    0.7063
   22.485    0.8347
   22.500    0.9096
   22.515    1.0059
   22.530    0.7919
   22.545    0.8240
   22.560    0.9524
   22.575    0.7384
   22.590    0.7384
   22.605    0.7919
   22.620    0.8026
   22.635    0.8347
   22.650    0.9203
   22.665    0.8775
   22.680    0.9203
   22.695    0.7063
   22.710    0.7705
   22.725    0.8989
   22.740    0.8240
   22.755    0.7598
   22.770    0.7919
   22.785    0.8775
   22.800    0.9845
   22.815    0.7705
   22.830    0.9417
   22.845    0.9203
   22.860    0.8668
   22.875    0.7491
   22.890    0.9417
   22.905    0.8882
   22.920    0.8240
   22.935    0.8240
   22.950    0.8240
   22.965    0.7919
   22.980    0.8347
   22.995    0.9952
   23.010    0.8454
   23.025    0.9417
   23.040    0.8347
   23.055    0.8133
   23.070    0.6849
   23.085    0.7598
   23.100    0.6421
   23.115    0.7812
   23.130    0.8775
   23.145    0.9631
   23.160    0.9310
   23.175    0.9310
   23.190    0.8775
   23.205    0.8133
   23.220    0.8133
   23.235    0.9203
   23.250    0.7919
   23.265    0.6314
   23.280    0.5886
   23.295    0.8133
   23.310    0.8561
   23.325    0.8561
   23.340    0.8454
   23.355    0.8240
   23.370    0.8454
   23.385    0.8561
   23.400    0.8347
   23.415    0.8882
   23.430    0.8989
   23.445    0.8240
   23.460    0.7063
   23.475    0.8133
   23.490    0.9203
   23.505    0.9952
   23.520    0.9203
   23.535    0.7812
   23.550    0.9845
   23.565    0.8668
   23.580    0.8775
   23.595    0.8989
   23.610    0.7277
   23.625    0.8561
   23.640    0.9310
   23.655    0.9524
   23.670    0.9096
   23.685    0.8240
   23.700    0.7812
   23.715    0.6314
   23.730    0.8668
   23.745    0.7919
   23.760    0.7705
   23.775    0.8347
   23.790    0.9310
   23.805    0.9203
   23.820    0.8882
   23.835    0.7598
   23.850    0.7384
   23.865    0.7170
   23.880    0.6421
   23.895    0.7491
   23.910    0.8133
   23.925    0.8240
   23.940    0.7705
   23.955    0.7812
   23.970    0.8133
   23.985    0.7170
   24.000    0.7812
   24.015    0.8240
   24.030    0.8454
   24.045    0.8668
   24.060    0.8240
   24.075    0.8561
   24.090    0.8561
   24.105    0.9738
   24.120    0.8775
   24.135    0.8775
   24.150    0.7812
   24.165    0.8347
   24.180    1.0166
   24.195    0.8989
   24.210    0.9631
   24.225    0.8668
   24.240    0.6635
   24.255    0.7812
   24.270    0.8347
   24.285    0.8347
   24.300    0.7491
   24.315    0.7919
   24.330    0.6742
   24.345    0.7277
   24.360    0.8347
   24.375    0.8133
   24.390    0.7170
   24.405    0.8775
   24.420    0.8775
   24.435    0.8989
   24.450    0.8668
   24.465    0.7919
   24.480    0.6956
   24.495    0.8668
   24.510    0.7384
   24.525    0.7812
   24.540    0.9096
   24.555    0.7491
   24.570    0.8240
   24.585    0.8454
   24.600    0.8454
   24.615    0.7598
   24.630    0.7812
   24.645    0.8240
   24.660    0.8989
   24.675    0.7491
   24.690    0.7491
   24.705    0.8026
   24.720    0.8668
   24.735    0.8882
   24.750    0.8882
   24.765    0.9203
   24.780    0.7170
   24.795    0.7705
   24.810    0.8775
   24.825    0.8561
   24.840    0.8026
   24.855    0.8454
   24.870    1.0166
   24.885    0.7705
   24.900    0.8347
   24.915    0.8775
   24.930    0.8133
   24.945    0.7170
   24.960    0.7384
   24.975    0.7491
   24.990    0.8882
   25.005    0.8561
   25.020    0.7170
   25.035    0.7277
   25.050    0.7384
   25.065    0.7491
   25.080    0.7812
   25.095    0.8133
   25.110    0.8561
   25.125    0.9096
   25.140    0.8240
   25.155    0.8240
   25.170    0.7384
   25.185    0.8775
   25.200    0.9631
   25.215    0.7705
   25.230    0.8561
   25.245    0.8347
   25.260    0.7491
   25.275    0.8561
   25.290    0.8133
   25.305    0.7277
   25.320    0.8668
   25.335    0.9096
   25.350    0.6849
   25.365    0.7170
   25.380    0.8133
   25.395    0.7812
   25.410    0.7384
   25.425    0.7812
   25.440    0.7063
   25.455    0.7919
   25.470    0.8989
   25.485    0.7705
   25.500    0.7384
   25.515    0.7491
   25.530    0.7384
   25.545    0.6849
   25.560    0.7277
   25.575    0.8133
   25.590    0.7812
   25.605    0.7598
   25.620    0.8240
   25.635    0.8133
   25.650    0.6314
   25.665    0.8347
   25.680    0.8668
   25.695    0.6635
   25.710    0.7277
   25.725    0.7491
   25.740    0.8240
   25.755    0.6635
   25.770    0.8347
   25.785    0.6528
   25.800    0.6742
   25.815    0.7063
   25.830    0.7170
   25.845    0.8133
   25.860    0.8454
   25.875    0.7491
   25.890    0.7384
   25.905    0.8240
   25.920    0.8347
   25.935    0.8561
   25.950    0.7598
   25.965    0.8454
   25.980    0.8133
   25.995    0.7598
   26.010    0.5993
   26.025    0.7598
   26.040    0.7705
   26.055    0.7063
   26.070    0.7812
   26.085    0.8133
   26.100    0.8561
   26.115    0.6849
   26.130    0.7384
   26.145    0.7919
   26.160    0.7384
   26.175    0.8026
   26.190    0.7705
   26.205    0.7277
   26.220    0.8561
   26.235    0.6849
   26.250    0.6421
   26.265    0.7812
   26.280    0.8668
   26.295    0.8561
   26.310    0.7384
   26.325    0.7170
   26.340    0.7919
   26.355    0.7384
   26.370    0.8561
   26.385    0.7384
   26.400    0.6742
   26.415    0.7384
   26.430    0.7170
   26.445    0.7170
   26.460    0.7063
   26.475    0.8347
   26.490    0.8026
   26.505    0.7063
   26.520    0.7812
   26.535    0.7919
   26.550    0.6956
   26.565    0.7705
   26.580    0.7812
   26.595    0.7384
   26.610    0.7598
   26.625    0.6956
   26.640    0.8133
   26.655    0.8561
   26.670    0.6956
   26.685    0.7170
   26.700    0.6100
   26.715    0.6849
   26.730    0.6207
   26.745    0.6100
   26.760    0.8026
   26.775    0.6742
   26.790    0.6849
   26.805    0.7170
   26.820    0.6528
   26.835    0.6207
   26.850    0.7491
   26.865    0.6635
   26.880    0.7491
   26.895    0.8775
   26.910    0.8668
   26.925    0.8561
   26.940    0.6528
   26.955    0.7170
   26.970    0.7063
   26.985    0.7919
   27.000    0.6956
   27.015    0.7063
   27.030    0.7491
   27.045    0.7170
   27.060    0.7277
   27.075    0.7170
   27.090    0.6528
   27.105    0.5993
   27.120    0.7491
   27.135    0.7277
   27.150    0.6849
   27.165    0.7063
   27.180    0.5778
   27.195    0.6528
   27.210    0.7705
   27.225    0.6635
   27.240    0.7491
   27.255    0.7384
   27.270    0.7598
   27.285    0.6742
   27.300    0.7919
   27.315    0.7812
   27.330    0.6742
   27.345    0.7598
   27.360    0.7384
   27.375    0.6849
   27.390    0.7491
   27.405    0.7063
   27.420    0.7063
   27.435    0.6956
   27.450    0.6421
   27.465    0.6635
   27.480    0.7812
   27.495    0.6421
   27.510    0.7384
   27.525    0.6635
   27.540    0.5671
   27.555    0.6207
   27.570    0.6314
   27.585    0.7384
   27.600    0.5671
   27.615    0.5671
   27.630    0.6421
   27.645    0.7170
   27.660    0.6742
   27.675    0.6849
   27.690    0.6849
   27.705    0.5993
   27.720    0.6314
   27.735    0.6207
   27.750    0.6100
   27.765    0.6742
   27.780    0.6635
   27.795    0.6207
   27.810    0.7170
   27.825    0.8347
   27.840    0.6314
   27.855    0.7812
   27.870    0.6314
   27.885    0.6421
   27.900    0.5886
   27.915    0.6742
   27.930    0.6635
   27.945    0.7063
   27.960    0.6314
   27.975    0.7812
   27.990    0.5564
   28.005    0.5886
   28.020    0.7919
   28.035    0.5886
   28.050    0.6100
   28.065    0.5029
   28.080    0.5778
   28.095    0.6100
   28.110    0.6528
   28.125    0.6207
   28.140    0.6956
   28.155    0.7598
   28.170    0.6314
   28.185    0.6528
   28.200    0.6742
   28.215    0.6742
   28.230    0.8026
   28.245    0.7170
   28.260    0.5886
   28.275    0.5564
   28.290    0.5350
   28.305    0.7277
   28.320    0.5778
   28.335    0.5671
   28.350    0.5350
   28.365    0.5778
   28.380    0.6100
   28.395    0.5350
   28.410    0.6100
   28.425    0.5457
   28.440    0.6100
   28.455    0.6956
   28.470    0.7491
   28.485    0.6207
   28.500    0.5671
   28.515    0.6421
   28.530    0.6742
   28.545    0.5564
   28.560    0.5671
   28.575    0.6421
   28.590    0.5457
   28.605    0.7063
   28.620    0.5778
   28.635    0.5778
   28.650    0.7384
   28.665    0.6528
   28.680    0.5886
   28.695    0.4387
   28.710    0.6207
   28.725    0.6528
   28.740    0.4815
   28.755    0.5886
   28.770    0.6635
   28.785    0.7705
   28.800    0.5993
   28.815    0.6956
   28.830    0.7277
   28.845    0.6849
   28.860    0.7598
   28.875    0.7919
   28.890    0.5350
   28.905    0.6100
   28.920    0.5350
   28.935    0.6421
   28.950    0.7063
   28.965    0.7491
   28.980    0.7063
   28.995    0.6635
   29.010    0.6528
   29.025    0.7063
   29.040    0.5886
   29.055    0.5993
   29.070    0.6742
   29.085    0.5671
   29.100    0.6100
   29.115    0.5350
   29.130    0.6635
   29.145    0.7277
   29.160    0.5886
   29.175    0.5671
   29.190    0.6314
   29.205    0.6528
   29.220    0.7063
   29.235    0.6742
   29.250    0.6207
   29.265    0.6635
   29.280    0.6635
   29.295    0.5671
   29.310    0.5886
   29.325    0.5993
   29.340    0.7384
   29.355    0.6100
   29.370    0.5564
   29.385    0.6207
   29.400    0.6528
   29.415    0.6207
   29.430    0.5778
   29.445    0.5671
   29.460    0.6421
   29.475    0.5029
   29.490    0.6207
   29.505    0.6742
   29.520    0.6421
   29.535    0.6207
   29.550    0.6207
   29.565    0.5886
   29.580    0.5457
   29.595    0.6100
   29.610    0.5457
   29.625    0.5457
   29.640    0.5350
   29.655    0.6207
   29.670    0.5993
   29.685    0.6849
   29.700    0.5993
   29.715    0.5778
   29.730    0.7491
   29.745    0.5993
   29.760    0.5457
   29.775    0.5993
   29.790    0.5457
   29.805    0.5457
   29.820    0.5886
   29.835    0.5350
   29.850    0.5457
   29.865    0.5993
   29.880    0.5886
   29.895    0.7277
   29.910    0.6528
   29.925    0.5993
   29.940    0.5564
   29.955    0.6635
   29.970    0.6314
   29.985    0.6314
   30.000    0.5564
   30.015    0.5564
   30.030    0.5136
   30.045    0.5136
   30.060    0.6528
   30.075    0.5886
   30.090    0.4815
   30.105    0.5671
   30.120    0.6314
   30.135    0.5457
   30.150    0.4922
   30.165    0.5457
   30.180    0.5778
   30.195    0.5778
   30.210    0.5029
   30.225    0.5136
   30.240    0.6314
   30.255    0.6207
   30.270    0.5457
   30.285    0.6314
   30.300    0.5564
   30.315    0.5671
   30.330    0.5243
   30.345    0.4494
   30.360    0.5993
   30.375    0.5993
   30.390    0.5778
   30.405    0.5564
   30.420    0.5136
   30.435    0.5457
   30.450    0.5243
   30.465    0.4815
   30.480    0.6100
   30.495    0.5243
   30.510    0.5671
   30.525    0.5350
   30.540    0.5886
   30.555    0.6100
   30.570    0.5136
   30.585    0.4387
   30.600    0.4601
   30.615    0.5243
   30.630    0.4494
   30.645    0.5243
   30.660    0.4601
   30.675    0.6100
   30.690    0.6528
   30.705    0.6314
   30.720    0.5350
   30.735    0.5886
   30.750    0.5350
   30.765    0.5886
   30.780    0.5564
   30.795    0.6314
   30.810    0.5136
   30.825    0.4815
   30.840    0.4387
   30.855    0.5778
   30.870    0.5457
   30.885    0.4280
   30.900    0.5778
   30.915    0.5671
   30.930    0.5886
   30.945    0.5350
   30.960    0.4922
   30.975    0.5457
   30.990    0.5457
   31.005    0.4815
   31.020    0.5136
   31.035    0.4922
   31.050    0.3852
   31.065    0.4494
   31.080    0.5350
   31.095    0.4173
   31.110    0.4601
   31.125    0.5564
   31.140    0.5350
   31.155    0.5671
   31.170    0.5243
   31.185    0.5136
   31.200    0.5564
   31.215    0.5993
   31.230    0.5243
   31.245    0.4601
   31.260    0.5457
   31.275    0.5457
   31.290    0.5778
   31.305    0.5136
   31.320    0.4601
   31.335    0.4280
   31.350    0.4387
   31.365    0.4601
   31.380    0.4601
   31.395    0.4708
   31.410    0.5136
   31.425    0.5457
   31.440    0.4922
   31.455    0.5886
   31.470    0.5564
   31.485    0.5350
   31.500    0.5136
   31.515    0.5243
   31.530    0.4922
   31.545    0.4922
   31.560    0.4815
   31.575    0.5993
   31.590    0.5243
   31.605    0.3638
   31.620    0.3745
   31.635    0.4922
   31.650    0.6207
   31.665    0.5136
   31.680    0.5136
   31.695    0.5350
   31.710    0.6100
   31.725    0.5243
   31.740    0.4601
   31.755    0.5136
   31.770    0.4922
   31.785    0.4173
   31.800    0.5243
   31.815    0.6314
   31.830    0.4494
   31.845    0.4708
   31.860    0.5243
   31.875    0.4601
   31.890    0.4387
   31.905    0.4173
   31.920    0.5350
   31.935    0.5243
   31.950    0.4922
   31.965    0.5243
   31.980    0.4922
   31.995    0.2568
   32.010    0.4708
   32.025    0.6207
   32.040    0.5350
   32.055    0.5993
   32.070    0.6207
   32.085    0.4387
   32.100    0.4280
   32.115    0.5671
   32.130    0.4601
   32.145    0.4815
   32.160    0.5243
   32.175    0.4922
   32.190    0.4922
   32.205    0.3745
   32.220    0.3745
   32.235    0.4922
   32.250    0.4922
   32.265    0.5243
   32.280    0.4066
   32.295    0.3959
   32.310    0.5671
   32.325    0.4387
   32.340    0.5243
   32.355    0.4173
   32.370    0.4601
   32.385    0.5564
   32.400    0.5029
   32.415    0.3959
   32.430    0.4387
   32.445    0.5457
   32.460    0.5350
   32.475    0.5350
   32.490    0.5778
   32.505    0.5243
   32.520    0.4708
   32.535    0.4815
   32.550    0.5778
   32.565    0.5886
   32.580    0.6314
   32.595    0.5993
   32.610    0.7705
   32.625    0.6956
   32.640    0.6100
   32.655    0.6528
   32.670    0.5136
   32.685    0.6100
   32.700    0.5029
   32.715    0.4601
   32.730    0.4280
   32.745    0.4922
   32.760    0.5136
   32.775    0.4708
   32.790    0.4387
   32.805    0.6100
   32.820    0.6100
   32.835    0.5564
   32.850    0.4708
   32.865    0.4708
   32.880    0.4601
   32.895    0.4601
   32.910    0.4601
   32.925    0.4922
   32.940    0.4601
   32.955    0.5243
   32.970    0.4708
   32.985    0.5029
   33.000    0.5029
   33.015    0.4387
   33.030    0.5029
   33.045    0.4815
   33.060    0.4387
   33.075    0.4601
   33.090    0.5886
   33.105    0.4601
   33.120    0.4815
   33.135    0.4387
   33.150    0.3745
   33.165    0.4708
   33.180    0.4922
   33.195    0.4494
   33.210    0.3638
   33.225    0.3638
   33.240    0.3959
   33.255    0.4280
   33.270    0.5564
   33.285    0.4387
   33.300    0.5564
   33.315    0.4922
   33.330    0.5993
   33.345    0.4922
   33.360    0.4708
   33.375    0.4387
   33.390    0.5136
   33.405    0.5778
   33.420    0.5457
   33.435    0.5350
   33.450    0.5350
   33.465    0.3959
   33.480    0.4494
   33.495    0.4815
   33.510    0.4601
   33.525    0.4173
   33.540    0.5350
   33.555    0.4922
   33.570    0.5243
   33.585    0.5350
   33.600    0.4280
   33.615    0.3745
   33.630    0.4387
   33.645    0.4708
   33.660    0.4494
   33.675    0.4494
   33.690    0.5243
   33.705    0.6100
   33.720    0.7170
   33.735    0.7705
   33.750    0.8026
   33.765    0.7384
   33.780    0.6314
   33.795    0.5350
   33.810    0.5029
   33.825    0.4601
   33.840    0.4494
   33.855    0.3959
   33.870    0.4815
   33.885    0.5564
   33.900    0.4173
   33.915    0.4601
   33.930    0.4922
   33.945    0.3745
   33.960    0.5136
   33.975    0.4815
   33.990    0.4387
   34.005    0.4494
   34.020    0.4922
   34.035    0.5029
   34.050    0.3638
   34.065    0.3424
   34.080    0.4280
   34.095    0.3638
   34.110    0.4066
   34.125    0.5350
   34.140    0.4387
   34.155    0.4387
   34.170    0.4066
   34.185    0.4601
   34.200    0.4815
   34.215    0.3959
   34.230    0.3852
   34.245    0.3638
   34.260    0.4494
   34.275    0.5457
   34.290    0.3745
   34.305    0.4173
   34.320    0.4601
   34.335    0.3852
   34.350    0.4173
   34.365    0.4066
   34.380    0.3959
   34.395    0.4708
   34.410    0.3745
   34.425    0.3745
   34.440    0.3210
   34.455    0.3852
   34.470    0.3103
   34.485    0.3210
   34.500    0.4066
   34.515    0.3745
   34.530    0.5029
   34.545    0.5136
   34.560    0.4815
   34.575    0.4066
   34.590    0.4601
   34.605    0.3852
   34.620    0.4387
   34.635    0.5671
   34.650    0.4494
   34.665    0.4708
   34.680    0.4708
   34.695    0.4815
   34.710    0.4173
   34.725    0.3745
   34.740    0.4494
   34.755    0.3531
   34.770    0.3424
   34.785    0.2782
   34.800    0.3210
   34.815    0.3638
   34.830    0.5029
   34.845    0.4066
   34.860    0.5136
   34.875    0.3531
   34.890    0.3638
   34.905    0.2996
   34.920    0.4494
   34.935    0.4066
   34.950    0.2996
   34.965    0.3424
   34.980    0.4066
   34.995    0.4173
   35.010    0.3103
   35.025    0.2996
   35.040    0.2889
   35.055    0.2996
   35.070    0.3959
   35.085    0.4601
   35.100    0.3745
   35.115    0.3959
   35.130    0.4280
   35.145    0.4066
   35.160    0.3852
   35.175    0.3852
   35.190    0.3638
   35.205    0.4601
   35.220    0.4066
   35.235    0.3852
   35.250    0.4387
   35.265    0.2889
   35.280    0.3638
   35.295    0.3745
   35.310    0.3638
   35.325    0.3103
   35.340    0.5029
   35.355    0.3745
   35.370    0.3210
   35.385    0.2889
   35.400    0.3103
   35.415    0.4922
   35.430    0.4708
   35.445    0.3317
   35.460    0.3424
   35.475    0.3745
   35.490    0.3638
   35.505    0.3424
   35.520    0.3103
   35.535    0.3638
   35.550    0.4708
   35.565    0.3852
   35.580    0.3959
   35.595    0.2889
   35.610    0.3424
   35.625    0.3745
   35.640    0.3745
   35.655    0.4601
   35.670    0.3424
   35.685    0.4280
   35.700    0.3424
   35.715    0.3959
   35.730    0.3210
   35.745    0.3424
   35.760    0.3745
   35.775    0.3745
   35.790    0.3638
   35.805    0.4387
   35.820    0.3103
   35.835    0.3317
   35.850    0.2889
   35.865    0.3210
   35.880    0.4494
   35.895    0.4280
   35.910    0.4494
   35.925    0.4387
   35.940    0.4173
   35.955    0.3424
   35.970    0.3531
   35.985    0.3531
   36.000    0.3424
   36.015    0.3317
   36.030    0.3745
   36.045    0.4494
   36.060    0.3745
   36.075    0.4066
   36.090    0.3531
   36.105    0.3103
   36.120    0.3424
   36.135    0.3638
   36.150    0.3531
   36.165    0.3531
   36.180    0.2354
   36.195    0.3638
   36.210    0.3745
   36.225    0.3424
   36.240    0.3745
   36.255    0.4387
   36.270    0.3959
   36.285    0.3959
   36.300    0.3959
   36.315    0.4066
   36.330    0.3531
   36.345    0.3210
   36.360    0.3959
   36.375    0.3638
   36.390    0.3210
   36.405    0.4173
   36.420    0.4066
   36.435    0.2568
   36.450    0.3424
   36.465    0.4387
   36.480    0.4066
   36.495    0.2889
   36.510    0.4066
   36.525    0.3959
   36.540    0.3852
   36.555    0.4922
   36.570    0.4173
   36.585    0.3959
   36.600    0.3852
   36.615    0.3745
   36.630    0.4601
   36.645    0.4066
   36.660    0.3103
   36.675    0.4280
   36.690    0.4387
   36.705    0.4280
   36.720    0.2996
   36.735    0.3210
   36.750    0.3852
   36.765    0.2782
   36.780    0.3531
   36.795    0.3745
   36.810    0.4173
   36.825    0.4173
   36.840    0.4387
   36.855    0.3103
   36.870    0.3959
   36.885    0.3317
   36.900    0.3959
   36.915    0.3745
   36.930    0.4280
   36.945    0.4601
   36.960    0.3959
   36.975    0.3852
   36.990    0.4387
   37.005    0.3959
   37.020    0.3745
   37.035    0.3103
   37.050    0.4173
   37.065    0.4387
   37.080    0.3959
   37.095    0.4494
   37.110    0.3852
   37.125    0.3745
   37.140    0.4494
   37.155    0.3638
   37.170    0.4173
   37.185    0.3852
   37.200    0.4601
   37.215    0.3638
   37.230    0.3103
   37.245    0.3317
   37.260    0.3424
   37.275    0.3638
   37.290    0.3959
   37.305    0.3852
   37.320    0.2996
   37.335    0.2996
   37.350    0.3317
   37.365    0.4708
   37.380    0.4494
   37.395    0.5993
   37.410    0.6421
   37.425    0.6528
   37.440    0.6421
   37.455    0.7063
   37.470    0.5778
   37.485    0.4601
   37.500    0.3959
   37.515    0.3531
   37.530    0.4066
   37.545    0.3531
   37.560    0.3210
   37.575    0.3424
   37.590    0.3531
   37.605    0.2996
   37.620    0.3745
   37.635    0.4066
   37.650    0.3210
   37.665    0.3852
   37.680    0.4173
   37.695    0.3317
   37.710    0.3210
   37.725    0.3210
   37.740    0.2996
   37.755    0.3424
   37.770    0.2675
   37.785    0.3103
   37.800    0.3317
   37.815    0.3852
   37.830    0.3103
   37.845    0.3745
   37.860    0.3103
   37.875    0.3531
   37.890    0.3424
   37.905    0.3638
   37.920    0.3317
   37.935    0.3317
   37.950    0.4280
   37.965    0.3317
   37.980    0.3745
   37.995    0.2889
   38.010    0.3210
   38.025    0.3959
   38.040    0.3531
   38.055    0.3745
   38.070    0.3638
   38.085    0.2889
   38.100    0.3852
   38.115    0.3638
   38.130    0.2889
   38.145    0.2889
   38.160    0.2782
   38.175    0.2247
   38.190    0.3531
   38.205    0.3531
   38.220    0.3638
   38.235    0.2996
   38.250    0.2675
   38.265    0.3424
   38.280    0.3103
   38.295    0.2782
   38.310    0.3103
   38.325    0.2675
   38.340    0.3424
   38.355    0.2889
   38.370    0.2996
   38.385    0.2675
   38.400    0.3210
   38.415    0.2782
   38.430    0.2782
   38.445    0.2889
   38.460    0.3103
   38.475    0.2782
   38.490    0.2675
   38.505    0.2354
   38.520    0.2889
   38.535    0.3317
   38.550    0.4173
   38.565    0.4815
   38.580    0.3638
   38.595    0.3317
   38.610    0.3317
   38.625    0.2461
   38.640    0.2675
   38.655    0.3317
   38.670    0.2996
   38.685    0.3424
   38.700    0.3317
   38.715    0.3317
   38.730    0.3103
   38.745    0.2675
   38.760    0.3745
   38.775    0.3424
   38.790    0.4280
   38.805    0.3424
   38.820    0.3317
   38.835    0.2461
   38.850    0.2033
   38.865    0.3103
   38.880    0.2675
   38.895    0.2782
   38.910    0.2889
   38.925    0.3103
   38.940    0.2354
   38.955    0.2889
   38.970    0.2889
   38.985    0.3317
   39.000    0.3317
   39.015    0.3424
   39.030    0.3317
   39.045    0.3317
   39.060    0.3103
   39.075    0.2996
   39.090    0.2568
   39.105    0.2996
   39.120    0.3317
   39.135    0.3424
   39.150    0.2247
   39.165    0.2782
   39.180    0.3103
   39.195    0.2996
   39.210    0.2782
   39.225    0.2568
   39.240    0.2461
   39.255    0.3531
   39.270    0.4173
   39.285    0.2996
   39.300    0.1926
   39.315    0.3424
   39.330    0.3424
   39.345    0.2996
   39.360    0.3531
   39.375    0.2782
   39.390    0.2889
   39.405    0.3210
   39.420    0.3852
   39.435    0.3959
   39.450    0.3959
   39.465    0.4922
   39.480    0.3745
   39.495    0.3103
   39.510    0.3424
   39.525    0.2889
   39.540    0.3638
   39.555    0.2996
   39.570    0.4494
   39.585    0.3210
   39.600    0.3745
   39.615    0.3424
   39.630    0.2996
   39.645    0.4066
   39.660    0.2889
   39.675    0.2996
   39.690    0.4066
   39.705    0.3531
   39.720    0.2782
   39.735    0.2782
   39.750    0.2354
   39.765    0.2461
   39.780    0.3424
   39.795    0.2889
   39.810    0.2675
   39.825    0.3103
   39.840    0.2461
   39.855    0.2675
   39.870    0.3210
   39.885    0.2675
   39.900    0.2675
   39.915    0.2996
   39.930    0.2354
   39.945    0.2675
   39.960    0.3210
   39.975    0.3638
   39.990    0.2996
