    1.500   11.7606
    1.515   11.7781
    1.530   11.7430
    1.545   11.6202
    1.560   10.6723
    1.575   10.8478
    1.590   10.6547
    1.605   10.9180
    1.620   10.4441
    1.635    9.7420
    1.650    9.8824
    1.665   10.0404
    1.680   10.0579
    1.695    9.9175
    1.710    9.7595
    1.725    9.8297
    1.740    9.2329
    1.755    9.1452
    1.770    9.3031
    1.785    8.6888
    1.800    9.0398
    1.815    9.4260
    1.830    8.4606
    1.845    8.8994
    1.860    8.4430
    1.875    9.0047
    1.890    8.4781
    1.905    8.7765
    1.920    8.5308
    1.935    9.0047
    1.950    8.4430
    1.965    8.1271
    1.980    8.4430
    1.995    7.8462
    2.010    8.1797
    2.025    8.0393
    2.040    7.8638
    2.055    8.2500
    2.070    7.9164
    2.085    7.9340
    2.100    8.0042
    2.115    8.5308
    2.130    7.9867
    2.145    7.3021
    2.160    7.4250
    2.175    7.4074
    2.190    7.4250
    2.205    7.7936
    2.220    7.4074
    2.235    7.5127
    2.250    6.9335
    2.265    7.0739
    2.280    8.0569
    2.295    7.4250
    2.310    7.1266
    2.325    7.0212
    2.340    7.0212
    2.355    6.7579
    2.370    7.6883
    2.385    7.4601
    2.400    6.9159
    2.415    7.3196
    2.430    7.1968
    2.445    7.6532
    2.460    7.8813
    2.475    7.6005
    2.490    7.3547
    2.505    7.5829
    2.520    7.1266
    2.535    6.7930
    2.550    6.8808
    2.565    7.4074
    2.580    7.2143
    2.595    7.5303
    2.610    7.5478
    2.625    7.0915
    2.640    7.3372
    2.655    7.3196
    2.670    7.3547
    2.685    7.2845
    2.700    7.3547
    2.715    7.2494
    2.730    7.4074
    2.745    7.4074
    2.760    7.2494
    2.775    7.5478
    2.790    8.1622
    2.805    7.1968
    2.820    7.5303
    2.835    8.1446
    2.850    7.8111
    2.865    7.7409
    2.880    8.1973
    2.895    7.7409
    2.910    7.8989
    2.925    8.1797
    2.940    7.6356
    2.955    8.3728
    2.970    8.0218
    2.985    7.5127
    3.000    8.1271
    3.015    8.2500
    3.030    8.3728
    3.045    8.7239
    3.060    8.6712
    3.075    9.0223
    3.090    9.0574
    3.105    8.8819
    3.120    8.4606
    3.135    9.1101
    3.150    9.4436
    3.165    9.4787
    3.180    9.5489
    3.195    9.5313
    3.210    9.7069
    3.225    9.3382
    3.240    9.6718
    3.255    9.7771
    3.270   10.3914
    3.285   10.3563
    3.300   10.6898
    3.315   10.5494
    3.330   10.7776
    3.345   10.8654
    3.360   11.4973
    3.375   11.6377
    3.390   11.4095
    3.405   12.0765
    3.420   12.4451
    3.435   12.7787
    3.450   13.4106
    3.465   13.0771
    3.480   12.6909
    3.495   13.0068
    3.510   13.9723
    3.525   13.7090
    3.540   14.1302
    3.555   14.9026
    3.570   15.8856
    3.585   15.9909
    3.600   16.5175
    3.615   16.6930
    3.630   17.0792
    3.645   18.7116
    3.660   19.0276
    3.675   19.7472
    3.690   20.5020
    3.705   21.5903
    3.720   22.0467
    3.735   23.9249
    3.750   26.6105
    3.765   28.9626
    3.780   30.1913
    3.795   34.5972
    3.810   37.5987
    3.825   40.7232
    3.840   41.9695
    3.855   38.9854
    3.870   33.4562
    3.885   26.5929
    3.900   20.1334
    3.915   15.0957
    3.930   12.8840
    3.945   10.9180
    3.960    9.1627
    3.975    8.6888
    3.990    7.9164
    4.005    7.4952
    4.020    7.3372
    4.035    7.4425
    4.050    6.7755
    4.065    6.9335
    4.080    7.0037
    4.095    7.2143
    4.110    6.5473
    4.125    7.4425
    4.140    6.8984
    4.155    6.2665
    4.170    6.5824
    4.185    6.3542
    4.200    6.6175
    4.215    6.6702
    4.230    5.9856
    4.245    6.0032
    4.260    6.8633
    4.275    6.6000
    4.290    6.5122
    4.305    6.4420
    4.320    6.4771
    4.335    6.0032
    4.350    5.9681
    4.365    6.1787
    4.380    6.2665
    4.395    6.3367
    4.410    5.7574
    4.425    6.2665
    4.440    6.4069
    4.455    6.0558
    4.470    6.1787
    4.485    6.0734
    4.500    5.8978
    4.515    5.7574
    4.530    5.5117
    4.545    5.8276
    4.560    5.8627
    4.575    6.0558
    4.590    5.8452
    4.605    6.0734
    4.620    6.2665
    4.635    6.1436
    4.650    5.8978
    4.665    5.8627
    4.680    6.0558
    4.695    5.8276
    4.710    6.1260
    4.725    6.1962
    4.740    6.0734
    4.755    5.8803
    4.770    6.5122
    4.785    6.6526
    4.800    6.1260
    4.815    5.8978
    4.830    5.6345
    4.845    6.1962
    4.860    6.2138
    4.875    6.5298
    4.890    5.8978
    4.905    6.2313
    4.920    5.6345
    4.935    5.9154
    4.950    5.7048
    4.965    5.8803
    4.980    5.7048
    4.995    5.7750
    5.010    6.3016
    5.025    6.2840
    5.040    5.5819
    5.055    6.2489
    5.070    5.8452
    5.085    5.9681
    5.100    6.3016
    5.115    5.5819
    5.130    6.2138
    5.145    6.8106
    5.160    6.4420
    5.175    6.3367
    5.190    6.4595
    5.205    6.0383
    5.220    6.1260
    5.235    6.1787
    5.250    6.6000
    5.265    6.8282
    5.280    6.9159
    5.295    6.7930
    5.310    7.1968
    5.325    7.4250
    5.340    7.4425
    5.355    7.0739
    5.370    7.5829
    5.385    7.6883
    5.400    8.2149
    5.415    8.7063
    5.430    8.7239
    5.445    8.2675
    5.460    8.7063
    5.475    8.7414
    5.490    7.9340
    5.505    7.6356
    5.520    7.4074
    5.535    6.7579
    5.550    6.2313
    5.565    6.0207
    5.580    5.8101
    5.595    5.8627
    5.610    5.6872
    5.625    5.7750
    5.640    5.9329
    5.655    5.7925
    5.670    5.4064
    5.685    5.7574
    5.700    5.8101
    5.715    5.7574
    5.730    5.4064
    5.745    5.4766
    5.760    5.7399
    5.775    5.4415
    5.790    5.6697
    5.805    5.7925
    5.820    5.6345
    5.835    5.6170
    5.850    5.3537
    5.865    5.6872
    5.880    6.0032
    5.895    6.2840
    5.910    5.5292
    5.925    5.5643
    5.940    5.5643
    5.955    5.2659
    5.970    5.6345
    5.985    5.7750
    6.000    6.1260
    6.015    6.2138
    6.030    5.3888
    6.045    5.7925
    6.060    5.7574
    6.075    5.8276
    6.090    5.4415
    6.105    5.5819
    6.120    5.9681
    6.135    5.4941
    6.150    5.1606
    6.165    5.3712
    6.180    5.5468
    6.195    5.3010
    6.210    5.6521
    6.225    5.4064
    6.240    5.7223
    6.255    5.7399
    6.270    5.7925
    6.285    5.8978
    6.300    6.1260
    6.315    5.7925
    6.330    5.7223
    6.345    5.7750
    6.360    5.5292
    6.375    5.5643
    6.390    5.6521
    6.405    5.9681
    6.420    6.0909
    6.435    5.9681
    6.450    5.5819
    6.465    5.8452
    6.480    5.6345
    6.495    5.7223
    6.510    5.7574
    6.525    6.6351
    6.540    6.1962
    6.555    6.3367
    6.570    5.8627
    6.585    6.2489
    6.600    6.1787
    6.615    6.0032
    6.630    6.0207
    6.645    6.4420
    6.660    6.6351
    6.675    6.0032
    6.690    6.2138
    6.705    5.9154
    6.720    6.6000
    6.735    6.7228
    6.750    6.0909
    6.765    6.3367
    6.780    6.0383
    6.795    5.9505
    6.810    6.1611
    6.825    5.6697
    6.840    5.5292
    6.855    5.6697
    6.870    6.0558
    6.885    6.4946
    6.900    6.5824
    6.915    5.7925
    6.930    5.7750
    6.945    5.8803
    6.960    6.0909
    6.975    6.6526
    6.990    6.0734
    7.005    6.0734
    7.020    5.8803
    7.035    5.7574
    7.050    5.9856
    7.065    6.1085
    7.080    6.1611
    7.095    6.1260
    7.110    5.9154
    7.125    6.3367
    7.140    6.2840
    7.155    6.3367
    7.170    6.2138
    7.185    6.6000
    7.200    5.7399
    7.215    6.1260
    7.230    5.3186
    7.245    6.1611
    7.260    5.6697
    7.275    5.6872
    7.290    5.8627
    7.305    5.8803
    7.320    5.6872
    7.335    6.4595
    7.350    6.1436
    7.365    6.0032
    7.380    5.9505
    7.395    5.9505
    7.410    6.0558
    7.425    6.0909
    7.440    6.2665
    7.455    6.2840
    7.470    6.2665
    7.485    6.1611
    7.500    5.9329
    7.515    6.4069
    7.530    6.4946
    7.545    6.7404
    7.560    6.6877
    7.575    6.5473
    7.590    6.2665
    7.605    6.5122
    7.620    6.8282
    7.635    6.5824
    7.650    6.6702
    7.665    7.0915
    7.680    7.3372
    7.695    6.8282
    7.710    7.3372
    7.725    7.2670
    7.740    7.2845
    7.755    7.8989
    7.770    8.2851
    7.785    7.3372
    7.800    7.3021
    7.815    7.0212
    7.830    6.3191
    7.845    6.3016
    7.860    6.1962
    7.875    6.3016
    7.890    6.5298
    7.905    6.8633
    7.920    6.2840
    7.935    6.1962
    7.950    6.3367
    7.965    6.3367
    7.980    6.3718
    7.995    5.9681
    8.010    6.1787
    8.025    5.7048
    8.040    5.8101
    8.055    6.2840
    8.070    6.1260
    8.085    6.1787
    8.100    6.2489
    8.115    6.0734
    8.130    6.6526
    8.145    6.3367
    8.160    5.9681
    8.175    5.8627
    8.190    5.7048
    8.205    6.0032
    8.220    6.6526
    8.235    6.3367
    8.250    6.3893
    8.265    6.1962
    8.280    6.4771
    8.295    5.9505
    8.310    5.8276
    8.325    6.0734
    8.340    6.3718
    8.355    5.8276
    8.370    6.2489
    8.385    6.5824
    8.400    6.7228
    8.415    6.3367
    8.430    5.8276
    8.445    5.7925
    8.460    6.3718
    8.475    6.2489
    8.490    6.1436
    8.505    6.3718
    8.520    6.5649
    8.535    6.2665
    8.550    6.1962
    8.565    6.3016
    8.580    6.3367
    8.595    6.3016
    8.610    6.3542
    8.625    7.0037
    8.640    6.7228
    8.655    6.6351
    8.670    6.4595
    8.685    6.9686
    8.700    6.5298
    8.715    6.3016
    8.730    6.8457
    8.745    6.4595
    8.760    6.4946
    8.775    6.4771
    8.790    6.3016
    8.805    6.7404
    8.820    6.2138
    8.835    6.2489
    8.850    6.2489
    8.865    6.4946
    8.880    6.8106
    8.895    6.6526
    8.910    6.6351
    8.925    7.0388
    8.940    6.7755
    8.955    6.9686
    8.970    7.0388
    8.985    6.9159
    9.000    6.2665
    9.015    7.0212
    9.030    6.8282
    9.045    6.7053
    9.060    6.4244
    9.075    6.5298
    9.090    6.9159
    9.105    7.3021
    9.120    6.8282
    9.135    6.3718
    9.150    6.2313
    9.165    6.5122
    9.180    6.6175
    9.195    6.4595
    9.210    6.4595
    9.225    6.7053
    9.240    6.4244
    9.255    6.8282
    9.270    7.0037
    9.285    6.9159
    9.300    7.0212
    9.315    6.7930
    9.330    7.0388
    9.345    7.4601
    9.360    7.6005
    9.375    7.0388
    9.390    6.6702
    9.405    7.5654
    9.420    7.0915
    9.435    7.9867
    9.450    7.9516
    9.465    8.4957
    9.480    7.9516
    9.495    8.6186
    9.510    8.6712
    9.525    8.5835
    9.540    8.3553
    9.555    8.3728
    9.570    8.0744
    9.585    7.4776
    9.600    8.0042
    9.615    7.5654
    9.630    6.9510
    9.645    7.4952
    9.660    7.3899
    9.675    7.1792
    9.690    7.1617
    9.705    6.9159
    9.720    6.6702
    9.735    6.6000
    9.750    6.7579
    9.765    7.0212
    9.780    6.4946
    9.795    6.6175
    9.810    7.2143
    9.825    7.1617
    9.840    7.0388
    9.855    7.2670
    9.870    7.0739
    9.885    6.7404
    9.900    6.6702
    9.915    6.7053
    9.930    7.1617
    9.945    7.0739
    9.960    7.2319
    9.975    7.0388
    9.990    7.0212
   10.005    6.6877
   10.020    6.8984
   10.035    7.0037
   10.050    6.7404
   10.065    7.3372
   10.080    6.8457
   10.095    7.0739
   10.110    6.9510
   10.125    7.3021
   10.140    6.8808
   10.155    6.7930
   10.170    7.2143
   10.185    6.9861
   10.200    7.3372
   10.215    7.1617
   10.230    7.5127
   10.245    7.8287
   10.260    7.4425
   10.275    8.1095
   10.290    7.7760
   10.305    7.7585
   10.320    7.1968
   10.335    7.5829
   10.350    6.9861
   10.365    6.7579
   10.380    7.1266
   10.395    7.2143
   10.410    6.6877
   10.425    6.9686
   10.440    7.1266
   10.455    7.2319
   10.470    7.0915
   10.485    7.1266
   10.500    6.7579
   10.515    7.3021
   10.530    7.1266
   10.545    7.0037
   10.560    7.2670
   10.575    7.0212
   10.590    6.9159
   10.605    6.9510
   10.620    6.7228
   10.635    6.7579
   10.650    6.7404
   10.665    6.7755
   10.680    6.6351
   10.695    6.1085
   10.710    6.6351
   10.725    6.3718
   10.740    6.4946
   10.755    7.0037
   10.770    6.8282
   10.785    6.8984
   10.800    7.0388
   10.815    6.5122
   10.830    6.4946
   10.845    6.5298
   10.860    7.1968
   10.875    6.5473
   10.890    6.7579
   10.905    6.9335
   10.920    6.8106
   10.935    7.5654
   10.950    7.4776
   10.965    7.4601
   10.980    7.2845
   10.995    7.4425
   11.010    7.7585
   11.025    7.4074
   11.040    7.0037
   11.055    7.3021
   11.070    7.0739
   11.085    6.8282
   11.100    6.6702
   11.115    6.6702
   11.130    6.3191
   11.145    6.5824
   11.160    6.3718
   11.175    6.3542
   11.190    6.3718
   11.205    6.7404
   11.220    6.3016
   11.235    6.0558
   11.250    6.3367
   11.265    6.3893
   11.280    6.5298
   11.295    6.4595
   11.310    6.4420
   11.325    6.8808
   11.340    6.5824
   11.355    6.6351
   11.370    6.5824
   11.385    6.3542
   11.400    6.9510
   11.415    6.6702
   11.430    6.7579
   11.445    6.5824
   11.460    7.0563
   11.475    6.8106
   11.490    6.3893
   11.505    6.5122
   11.520    6.7053
   11.535    6.3191
   11.550    6.1787
   11.565    6.3367
   11.580    6.8282
   11.595    6.5473
   11.610    6.7930
   11.625    7.3723
   11.640    7.2143
   11.655    7.0037
   11.670    7.1266
   11.685    7.2845
   11.700    6.9510
   11.715    6.7755
   11.730    6.4771
   11.745    6.5824
   11.760    6.5122
   11.775    6.4244
   11.790    6.5649
   11.805    6.5473
   11.820    6.3718
   11.835    6.1260
   11.850    6.0383
   11.865    5.8101
   11.880    5.8276
   11.895    5.9681
   11.910    6.2313
   11.925    6.1436
   11.940    6.4771
   11.955    6.1611
   11.970    5.9154
   11.985    6.1436
   12.000    6.3367
   12.015    6.1787
   12.030    6.6000
   12.045    6.2138
   12.060    6.3367
   12.075    6.0734
   12.090    6.4244
   12.105    6.7755
   12.120    6.5122
   12.135    6.2840
   12.150    5.6872
   12.165    6.1260
   12.180    6.0909
   12.195    6.0383
   12.210    5.8276
   12.225    6.0383
   12.240    6.0734
   12.255    6.1085
   12.270    5.8627
   12.285    6.0383
   12.300    6.4420
   12.315    6.0383
   12.330    6.3016
   12.345    5.8803
   12.360    6.1787
   12.375    6.1436
   12.390    5.7048
   12.405    6.0383
   12.420    6.6526
   12.435    6.0909
   12.450    5.7223
   12.465    6.1436
   12.480    6.0032
   12.495    5.7223
   12.510    6.3542
   12.525    6.1962
   12.540    6.2665
   12.555    6.1085
   12.570    5.6872
   12.585    5.5819
   12.600    5.7925
   12.615    5.5292
   12.630    6.1436
   12.645    6.2313
   12.660    6.3367
   12.675    5.7574
   12.690    5.7223
   12.705    5.6345
   12.720    6.0207
   12.735    5.7750
   12.750    5.7750
   12.765    5.7048
   12.780    5.8978
   12.795    5.8803
   12.810    6.0909
   12.825    5.5994
   12.840    5.7399
   12.855    6.0207
   12.870    6.5298
   12.885    6.0558
   12.900    6.3893
   12.915    6.2313
   12.930    6.3016
   12.945    6.3718
   12.960    6.0383
   12.975    6.0734
   12.990    6.1962
   13.005    6.3367
   13.020    5.9856
   13.035    6.1260
   13.050    5.3186
   13.065    5.4415
   13.080    5.9154
   13.095    6.2665
   13.110    6.4420
   13.125    5.6697
   13.140    5.6170
   13.155    5.9505
   13.170    6.3016
   13.185    6.0734
   13.200    6.1611
   13.215    5.8101
   13.230    5.5643
   13.245    5.0377
   13.260    5.8627
   13.275    5.3712
   13.290    5.6521
   13.305    5.9505
   13.320    5.5292
   13.335    5.4941
   13.350    5.6872
   13.365    5.8803
   13.380    5.8101
   13.395    5.5292
   13.410    5.9856
   13.425    6.2489
   13.440    5.9856
   13.455    5.8803
   13.470    6.2138
   13.485    5.9681
   13.500    5.8627
   13.515    5.9329
   13.530    5.9856
   13.545    6.0207
   13.560    5.9681
   13.575    5.8276
   13.590    5.7750
   13.605    5.4064
   13.620    5.8101
   13.635    6.1611
   13.650    5.9681
   13.665    6.1436
   13.680    5.8101
   13.695    5.8452
   13.710    6.0734
   13.725    5.9856
   13.740    5.7223
   13.755    5.7925
   13.770    6.4946
   13.785    5.4941
   13.800    5.5994
   13.815    5.7223
   13.830    5.7925
   13.845    6.0383
   13.860    5.8452
   13.875    5.5292
   13.890    5.6170
   13.905    6.0032
   13.920    5.5292
   13.935    5.8627
   13.950    5.9505
   13.965    5.3888
   13.980    5.6872
   13.995    6.1962
   14.010    5.9329
   14.025    6.0909
   14.040    6.1085
   14.055    6.1436
   14.070    5.9329
   14.085    6.7053
   14.100    6.1260
   14.115    5.7223
   14.130    6.0383
   14.145    6.2489
   14.160    6.0734
   14.175    5.5643
   14.190    5.4064
   14.205    5.4941
   14.220    5.6170
   14.235    6.0558
   14.250    6.0558
   14.265    6.4420
   14.280    6.1611
   14.295    5.8276
   14.310    5.7223
   14.325    5.2835
   14.340    5.7574
   14.355    5.7223
   14.370    5.9681
   14.385    6.0558
   14.400    5.9154
   14.415    5.5292
   14.430    6.1260
   14.445    5.7750
   14.460    5.5117
   14.475    5.5994
   14.490    6.3016
   14.505    5.7925
   14.520    5.9681
   14.535    6.1787
   14.550    5.7574
   14.565    5.7223
   14.580    5.8452
   14.595    5.6170
   14.610    5.6521
   14.625    6.1436
   14.640    5.7574
   14.655    5.5117
   14.670    5.3010
   14.685    5.3712
   14.700    6.2840
   14.715    5.9505
   14.730    5.6697
   14.745    5.9154
   14.760    5.6345
   14.775    6.0032
   14.790    5.8803
   14.805    5.7399
   14.820    5.5117
   14.835    5.8978
   14.850    5.4064
   14.865    5.5292
   14.880    5.9329
   14.895    5.7223
   14.910    5.8978
   14.925    5.5292
   14.940    5.7399
   14.955    5.4941
   14.970    5.5819
   14.985    5.7574
   15.000    6.0734
   15.015    5.8276
   15.030    5.5292
   15.045    5.6345
   15.060    6.1260
   15.075    5.8101
   15.090    5.7399
   15.105    5.9681
   15.120    5.8101
   15.135    6.1962
   15.150    5.8276
   15.165    5.4941
   15.180    5.5819
   15.195    6.0207
   15.210    5.5643
   15.225    5.6170
   15.240    5.4590
   15.255    5.3888
   15.270    5.2835
   15.285    5.6872
   15.300    5.8978
   15.315    6.2665
   15.330    6.1085
   15.345    5.6170
   15.360    5.4064
   15.375    5.5643
   15.390    5.7574
   15.405    5.6345
   15.420    5.6872
   15.435    5.8803
   15.450    5.4239
   15.465    5.5117
   15.480    5.6521
   15.495    5.5643
   15.510    5.7925
   15.525    5.7223
   15.540    6.0032
   15.555    5.7750
   15.570    5.7048
   15.585    6.0558
   15.600    5.4590
   15.615    5.7750
   15.630    5.6170
   15.645    5.5117
   15.660    5.3361
   15.675    5.5468
   15.690    6.0207
   15.705    5.5117
   15.720    6.1260
   15.735    5.7574
   15.750    5.9154
   15.765    6.4420
   15.780    5.8803
   15.795    5.4064
   15.810    5.8276
   15.825    6.2313
   15.840    5.3712
   15.855    5.6345
   15.870    6.1085
   15.885    5.3186
   15.900    5.8101
   15.915    5.7574
   15.930    5.7574
   15.945    5.6872
   15.960    5.5643
   15.975    5.7399
   15.990    5.9681
   16.005    5.8452
   16.020    5.5819
   16.035    6.0909
   16.050    5.7925
   16.065    5.8803
   16.080    5.7223
   16.095    5.7223
   16.110    5.8101
   16.125    5.6521
   16.140    5.6697
   16.155    6.0909
   16.170    5.9154
   16.185    6.0558
   16.200    5.9856
   16.215    5.8803
   16.230    5.6872
   16.245    5.5819
   16.260    5.9329
   16.275    6.1962
   16.290    5.4766
   16.305    5.4766
   16.320    5.7925
   16.335    5.6170
   16.350    5.4941
   16.365    5.6872
   16.380    5.8276
   16.395    5.5819
   16.410    5.5994
   16.425    5.8978
   16.440    5.9856
   16.455    5.8452
   16.470    5.7925
   16.485    6.0558
   16.500    5.7925
   16.515    6.2489
   16.530    6.4771
   16.545    6.0734
   16.560    5.9505
   16.575    5.8452
   16.590    5.6345
   16.605    5.9154
   16.620    5.8452
   16.635    5.9681
   16.650    6.1085
   16.665    6.0383
   16.680    6.0032
   16.695    6.1962
   16.710    5.5292
   16.725    5.2308
   16.740    5.7574
   16.755    6.0032
   16.770    5.8101
   16.785    5.8276
   16.800    5.7223
   16.815    5.4415
   16.830    5.6697
   16.845    6.0383
   16.860    6.1260
   16.875    5.7223
   16.890    5.7925
   16.905    5.8627
   16.920    5.8276
   16.935    6.4069
   16.950    5.7223
   16.965    6.2840
   16.980    6.0909
   16.995    6.0734
   17.010    5.9856
   17.025    6.5649
   17.040    6.5122
   17.055    5.8452
   17.070    6.0558
   17.085    5.9505
   17.100    5.9154
   17.115    6.2489
   17.130    5.8627
   17.145    6.2665
   17.160    5.8978
   17.175    5.8978
   17.190    6.1085
   17.205    6.0734
   17.220    5.9505
   17.235    5.5468
   17.250    5.8276
   17.265    5.7750
   17.280    5.9154
   17.295    6.3016
   17.310    5.8803
   17.325    5.9505
   17.340    6.0032
   17.355    5.8627
   17.370    5.9856
   17.385    5.9154
   17.400    5.8452
   17.415    5.9856
   17.430    5.8101
   17.445    5.7574
   17.460    5.6521
   17.475    5.6345
   17.490    5.7223
   17.505    5.4766
   17.520    5.4941
   17.535    5.5292
   17.550    5.3888
   17.565    5.9505
   17.580    5.7399
   17.595    5.3712
   17.610    5.3537
   17.625    5.7574
   17.640    5.9681
   17.655    6.3893
   17.670    5.8276
   17.685    5.7750
   17.700    5.9329
   17.715    6.3718
   17.730    5.8101
   17.745    5.6521
   17.760    5.7925
   17.775    5.8276
   17.790    5.5468
   17.805    5.7399
   17.820    6.3367
   17.835    5.8803
   17.850    5.7750
   17.865    5.3888
   17.880    5.8276
   17.895    6.0032
   17.910    5.7925
   17.925    6.1962
   17.940    6.5824
   17.955    6.0383
   17.970    6.2138
   17.985    5.6697
   18.000    5.5468
   18.015    6.0383
   18.030    5.6872
   18.045    5.8276
   18.060    5.7223
   18.075    6.0909
   18.090    6.3367
   18.105    6.1260
   18.120    5.8803
   18.135    6.0032
   18.150    5.3537
   18.165    5.1606
   18.180    5.0377
   18.195    5.7925
   18.210    6.1260
   18.225    5.3888
   18.240    5.9681
   18.255    5.3888
   18.270    5.4766
   18.285    6.0032
   18.300    5.7750
   18.315    5.8978
   18.330    5.7574
   18.345    5.9681
   18.360    5.5819
   18.375    6.0383
   18.390    6.1085
   18.405    5.8452
   18.420    6.1436
   18.435    5.9505
   18.450    5.4766
   18.465    5.6872
   18.480    5.2484
   18.495    5.8101
   18.510    6.0734
   18.525    5.9505
   18.540    5.7223
   18.555    6.0383
   18.570    5.5819
   18.585    5.7925
   18.600    5.9505
   18.615    5.8101
   18.630    5.8803
   18.645    5.8627
   18.660    5.7048
   18.675    5.4239
   18.690    5.8452
   18.705    6.0909
   18.720    6.1085
   18.735    5.8803
   18.750    6.0032
   18.765    5.7399
   18.780    5.8978
   18.795    6.0207
   18.810    6.0909
   18.825    5.9505
   18.840    6.1962
   18.855    6.4069
   18.870    5.5468
   18.885    5.6521
   18.900    5.8276
   18.915    6.0032
   18.930    5.6697
   18.945    5.5117
   18.960    6.0383
   18.975    6.3893
   18.990    5.7399
   19.005    6.3718
   19.020    6.0032
   19.035    6.1260
   19.050    5.9681
   19.065    6.0032
   19.080    6.1436
   19.095    5.8627
   19.110    5.9505
   19.125    5.7925
   19.140    5.7223
   19.155    6.0383
   19.170    5.9329
   19.185    6.0558
   19.200    5.6170
   19.215    5.8627
   19.230    5.6872
   19.245    5.9505
   19.260    5.9154
   19.275    5.8627
   19.290    6.0207
   19.305    6.0207
   19.320    6.1611
   19.335    5.7223
   19.350    5.5819
   19.365    5.7399
   19.380    5.7048
   19.395    5.9329
   19.410    6.1260
   19.425    5.9505
   19.440    5.8276
   19.455    5.7574
   19.470    5.5819
   19.485    5.9505
   19.500    6.0909
   19.515    6.1611
   19.530    6.0207
   19.545    5.7574
   19.560    5.8101
   19.575    6.2313
   19.590    6.0734
   19.605    6.3893
   19.620    6.3542
   19.635    6.3893
   19.650    6.1611
   19.665    6.1260
   19.680    6.2489
   19.695    6.1085
   19.710    5.9154
   19.725    6.3718
   19.740    5.9329
   19.755    5.9681
   19.770    5.4766
   19.785    5.7750
   19.800    5.8627
   19.815    6.2489
   19.830    6.0909
   19.845    6.0558
   19.860    6.2840
   19.875    5.8101
   19.890    6.0909
   19.905    6.1260
   19.920    6.0207
   19.935    5.8101
   19.950    6.1787
   19.965    5.9856
   19.980    5.3888
   19.995    5.9505
   20.010    5.6872
   20.025    5.7750
   20.040    5.7750
   20.055    5.9505
   20.070    5.5643
   20.085    6.1085
   20.100    5.8978
   20.115    6.0558
   20.130    6.1962
   20.145    5.9856
   20.160    5.7048
   20.175    6.1436
   20.190    5.9329
   20.205    5.8627
   20.220    6.3016
   20.235    6.1787
   20.250    6.2313
   20.265    6.3016
   20.280    5.9329
   20.295    6.4069
   20.310    6.4595
   20.325    5.7574
   20.340    6.4069
   20.355    6.0032
   20.370    6.5473
   20.385    6.5298
   20.400    6.0558
   20.415    6.4069
   20.430    6.5473
   20.445    5.8627
   20.460    5.7399
   20.475    5.8452
   20.490    5.7925
   20.505    6.0207
   20.520    6.3367
   20.535    6.3718
   20.550    5.9856
   20.565    6.2840
   20.580    6.3367
   20.595    6.0383
   20.610    5.7750
   20.625    5.8276
   20.640    6.1436
   20.655    6.2138
   20.670    6.0032
   20.685    5.7574
   20.700    6.3367
   20.715    6.1436
   20.730    6.1085
   20.745    5.6170
   20.760    5.4415
   20.775    5.8803
   20.790    6.1085
   20.805    5.4590
   20.820    5.4239
   20.835    5.3712
   20.850    5.8101
   20.865    5.8978
   20.880    5.6345
   20.895    5.2484
   20.910    5.9505
   20.925    6.0207
   20.940    5.9681
   20.955    5.9329
   20.970    5.8978
   20.985    6.2665
   21.000    5.8627
   21.015    6.1611
   21.030    6.0383
   21.045    6.2840
   21.060    6.1260
   21.075    5.8627
   21.090    5.7574
   21.105    5.8627
   21.120    5.9681
   21.135    6.0734
   21.150    6.2840
   21.165    6.0734
   21.180    5.7399
   21.195    6.0909
   21.210    5.8452
   21.225    6.3016
   21.240    6.0734
   21.255    6.2489
   21.270    6.4244
   21.285    6.4595
   21.300    6.1436
   21.315    6.1436
   21.330    5.9505
   21.345    6.2313
   21.360    6.3718
   21.375    5.8627
   21.390    6.3893
   21.405    6.5298
   21.420    6.4244
   21.435    6.3542
   21.450    6.0734
   21.465    5.9154
   21.480    5.8276
   21.495    5.8978
   21.510    5.9856
   21.525    5.7574
   21.540    5.9154
   21.555    6.8457
   21.570    5.9329
   21.585    6.4069
   21.600    6.1436
   21.615    6.4420
   21.630    6.2665
   21.645    6.3016
   21.660    6.4069
   21.675    6.1085
   21.690    5.8803
   21.705    6.5649
   21.720    6.4946
   21.735    6.3718
   21.750    6.1260
   21.765    6.0383
   21.780    6.0032
   21.795    6.1962
   21.810    6.5122
   21.825    6.5122
   21.840    6.5824
   21.855    6.5473
   21.870    6.3542
   21.885    6.5298
   21.900    6.6526
   21.915    6.1787
   21.930    6.0909
   21.945    6.2489
   21.960    6.3367
   21.975    6.1436
   21.990    6.2665
   22.005    6.4244
   22.020    6.1611
   22.035    5.8978
   22.050    6.6702
   22.065    6.1260
   22.080    6.1260
   22.095    6.3016
   22.110    6.3718
   22.125    6.2138
   22.140    6.2138
   22.155    6.4244
   22.170    6.6000
   22.185    6.2489
   22.200    5.9154
   22.215    5.5468
   22.230    6.2138
   22.245    6.5649
   22.260    6.2665
   22.275    6.2313
   22.290    6.2840
   22.305    7.1617
   22.320    6.6877
   22.335    6.5473
   22.350    6.6175
   22.365    6.0207
   22.380    5.9505
   22.395    5.8978
   22.410    6.7404
   22.425    6.1085
   22.440    6.1260
   22.455    6.4069
   22.470    6.6351
   22.485    6.7755
   22.500    7.2319
   22.515    6.6702
   22.530    6.1085
   22.545    6.6351
   22.560    6.8808
   22.575    6.5473
   22.590    6.1962
   22.605    6.3542
   22.620    6.2138
   22.635    6.0032
   22.650    6.5473
   22.665    6.6877
   22.680    6.2313
   22.695    6.3542
   22.710    6.2489
   22.725    6.4595
   22.740    6.6175
   22.755    6.4771
   22.770    6.4244
   22.785    5.9329
   22.800    6.2840
   22.815    6.6877
   22.830    6.2665
   22.845    6.7404
   22.860    6.9335
   22.875    6.4420
   22.890    6.3191
   22.905    6.5473
   22.920    7.1968
   22.935    6.8633
   22.950    6.6877
   22.965    6.3191
   22.980    6.4595
   22.995    6.7228
   23.010    6.6000
   23.025    6.2489
   23.040    5.7048
   23.055    6.4946
   23.070    6.5122
   23.085    6.2665
   23.100    6.2665
   23.115    5.8803
   23.130    6.2138
   23.145    6.6877
   23.160    6.0909
   23.175    6.2489
   23.190    6.6175
   23.205    6.4420
   23.220    6.6175
   23.235    6.0734
   23.250    5.9329
   23.265    6.2840
   23.280    6.3718
   23.295    6.1085
   23.310    5.8276
   23.325    6.3191
   23.340    6.5122
   23.355    6.1260
   23.370    5.8803
   23.385    5.9154
   23.400    6.3718
   23.415    6.2138
   23.430    6.4771
   23.445    5.8978
   23.460    6.6175
   23.475    6.9686
   23.490    6.0032
   23.505    6.3016
   23.520    6.0207
   23.535    6.5122
   23.550    6.7228
   23.565    6.4069
   23.580    6.3718
   23.595    5.9856
   23.610    6.2138
   23.625    6.3367
   23.640    6.5473
   23.655    6.0558
   23.670    6.1436
   23.685    6.2313
   23.700    6.0558
   23.715    5.7048
   23.730    6.1962
   23.745    6.6000
   23.760    5.8627
   23.775    6.3191
   23.790    6.1085
   23.805    5.9154
   23.820    6.1962
   23.835    6.1611
   23.850    6.0207
   23.865    6.1436
   23.880    6.4069
   23.895    6.9686
   23.910    5.5468
   23.925    6.4595
   23.940    6.1611
   23.955    5.3888
   23.970    5.8101
   23.985    5.9856
   24.000    6.1787
   24.015    5.9681
   24.030    5.8276
   24.045    6.2665
   24.060    5.9856
   24.075    5.9856
   24.090    5.7925
   24.105    6.3016
   24.120    6.0558
   24.135    5.9505
   24.150    5.9329
   24.165    6.0383
   24.180    5.8803
   24.195    5.9505
   24.210    6.5122
   24.225    5.9856
   24.240    6.5122
   24.255    6.1962
   24.270    5.8452
   24.285    6.0207
   24.300    6.5122
   24.315    6.3016
   24.330    6.1611
   24.345    5.8978
   24.360    5.7925
   24.375    5.7750
   24.390    5.8101
   24.405    5.9856
   24.420    6.3016
   24.435    6.1085
   24.450    6.1611
   24.465    6.1085
   24.480    5.5819
   24.495    5.7048
   24.510    6.0207
   24.525    6.0909
   24.540    5.9681
   24.555    6.4595
   24.570    6.2489
   24.585    6.2840
   24.600    6.2840
   24.615    6.4946
   24.630    6.1085
   24.645    6.2313
   24.660    6.1787
   24.675    6.0734
   24.690    5.8803
   24.705    6.2313
   24.720    6.2665
   24.735    6.0207
   24.750    6.4420
   24.765    6.3542
   24.780    6.3016
   24.795    6.5473
   24.810    6.0032
   24.825    6.2489
   24.840    6.3016
   24.855    5.7925
   24.870    5.7574
   24.885    5.8276
   24.900    5.9329
   24.915    6.1436
   24.930    5.8978
   24.945    6.2313
   24.960    6.0909
   24.975    5.9329
   24.990    6.0032
   25.005    5.8627
   25.020    6.1260
   25.035    6.5473
   25.050    5.9154
   25.065    5.7048
   25.080    6.1436
   25.095    5.8276
   25.110    6.0032
   25.125    5.5292
   25.140    6.1436
   25.155    6.0032
   25.170    6.0032
   25.185    6.0909
   25.200    5.8276
   25.215    6.0558
   25.230    6.0909
   25.245    6.5122
   25.260    5.8101
   25.275    5.8101
   25.290    5.8978
   25.305    6.1436
   25.320    6.0032
   25.335    6.0558
   25.350    6.1787
   25.365    6.4244
   25.380    6.2840
   25.395    5.7925
   25.410    5.6872
   25.425    5.7750
   25.440    6.0383
   25.455    6.3542
   25.470    6.1962
   25.485    5.9329
   25.500    6.1787
   25.515    6.6000
   25.530    6.5122
   25.545    6.5824
   25.560    5.8978
   25.575    5.9856
   25.590    5.9505
   25.605    6.1436
   25.620    5.9856
   25.635    6.0207
   25.650    5.6697
   25.665    5.8452
   25.680    6.1436
   25.695    6.4244
   25.710    5.9154
   25.725    6.1436
   25.740    5.8452
   25.755    5.8452
   25.770    6.0558
   25.785    6.4420
   25.800    6.0909
   25.815    6.5298
   25.830    6.8457
   25.845    6.5473
   25.860    5.7925
   25.875    5.4766
   25.890    5.4941
   25.905    6.1085
   25.920    5.7399
   25.935    5.9505
   25.950    5.8803
   25.965    5.6872
   25.980    5.6521
   25.995    5.8978
   26.010    5.7223
   26.025    5.7223
   26.040    5.5117
   26.055    5.5994
   26.070    5.7750
   26.085    6.3367
   26.100    5.8803
   26.115    5.5468
   26.130    5.4941
   26.145    5.9856
   26.160    6.1611
   26.175    6.2665
   26.190    5.7750
   26.205    5.8276
   26.220    6.1611
   26.235    6.4069
   26.250    5.8627
   26.265    6.2665
   26.280    5.8627
   26.295    6.2665
   26.310    5.2835
   26.325    5.8276
   26.340    5.4941
   26.355    5.9154
   26.370    6.0734
   26.385    6.1962
   26.400    5.7223
   26.415    5.7048
   26.430    6.2665
   26.445    6.1085
   26.460    6.2665
   26.475    5.7574
   26.490    6.2840
   26.505    5.9329
   26.520    5.7925
   26.535    5.7574
   26.550    5.7574
   26.565    5.8452
   26.580    6.0383
   26.595    5.7223
   26.610    6.0383
   26.625    5.6170
   26.640    5.8627
   26.655    6.0032
   26.670    6.1260
   26.685    6.0207
   26.700    5.8627
   26.715    5.4590
   26.730    5.4590
   26.745    5.6170
   26.760    5.8101
   26.775    5.9505
   26.790    6.1611
   26.805    5.6872
   26.820    6.0909
   26.835    6.2489
   26.850    5.7750
   26.865    6.0909
   26.880    5.7574
   26.895    5.8101
   26.910    5.3537
   26.925    5.4239
   26.940    5.7574
   26.955    5.9505
   26.970    5.8452
   26.985    5.9505
   27.000    5.8803
   27.015    6.1962
   27.030    6.2138
   27.045    5.6521
   27.060    5.3888
   27.075    5.5117
   27.090    5.6170
   27.105    5.0026
   27.120    5.5643
   27.135    5.7048
   27.150    6.1787
   27.165    5.7399
   27.180    5.8452
   27.195    5.7925
   27.210    5.6697
   27.225    5.4766
   27.240    5.5468
   27.255    5.1957
   27.270    5.7048
   27.285    5.8101
   27.300    5.9329
   27.315    5.3712
   27.330    5.4590
   27.345    5.9329
   27.360    5.7048
   27.375    5.6521
   27.390    5.5468
   27.405    5.2659
   27.420    5.3537
   27.435    5.6697
   27.450    5.6170
   27.465    5.4239
   27.480    5.7048
   27.495    6.2138
   27.510    5.7574
   27.525    5.5643
   27.540    5.6872
   27.555    5.5643
   27.570    6.1436
   27.585    5.5468
   27.600    5.8101
   27.615    5.9505
   27.630    6.0909
   27.645    5.8803
   27.660    5.9681
   27.675    5.6170
   27.690    5.2484
   27.705    5.5643
   27.720    5.4590
   27.735    5.8627
   27.750    5.7750
   27.765    5.5117
   27.780    5.7750
   27.795    6.0558
   27.810    5.7574
   27.825    5.4590
   27.840    5.8452
   27.855    5.8452
   27.870    5.8452
   27.885    4.9675
   27.900    5.8276
   27.915    5.5994
   27.930    5.5468
   27.945    5.9154
   27.960    6.2313
   27.975    5.6170
   27.990    5.5468
   28.005    5.7048
   28.020    5.5994
   28.035    5.1431
   28.050    5.7048
   28.065    6.2665
   28.080    5.6345
   28.095    5.7399
   28.110    5.5819
   28.125    5.6345
   28.140    5.3537
   28.155    5.8627
   28.170    5.5994
   28.185    5.9505
   28.200    5.6345
   28.215    5.7399
   28.230    5.4064
   28.245    5.6521
   28.260    5.4064
   28.275    5.6521
   28.290    5.7223
   28.305    5.4239
   28.320    5.2308
   28.335    5.6697
   28.350    5.5468
   28.365    5.8276
   28.380    5.6521
   28.395    5.1431
   28.410    5.4064
   28.425    5.8803
   28.440    5.3712
   28.455    5.5292
   28.470    5.5819
   28.485    5.6521
   28.500    5.1080
   28.515    5.0553
   28.530    5.3010
   28.545    5.6872
   28.560    5.3712
   28.575    5.6521
   28.590    5.4766
   28.605    5.6345
   28.620    5.6872
   28.635    6.0032
   28.650    5.8452
   28.665    5.8101
   28.680    5.9856
   28.695    5.6170
   28.710    5.1255
   28.725    5.0553
   28.740    5.5292
   28.755    5.1606
   28.770    5.3888
   28.785    5.1255
   28.800    5.2133
   28.815    5.7750
   28.830    5.4239
   28.845    5.5643
   28.860    5.6521
   28.875    5.1782
   28.890    5.8276
   28.905    5.9681
   28.920    5.8276
   28.935    5.0553
   28.950    5.2484
   28.965    5.3537
   28.980    5.2308
   28.995    5.5117
   29.010    5.8452
   29.025    5.7223
   29.040    5.5292
   29.055    5.1431
   29.070    5.6697
   29.085    6.4595
   29.100    5.3888
   29.115    5.3888
   29.130    5.2484
   29.145    5.7574
   29.160    5.7048
   29.175    5.7048
   29.190    5.5643
   29.205    5.5643
   29.220    5.8101
   29.235    5.3186
   29.250    5.5819
   29.265    5.6170
   29.280    5.9505
   29.295    6.1962
   29.310    5.8276
   29.325    5.7399
   29.340    5.7574
   29.355    5.6345
   29.370    5.1080
   29.385    5.4239
   29.400    5.3712
   29.415    5.3537
   29.430    5.2659
   29.445    5.3537
   29.460    5.3186
   29.475    5.1957
   29.490    5.4239
   29.505    5.2484
   29.520    5.3186
   29.535    5.6872
   29.550    5.8627
   29.565    5.3361
   29.580    5.2484
   29.595    5.5292
   29.610    5.8101
   29.625    5.3186
   29.640    5.2308
   29.655    5.2659
   29.670    5.4064
   29.685    5.5117
   29.700    5.4064
   29.715    5.7223
   29.730    5.3010
   29.745    5.0026
   29.760    5.4415
   29.775    5.4415
   29.790    5.7750
   29.805    5.7925
   29.820    5.4590
   29.835    5.3712
   29.850    5.3361
   29.865    5.4415
   29.880    5.1431
   29.895    5.4064
   29.910    5.3712
   29.925    5.2484
   29.940    5.8452
   29.955    5.1080
   29.970    5.4941
   29.985    5.5292
   30.000    5.5117
   30.015    5.7925
   30.030    5.1957
   30.045    5.4590
   30.060    5.3361
   30.075    5.6697
   30.090    5.8978
   30.105    5.0377
   30.120    5.0904
   30.135    5.5292
   30.150    5.4064
   30.165    5.1080
   30.180    5.1431
   30.195    4.8973
   30.210    5.6170
   30.225    5.2659
   30.240    5.0728
   30.255    5.2659
   30.270    5.4590
   30.285    5.0728
   30.300    5.5117
   30.315    5.1782
   30.330    5.3712
   30.345    5.5292
   30.360    5.3537
   30.375    5.4590
   30.390    5.6697
   30.405    5.7574
   30.420    5.5643
   30.435    5.0553
   30.450    5.1606
   30.465    5.0202
   30.480    5.0377
   30.495    5.0202
   30.510    5.4239
   30.525    5.2133
   30.540    5.0728
   30.555    5.0728
   30.570    5.4590
   30.585    5.6872
   30.600    5.0553
   30.615    5.6872
   30.630    5.3712
   30.645    5.5117
   30.660    4.8798
   30.675    4.8973
   30.690    4.9149
   30.705    5.0377
   30.720    4.8095
   30.735    5.0377
   30.750    5.5292
   30.765    5.5819
   30.780    5.0553
   30.795    5.1255
   30.810    5.1606
   30.825    5.4941
   30.840    5.2308
   30.855    5.3537
   30.870    5.1782
   30.885    5.4064
   30.900    5.0377
   30.915    4.8798
   30.930    5.2484
   30.945    4.7393
   30.960    5.2308
   30.975    5.7048
   30.990    5.5819
   31.005    5.0904
   31.020    5.0377
   31.035    5.2484
   31.050    5.4415
   31.065    5.2484
   31.080    5.3888
   31.095    5.4590
   31.110    5.6521
   31.125    5.1255
   31.140    5.4064
   31.155    5.3010
   31.170    5.1606
   31.185    5.4766
   31.200    4.9324
   31.215    5.1606
   31.230    5.2133
   31.245    5.3361
   31.260    5.2308
   31.275    5.3712
   31.290    5.4064
   31.305    5.3361
   31.320    5.4239
   31.335    5.2835
   31.350    5.0553
   31.365    5.1255
   31.380    5.3186
   31.395    4.8095
   31.410    5.5117
   31.425    5.4239
   31.440    4.9149
   31.455    5.2835
   31.470    5.4415
   31.485    5.1431
   31.500    5.0377
   31.515    5.6345
   31.530    5.3010
   31.545    5.5292
   31.560    5.5643
   31.575    4.9324
   31.590    5.1080
   31.605    5.3186
   31.620    5.0728
   31.635    4.7920
   31.650    5.1782
   31.665    5.3010
   31.680    5.1606
   31.695    5.2133
   31.710    5.5819
   31.725    5.4590
   31.740    5.5117
   31.755    5.8627
   31.770    5.6697
   31.785    5.9329
   31.800    5.7048
   31.815    5.5468
   31.830    5.4590
   31.845    5.2308
   31.860    5.1957
   31.875    4.6691
   31.890    5.3888
   31.905    5.3361
   31.920    5.4766
   31.935    5.1080
   31.950    5.1080
   31.965    5.2484
   31.980    5.4415
   31.995    4.9324
   32.010    5.2308
   32.025    5.1606
   32.040    5.0904
   32.055    5.1080
   32.070    5.0377
   32.085    4.8622
   32.100    4.9500
   32.115    5.6697
   32.130    5.5117
   32.145    5.2133
   32.160    5.0904
   32.175    5.0904
   32.190    4.9149
   32.205    5.2133
   32.220    5.0202
   32.235    5.3010
   32.250    5.4239
   32.265    5.0728
   32.280    5.0377
   32.295    5.3537
   32.310    5.0553
   32.325    4.9675
   32.340    5.4415
   32.355    5.3537
   32.370    4.8447
   32.385    4.8447
   32.400    4.9500
   32.415    4.9149
   32.430    5.1255
   32.445    5.4590
   32.460    5.4590
   32.475    5.0553
   32.490    4.7393
   32.505    4.8271
   32.520    5.3361
   32.535    4.9500
   32.550    4.9675
   32.565    4.8973
   32.580    5.1782
   32.595    5.2659
   32.610    5.2133
   32.625    5.0026
   32.640    4.8622
   32.655    5.1431
   32.670    4.8271
   32.685    4.7393
   32.700    4.8095
   32.715    5.1606
   32.730    5.1255
   32.745    5.0026
   32.760    5.0904
   32.775    5.2659
   32.790    5.3888
   32.805    5.1782
   32.820    4.9500
   32.835    5.3010
   32.850    5.2484
   32.865    5.5819
   32.880    4.7218
   32.895    4.7569
   32.910    4.7920
   32.925    4.6165
   32.940    4.9675
   32.955    5.0377
   32.970    4.8447
   32.985    5.0728
   33.000    5.1782
   33.015    4.9851
   33.030    4.3883
   33.045    4.6340
   33.060    5.0026
   33.075    5.0904
   33.090    5.2659
   33.105    5.0026
   33.120    4.9324
   33.135    5.2308
   33.150    4.7218
   33.165    4.8447
   33.180    4.6516
   33.195    5.1957
   33.210    5.1255
   33.225    4.7920
   33.240    4.7569
   33.255    4.3707
   33.270    4.8622
   33.285    5.2133
   33.300    5.2308
   33.315    4.8973
   33.330    4.9500
   33.345    5.1255
   33.360    4.9675
   33.375    5.2835
   33.390    4.9500
   33.405    4.8095
   33.420    4.5111
   33.435    4.7920
   33.450    4.5111
   33.465    4.8095
   33.480    4.9851
   33.495    5.1606
   33.510    4.8798
   33.525    4.7218
   33.540    5.1431
   33.555    4.4760
   33.570    5.0553
   33.585    5.1255
   33.600    4.7569
   33.615    4.5638
   33.630    5.1080
   33.645    5.0026
   33.660    4.7042
   33.675    5.5117
   33.690    5.3361
   33.705    5.1431
   33.720    5.0728
   33.735    4.9324
   33.750    5.0377
   33.765    5.0904
   33.780    5.0904
   33.795    5.1606
   33.810    4.9675
   33.825    4.8973
   33.840    5.0553
   33.855    5.0904
   33.870    4.9500
   33.885    5.3361
   33.900    5.0202
   33.915    5.2484
   33.930    5.4590
   33.945    5.4064
   33.960    4.8622
   33.975    5.3010
   33.990    5.0904
   34.005    5.1782
   34.020    5.0728
   34.035    5.3712
   34.050    4.9675
   34.065    5.0904
   34.080    4.6691
   34.095    4.4585
   34.110    5.0377
   34.125    4.9324
   34.140    4.7393
   34.155    5.5643
   34.170    5.2308
   34.185    5.0202
   34.200    4.8798
   34.215    4.7569
   34.230    5.2308
   34.245    5.4064
   34.260    4.7920
   34.275    5.0904
   34.290    5.0026
   34.305    4.5463
   34.320    4.5287
   34.335    4.6867
   34.350    4.9324
   34.365    4.7042
   34.380    5.0553
   34.395    5.2484
   34.410    4.9500
   34.425    5.0728
   34.440    4.7218
   34.455    4.7744
   34.470    4.8271
   34.485    4.5638
   34.500    4.6340
   34.515    4.8271
   34.530    4.6867
   34.545    4.7569
   34.560    4.6340
   34.575    4.9149
   34.590    5.3537
   34.605    4.9851
   34.620    4.7569
   34.635    4.7744
   34.650    4.9500
   34.665    5.0202
   34.680    5.0377
   34.695    4.8095
   34.710    5.0904
   34.725    4.7218
   34.740    4.8271
   34.755    5.0026
   34.770    5.0904
   34.785    5.0377
   34.800    5.0026
   34.815    4.5989
   34.830    4.8271
   34.845    4.6340
   34.860    4.6867
   34.875    5.1080
   34.890    5.0553
   34.905    4.9324
   34.920    5.0553
   34.935    5.1606
   34.950    5.1606
   34.965    4.9324
   34.980    4.8271
   34.995    4.6516
   35.010    4.8095
   35.025    4.7920
   35.040    5.2835
   35.055    4.7042
   35.070    4.7569
   35.085    4.9675
   35.100    4.3707
   35.115    4.5463
   35.130    4.8271
   35.145    5.0904
   35.160    4.8271
   35.175    5.1431
   35.190    5.0553
   35.205    4.5814
   35.220    4.1250
   35.235    5.0377
   35.250    5.0377
   35.265    4.5463
   35.280    4.5111
   35.295    4.6691
   35.310    4.7744
   35.325    4.8095
   35.340    5.0026
   35.355    4.8095
   35.370    4.9851
   35.385    5.0553
   35.400    4.7042
   35.415    4.7042
   35.430    4.7920
   35.445    4.5989
   35.460    4.8271
   35.475    5.0026
   35.490    4.3356
   35.505    4.6867
   35.520    4.5111
   35.535    4.4760
   35.550    4.4585
   35.565    4.4936
   35.580    4.6867
   35.595    5.3010
   35.610    4.8622
   35.625    5.4064
   35.640    5.4415
   35.655    5.3010
   35.670    5.1255
   35.685    4.9851
   35.700    5.1957
   35.715    4.7042
   35.730    4.8095
   35.745    4.8095
   35.760    4.8271
   35.775    5.0377
   35.790    4.6691
   35.805    4.5287
   35.820    4.6691
   35.835    4.9324
   35.850    4.9149
   35.865    4.9851
   35.880    5.0904
   35.895    5.0026
   35.910    4.3181
   35.925    4.7920
   35.940    4.9149
   35.955    4.8798
   35.970    4.9324
   35.985    4.9149
   36.000    5.1782
   36.015    4.8798
   36.030    5.0904
   36.045    4.5287
   36.060    4.2654
   36.075    4.4936
   36.090    4.4585
   36.105    4.9500
   36.120    4.8973
   36.135    5.2835
   36.150    5.0202
   36.165    5.1431
   36.180    4.6516
   36.195    5.1080
   36.210    4.9851
   36.225    4.8095
   36.240    4.8447
   36.255    4.5989
   36.270    4.4936
   36.285    4.5638
   36.300    5.0026
   36.315    5.2659
   36.330    5.1782
   36.345    4.8447
   36.360    4.6165
   36.375    4.6867
   36.390    4.8095
   36.405    4.9851
   36.420    4.8447
   36.435    4.7218
   36.450    5.1431
   36.465    4.5989
   36.480    4.6165
   36.495    4.3532
   36.510    4.7569
   36.525    5.0728
   36.540    4.8973
   36.555    4.3883
   36.570    4.7042
   36.585    4.8798
   36.600    4.8271
   36.615    5.1782
   36.630    5.1606
   36.645    4.7744
   36.660    5.2133
   36.675    4.7218
   36.690    4.5814
   36.705    4.8447
   36.720    4.7920
   36.735    4.7569
   36.750    4.9675
   36.765    4.5638
   36.780    4.9500
   36.795    4.3707
   36.810    4.5638
   36.825    4.8798
   36.840    4.6867
   36.855    4.9851
   36.870    4.8271
   36.885    4.7569
   36.900    4.6691
   36.915    5.1080
   36.930    5.1255
   36.945    4.5638
   36.960    4.5111
   36.975    5.1080
   36.990    5.0904
   37.005    4.7393
   37.020    4.6867
   37.035    4.5463
   37.050    4.4409
   37.065    5.0026
   37.080    4.6165
   37.095    4.7744
   37.110    4.8271
   37.125    4.6516
   37.140    4.7569
   37.155    4.6340
   37.170    4.6516
   37.185    4.8622
   37.200    5.0904
   37.215    4.7569
   37.230    4.8798
   37.245    4.6165
   37.260    4.7744
   37.275    4.8973
   37.290    4.5638
   37.305    4.5638
   37.320    4.8622
   37.335    4.5638
   37.350    4.8095
   37.365    5.0553
   37.380    4.9500
   37.395    4.6340
   37.410    4.2303
   37.425    4.5814
   37.440    4.8095
   37.455    4.7393
   37.470    4.8447
   37.485    4.7569
   37.500    4.6516
   37.515    4.5111
   37.530    4.5287
   37.545    4.5638
   37.560    4.7744
   37.575    4.6867
   37.590    4.1952
   37.605    4.3005
   37.620    4.3883
   37.635    4.7218
   37.650    4.2127
   37.665    4.4409
   37.680    5.1255
   37.695    4.9324
   37.710    4.7218
   37.725    4.5287
   37.740    4.8447
   37.755    4.8622
   37.770    4.7744
   37.785    5.1080
   37.800    4.6165
   37.815    4.5638
   37.830    4.4585
   37.845    4.5463
   37.860    5.4239
   37.875    4.8271
   37.890    4.2654
   37.905    4.4409
   37.920    5.0202
   37.935    5.1957
   37.950    4.5463
   37.965    4.7744
   37.980    4.9675
   37.995    4.4760
   38.010    4.7393
   38.025    4.9675
   38.040    4.8798
   38.055    5.0904
   38.070    4.9324
   38.085    4.9149
   38.100    4.4760
   38.115    4.7920
   38.130    4.5814
   38.145    4.6165
   38.160    4.4936
   38.175    4.7042
   38.190    4.6516
   38.205    4.4058
   38.220    4.5463
   38.235    4.9675
   38.250    4.8447
   38.265    4.9500
   38.280    4.8095
   38.295    5.2484
   38.310    4.4936
   38.325    4.2478
   38.340    4.7744
   38.355    4.7218
   38.370    4.5814
   38.385    4.8798
   38.400    4.5287
   38.415    4.8095
   38.430    4.7218
   38.445    4.9324
   38.460    4.5814
   38.475    4.8973
   38.490    4.5814
   38.505    4.6867
   38.520    4.9851
   38.535    5.2659
   38.550    5.0728
   38.565    4.9851
   38.580    4.8622
   38.595    4.7569
   38.610    4.2303
   38.625    4.4760
   38.640    4.4058
   38.655    4.7218
   38.670    4.4058
   38.685    4.3005
   38.700    4.7218
   38.715    4.9500
   38.730    4.9851
   38.745    5.1957
   38.760    4.6340
   38.775    4.8095
   38.790    4.9675
   38.805    4.6340
   38.820    4.5463
   38.835    4.7393
   38.850    5.0904
   38.865    4.5287
   38.880    4.9324
   38.895    4.7569
   38.910    4.9500
   38.925    4.7042
   38.940    4.6165
   38.955    4.7569
   38.970    4.6691
   38.985    4.7218
   39.000    4.9149
   39.015    4.7920
   39.030    4.5463
   39.045    4.7569
   39.060    4.4760
   39.075    4.8095
   39.090    5.0904
   39.105    4.6340
   39.120    4.4760
   39.135    4.6516
   39.150    4.5463
   39.165    4.5287
   39.180    4.6340
   39.195    4.4760
   39.210    4.6691
   39.225    4.6516
   39.240    4.7744
   39.255    4.5463
   39.270    4.5463
   39.285    4.6165
   39.300    4.7569
   39.315    5.1080
   39.330    4.6867
   39.345    4.5638
   39.360    4.5463
   39.375    4.8447
   39.390    4.9149
   39.405    4.7744
   39.420    4.4585
   39.435    4.8095
   39.450    5.0377
   39.465    4.7744
   39.480    4.7569
   39.495    4.2830
   39.510    4.5989
   39.525    4.7042
   39.540    4.7569
   39.555    4.3005
   39.570    4.6867
   39.585    4.5287
   39.600    4.8973
   39.615    4.6867
   39.630    5.0026
   39.645    4.8095
   39.660    4.7042
   39.675    4.5463
   39.690    4.9149
   39.705    4.7744
   39.720    4.0548
   39.735    4.4936
   39.750    5.1782
   39.765    5.1080
   39.780    4.7393
   39.795    4.7042
   39.810    4.6867
   39.825    4.7218
   39.840    4.5463
   39.855    4.8095
   39.870    4.9500
   39.885    4.8798
   39.900    4.6165
   39.915    4.8798
   39.930    4.9675
   39.945    4.9149
   39.960    4.8622
   39.975    4.7744
   39.990    4.7744
