    1.500   16.9823
    1.515   17.2499
    1.530   16.7148
    1.545   15.6982
    1.560   16.4045
    1.575   16.2226
    1.590   15.5805
    1.605   15.7731
    1.620   15.1739
    1.635   14.6067
    1.650   14.5746
    1.665   14.5853
    1.680   13.7186
    1.695   13.5902
    1.710   13.6009
    1.725   13.3440
    1.740   13.2798
    1.755   13.0123
    1.770   12.8304
    1.785   12.3703
    1.800   11.9422
    1.815   12.0920
    1.830   11.5249
    1.845   11.5249
    1.860   12.4024
    1.875   11.6212
    1.890   11.3965
    1.905   10.9363
    1.920   10.8507
    1.935   10.7758
    1.950   10.7865
    1.965   10.0268
    1.980   10.0482
    1.995    9.8876
    2.010    9.3312
    2.025    8.6463
    2.040    9.4596
    2.055    9.6308
    2.070    9.3312
    2.085    8.9139
    2.100    9.1386
    2.115    9.2456
    2.130    8.7533
    2.145    8.8925
    2.160    8.2290
    2.175    8.5607
    2.190    8.4323
    2.205    8.5179
    2.220    8.4216
    2.235    8.1541
    2.250    8.0364
    2.265    7.3943
    2.280    7.7903
    2.295    7.9722
    2.310    7.8117
    2.325    7.2766
    2.340    7.2659
    2.355    7.3194
    2.370    7.6833
    2.385    6.9556
    2.400    7.0626
    2.415    7.1482
    2.430    6.9556
    2.445    6.5918
    2.460    6.8486
    2.475    6.6239
    2.490    6.4312
    2.505    6.8058
    2.520    6.2065
    2.535    6.4419
    2.550    6.0139
    2.565    6.5383
    2.580    5.8855
    2.595    6.3028
    2.610    6.3349
    2.625    5.7999
    2.640    5.8748
    2.655    5.6287
    2.670    5.7785
    2.685    6.0139
    2.700    6.3028
    2.715    5.7892
    2.730    5.7250
    2.745    5.5859
    2.760    5.4575
    2.775    5.7571
    2.790    5.7250
    2.805    5.5859
    2.820    5.3077
    2.835    5.3291
    2.850    5.4789
    2.865    5.3398
    2.880    5.4040
    2.895    5.3505
    2.910    5.2220
    2.925    5.6929
    2.940    5.3719
    2.955    5.2434
    2.970    5.0936
    2.985    5.2648
    3.000    5.0936
    3.015    5.1043
    3.030    5.0080
    3.045    4.8903
    3.060    4.7512
    3.075    5.2113
    3.090    5.3612
    3.105    5.3184
    3.120    5.2220
    3.135    4.8368
    3.150    4.8475
    3.165    5.2327
    3.180    5.2327
    3.195    4.9331
    3.210    4.9331
    3.225    4.9117
    3.240    5.0294
    3.255    5.3933
    3.270    5.1150
    3.285    5.2970
    3.300    5.3612
    3.315    5.2970
    3.330    5.3826
    3.345    5.3505
    3.360    5.3612
    3.375    5.0615
    3.390    5.8213
    3.405    6.1209
    3.420    5.8641
    3.435    5.5538
    3.450    5.9711
    3.465    5.7785
    3.480    5.8962
    3.495    6.2493
    3.510    6.4741
    3.525    6.1530
    3.540    6.2386
    3.555    6.6881
    3.570    6.5383
    3.585    7.0947
    3.600    6.6025
    3.615    7.0305
    3.630    7.0840
    3.645    7.0947
    3.660    7.3194
    3.675    7.5976
    3.690    7.9829
    3.705    8.1755
    3.720    8.2932
    3.735    8.4644
    3.750    8.5500
    3.765    8.7426
    3.780    9.3205
    3.795    9.1921
    3.810    9.8234
    3.825    9.9839
    3.840   10.4013
    3.855   11.0647
    3.870   11.1825
    3.885   11.0647
    3.900   11.6319
    3.915   12.2739
    3.930   13.0230
    3.945   13.9647
    3.960   14.1145
    3.975   14.8957
    3.990   14.8315
    4.005   15.8587
    4.020   16.4580
    4.035   16.7255
    4.050   16.7148
    4.065   16.6506
    4.080   17.6458
    4.095   17.2713
    4.110   17.7314
    4.125   17.9561
    4.140   18.1915
    4.155   18.7373
    4.170   19.3793
    4.185   21.0487
    4.200   20.9952
    4.215   21.8513
    4.230   23.6062
    4.245   24.1841
    4.260   25.5110
    4.275   26.6560
    4.290   29.0423
    4.305   31.3002
    4.320   31.8994
    4.335   34.8743
    4.350   36.9288
    4.365   39.2509
    4.380   42.7180
    4.395   46.6988
    4.410   51.3109
    4.425   55.5484
    4.440   62.4933
    4.455   70.4334
    4.470   82.3328
    4.485   98.9085
    4.500  127.0840
    4.515  159.3901
    4.530  150.0696
    4.545   81.0059
    4.560   25.5110
    4.575    9.4382
    4.590    6.4633
    4.605    4.9438
    4.620    4.6121
    4.635    4.3232
    4.650    4.3232
    4.665    4.0663
    4.680    4.0342
    4.695    3.7346
    4.710    3.7988
    4.725    3.7132
    4.740    3.8523
    4.755    3.4564
    4.770    3.6276
    4.785    3.8416
    4.800    3.3922
    4.815    3.3173
    4.830    3.4778
    4.845    3.4992
    4.860    3.1247
    4.875    3.0605
    4.890    2.9856
    4.905    3.0498
    4.920    2.9642
    4.935    2.9320
    4.950    2.8571
    4.965    2.5575
    4.980    2.6645
    4.995    2.3649
    5.010    2.4077
    5.025    2.5254
    5.040    2.4184
    5.055    2.5361
    5.070    2.1830
    5.085    2.2686
    5.100    2.3328
    5.115    2.4184
    5.130    2.2686
    5.145    2.2258
    5.160    2.3649
    5.175    2.1616
    5.190    2.0332
    5.205    2.0332
    5.220    2.1830
    5.235    2.0653
    5.250    2.0439
    5.265    2.0011
    5.280    1.7978
    5.295    1.7978
    5.310    1.9583
    5.325    2.0867
    5.340    1.9690
    5.355    2.0011
    5.370    2.0225
    5.385    1.7764
    5.400    1.8406
    5.415    2.3007
    5.430    2.2151
    5.445    2.1402
    5.460    1.9583
    5.475    1.7335
    5.490    1.8513
    5.505    2.1616
    5.520    2.0546
    5.535    2.0011
    5.550    2.0011
    5.565    2.0332
    5.580    2.1188
    5.595    2.2151
    5.610    2.2686
    5.625    2.3221
    5.640    2.1509
    5.655    2.4398
    5.670    2.2365
    5.685    2.3328
    5.700    2.5789
    5.715    2.8036
    5.730    2.7073
    5.745    2.7715
    5.760    2.8357
    5.775    2.6324
    5.790    3.0605
    5.805    3.1140
    5.820    3.0498
    5.835    3.0498
    5.850    2.9856
    5.865    2.9856
    5.880    3.0605
    5.895    3.3280
    5.910    3.3922
    5.925    3.5099
    5.940    3.5527
    5.955    3.5527
    5.970    3.8630
    5.985    4.3232
    6.000    4.2911
    6.015    4.4088
    6.030    4.7298
    6.045    4.8368
    6.060    5.1578
    6.075    5.3291
    6.090    5.9711
    6.105    6.3670
    6.120    6.5918
    6.135    7.1161
    6.150    7.3836
    6.165    7.3087
    6.180    8.7105
    6.195    9.3847
    6.210    9.9411
    6.225   10.2408
    6.240   12.0599
    6.255   12.6164
    6.270   13.7079
    6.285   15.4200
    6.300   16.3831
    6.315   19.6790
    6.330   22.3542
    6.345   26.0139
    6.360   31.4500
    6.375   39.1760
    6.390   50.1124
    6.405   52.3489
    6.420   37.2392
    6.435   16.6292
    6.450    5.5645
    6.465    2.7180
    6.480    2.0867
    6.495    1.6265
    6.510    1.7121
    6.525    1.4553
    6.540    1.4339
    6.555    1.5516
    6.570    1.5195
    6.585    1.4981
    6.600    1.5088
    6.615    1.1878
    6.630    1.2306
    6.645    1.2306
    6.660    1.2841
    6.675    1.4660
    6.690    1.3697
    6.705    1.3376
    6.720    1.3055
    6.735    1.3911
    6.750    1.3590
    6.765    1.2520
    6.780    1.2413
    6.795    1.1771
    6.810    1.1557
    6.825    1.1664
    6.840    1.2306
    6.855    1.1771
    6.870    1.2092
    6.885    1.2306
    6.900    1.2199
    6.915    1.2948
    6.930    1.2306
    6.945    1.3376
    6.960    1.4446
    6.975    1.2841
    6.990    1.2520
    7.005    1.3055
    7.020    1.2841
    7.035    1.3269
    7.050    1.3376
    7.065    1.1236
    7.080    1.1771
    7.095    1.1450
    7.110    1.3269
    7.125    1.3162
    7.140    1.2734
    7.155    1.2841
    7.170    1.2841
    7.185    1.2948
    7.200    1.3055
    7.215    1.3483
    7.230    1.2306
    7.245    1.4767
    7.260    1.3269
    7.275    1.4981
    7.290    1.5623
    7.305    1.3697
    7.320    1.3483
    7.335    1.4981
    7.350    1.4125
    7.365    1.4446
    7.380    1.4018
    7.395    1.5623
    7.410    1.4981
    7.425    1.5837
    7.440    1.4660
    7.455    1.6372
    7.470    1.7228
    7.485    1.7978
    7.500    1.8620
    7.515    2.0867
    7.530    2.0225
    7.545    2.1509
    7.560    2.2258
    7.575    2.1509
    7.590    2.2365
    7.605    2.5147
    7.620    2.5361
    7.635    2.6324
    7.650    3.1247
    7.665    3.0391
    7.680    3.5099
    7.695    3.6276
    7.710    4.0021
    7.725    4.5158
    7.740    4.2590
    7.755    5.1899
    7.770    6.2279
    7.785    7.0733
    7.800    8.5500
    7.815   10.2087
    7.830   12.9374
    7.845   14.4034
    7.860   12.0920
    7.875    7.4050
    7.890    3.3387
    7.905    1.8192
    7.920    1.3483
    7.935    1.5302
    7.950    1.3590
    7.965    1.4660
    7.980    1.6907
    7.995    1.5516
    8.010    1.4660
    8.025    1.3697
    8.040    1.3376
    8.055    1.2948
    8.070    1.1771
    8.085    1.6479
    8.100    1.4125
    8.115    1.4660
    8.130    1.2627
    8.145    1.4660
    8.160    1.2520
    8.175    1.3697
    8.190    1.2520
    8.205    1.3483
    8.220    1.1343
    8.235    1.1343
    8.250    1.1878
    8.265    1.0915
    8.280    1.0594
    8.295    1.0059
    8.310    1.1771
    8.325    1.0059
    8.340    1.0166
    8.355    1.0701
    8.370    1.1664
    8.385    1.3162
    8.400    1.2306
    8.415    1.2092
    8.430    1.2092
    8.445    1.0808
    8.460    1.0915
    8.475    1.2092
    8.490    1.3376
    8.505    1.2520
    8.520    1.1236
    8.535    1.1985
    8.550    1.0487
    8.565    1.2520
    8.580    1.3376
    8.595    1.1878
    8.610    1.1878
    8.625    1.2948
    8.640    1.1557
    8.655    1.2199
    8.670    1.4660
    8.685    1.4232
    8.700    1.4874
    8.715    1.4767
    8.730    1.5730
    8.745    1.5623
    8.760    1.7549
    8.775    1.6158
    8.790    1.6907
    8.805    1.7871
    8.820    1.8941
    8.835    1.6800
    8.850    2.1295
    8.865    2.3649
    8.880    2.3970
    8.895    2.5254
    8.910    2.6859
    8.925    3.0605
    8.940    3.2210
    8.955    3.5420
    8.970    4.0984
    8.985    4.4195
    9.000    5.0829
    9.015    6.0567
    9.030    7.3515
    9.045    9.1386
    9.060   10.4334
    9.075    9.7057
    9.090    6.8914
    9.105    3.5848
    9.120    1.6693
    9.135    1.3162
    9.150    1.4125
    9.165    1.1129
    9.180    1.0701
    9.195    1.2199
    9.210    1.0380
    9.225    1.0701
    9.240    1.0915
    9.255    1.1343
    9.270    0.9524
    9.285    0.9738
    9.300    0.9096
    9.315    1.1450
    9.330    1.0059
    9.345    0.9417
    9.360    0.9952
    9.375    1.1129
    9.390    0.9952
    9.405    1.2520
    9.420    0.9845
    9.435    1.0166
    9.450    1.0915
    9.465    1.0701
    9.480    1.0487
    9.495    1.1557
    9.510    1.0166
    9.525    1.1022
    9.540    0.9845
    9.555    1.1343
    9.570    1.0594
    9.585    0.9845
    9.600    1.1878
    9.615    1.1022
    9.630    0.9203
    9.645    1.1878
    9.660    0.9952
    9.675    1.1343
    9.690    1.1129
    9.705    1.0808
    9.720    1.0594
    9.735    0.9631
    9.750    0.9952
    9.765    1.1022
    9.780    1.1450
    9.795    1.1343
    9.810    1.1878
    9.825    1.0915
    9.840    1.0273
    9.855    0.9952
    9.870    1.0701
    9.885    1.2734
    9.900    1.2520
    9.915    1.0915
    9.930    1.0380
    9.945    1.1343
    9.960    1.0594
    9.975    1.1450
    9.990    1.1450
   10.005    1.1129
   10.020    1.1664
   10.035    1.3055
   10.050    1.4553
   10.065    1.4660
   10.080    1.5944
   10.095    1.6800
   10.110    1.8513
   10.125    2.1830
   10.140    2.0974
   10.155    1.9904
   10.170    1.7014
   10.185    1.1129
   10.200    0.9738
   10.215    0.9096
   10.230    0.6956
   10.245    0.8989
   10.260    0.7705
   10.275    0.8668
   10.290    0.9096
   10.305    1.0166
   10.320    0.9417
   10.335    0.8668
   10.350    0.8775
   10.365    0.8561
   10.380    0.9203
   10.395    0.8668
   10.410    0.9203
   10.425    0.9096
   10.440    0.9631
   10.455    0.8668
   10.470    0.8561
   10.485    0.8561
   10.500    0.8561
   10.515    1.0273
   10.530    0.9310
   10.545    0.8133
   10.560    1.1129
   10.575    0.9631
   10.590    0.9524
   10.605    0.8454
   10.620    0.9952
   10.635    1.0808
   10.650    1.1557
   10.665    0.8989
   10.680    1.0701
   10.695    1.1450
   10.710    1.2413
   10.725    1.2841
   10.740    1.1985
   10.755    1.4553
   10.770    1.4981
   10.785    1.6051
   10.800    1.4767
   10.815    1.6479
   10.830    1.8513
   10.845    2.0546
   10.860    2.0653
   10.875    1.9797
   10.890    2.2579
   10.905    2.5361
   10.920    2.6752
   10.935    3.3494
   10.950    3.6811
   10.965    4.1520
   10.980    4.4088
   10.995    5.0936
   11.010    5.6608
   11.025    6.6881
   11.040    8.0150
   11.055    9.4596
   11.070   12.2525
   11.085   15.6340
   11.100   17.7742
   11.115   17.6672
   11.130   13.9219
   11.145    9.4596
   11.160    4.8689
   11.175    2.1830
   11.190    1.3697
   11.205    0.9310
   11.220    0.9310
   11.235    0.9096
   11.250    0.8561
   11.265    0.9096
   11.280    0.9096
   11.295    0.8668
   11.310    0.9845
   11.325    0.8775
   11.340    0.7598
   11.355    0.8775
   11.370    0.7170
   11.385    0.8133
   11.400    0.8775
   11.415    1.0166
   11.430    0.9096
   11.445    0.7277
   11.460    0.8133
   11.475    0.7598
   11.490    0.9310
   11.505    0.9203
   11.520    0.6849
   11.535    0.7063
   11.550    0.7919
   11.565    0.8240
   11.580    1.0059
   11.595    1.1129
   11.610    0.9952
   11.625    0.9310
   11.640    0.9952
   11.655    0.9096
   11.670    1.0273
   11.685    0.9203
   11.700    0.9631
   11.715    1.1022
   11.730    1.0808
   11.745    1.2306
   11.760    1.1878
   11.775    1.0808
   11.790    1.2306
   11.805    1.3804
   11.820    1.2520
   11.835    1.4874
   11.850    1.5195
   11.865    1.9583
   11.880    2.0439
   11.895    2.2365
   11.910    2.4826
   11.925    2.7715
   11.940    3.1140
   11.955    3.7667
   11.970    4.5158
   11.985    6.1744
   12.000    6.3456
   12.015    5.6715
   12.030    4.5265
   12.045    2.9213
   12.060    1.6907
   12.075    1.0273
   12.090    0.8026
   12.105    0.8454
   12.120    0.8989
   12.135    0.8561
   12.150    0.8882
   12.165    0.6742
   12.180    0.8454
   12.195    0.7705
   12.210    0.8026
   12.225    0.8454
   12.240    0.7919
   12.255    0.6956
   12.270    0.7491
   12.285    0.8561
   12.300    0.7705
   12.315    0.7919
   12.330    0.7384
   12.345    0.6528
   12.360    0.9845
   12.375    0.7812
   12.390    0.7063
   12.405    0.7170
   12.420    0.6635
   12.435    0.7705
   12.450    1.0059
   12.465    0.8561
   12.480    0.8454
   12.495    0.9952
   12.510    0.7598
   12.525    0.8561
   12.540    0.9203
   12.555    1.0808
   12.570    1.1236
   12.585    1.0273
   12.600    1.2306
   12.615    1.2948
   12.630    1.3162
   12.645    1.3590
   12.660    1.4553
   12.675    1.5944
   12.690    1.7442
   12.705    1.9369
   12.720    2.2900
   12.735    2.6003
   12.750    2.7929
   12.765    3.2317
   12.780    3.8095
   12.795    4.5907
   12.810    5.7250
   12.825    6.3777
   12.840    6.7095
   12.855    5.4896
   12.870    4.4516
   12.885    3.0819
   12.900    1.6800
   12.915    1.0059
   12.930    0.9952
   12.945    0.9631
   12.960    0.8882
   12.975    0.8561
   12.990    0.8240
   13.005    0.7277
   13.020    0.7705
   13.035    0.8454
   13.050    0.7170
   13.065    0.6742
   13.080    0.7277
   13.095    0.7277
   13.110    0.6849
   13.125    0.7919
   13.140    0.7598
   13.155    0.7491
   13.170    0.7491
   13.185    0.7812
   13.200    0.8882
   13.215    0.7812
   13.230    0.7812
   13.245    0.8133
   13.260    0.7598
   13.275    0.7812
   13.290    0.9096
   13.305    0.9096
   13.320    0.9631
   13.335    0.9310
   13.350    1.0915
   13.365    1.0808
   13.380    0.9952
   13.395    1.2199
   13.410    1.3269
   13.425    1.2841
   13.440    1.5302
   13.455    1.6051
   13.470    1.6907
   13.485    1.7978
   13.500    2.1937
   13.515    2.3007
   13.530    2.5682
   13.545    2.9213
   13.560    3.5206
   13.575    4.4302
   13.590    5.8320
   13.605    7.2017
   13.620    7.4050
   13.635    6.6453
   13.650    5.1257
   13.665    3.5848
   13.680    1.8620
   13.695    0.9203
   13.710    0.7705
   13.725    0.6956
   13.740    0.8882
   13.755    0.8775
   13.770    0.7598
   13.785    0.7705
   13.800    0.6207
   13.815    0.6742
   13.830    0.6635
   13.845    0.7491
   13.860    0.7919
   13.875    0.6956
   13.890    0.7705
   13.905    0.6849
   13.920    0.6742
   13.935    0.7812
   13.950    0.7170
   13.965    0.7812
   13.980    0.6314
   13.995    0.5564
   14.010    0.4815
   14.025    0.6100
   14.040    0.7384
   14.055    0.7170
   14.070    0.7063
   14.085    0.7491
   14.100    0.7705
   14.115    0.7277
   14.130    0.6100
   14.145    0.7705
   14.160    0.7919
   14.175    0.8026
   14.190    0.7384
   14.205    0.6314
   14.220    0.7384
   14.235    0.9631
   14.250    0.9524
   14.265    0.9631
   14.280    0.8133
   14.295    0.9952
   14.310    1.1664
   14.325    1.3055
   14.340    1.4660
   14.355    1.4874
   14.370    1.3804
   14.385    1.4446
   14.400    1.2092
   14.415    1.1022
   14.430    0.9096
   14.445    0.8882
   14.460    0.7812
   14.475    0.9524
   14.490    0.7598
   14.505    0.6956
   14.520    0.6849
   14.535    0.7705
   14.550    0.5778
   14.565    0.7812
   14.580    0.7705
   14.595    0.6956
   14.610    0.7812
   14.625    0.7277
   14.640    0.5243
   14.655    0.7491
   14.670    0.6849
   14.685    0.7812
   14.700    0.6207
   14.715    0.8454
   14.730    0.8026
   14.745    0.7063
   14.760    0.8775
   14.775    0.9310
   14.790    0.8240
   14.805    0.8026
   14.820    0.7384
   14.835    0.7170
   14.850    1.0273
   14.865    0.9310
   14.880    1.1236
   14.895    1.1557
   14.910    1.4446
   14.925    1.2948
   14.940    1.3376
   14.955    1.3590
   14.970    1.7335
   14.985    2.0332
   15.000    2.5040
   15.015    2.7180
   15.030    3.5634
   15.045    3.8523
   15.060    4.0663
   15.075    4.2376
   15.090    3.4992
   15.105    3.0284
   15.120    2.0974
   15.135    1.3804
   15.150    0.8133
   15.165    0.9096
   15.180    0.7491
   15.195    0.6100
   15.210    0.5350
   15.225    0.5243
   15.240    0.7170
   15.255    0.5778
   15.270    0.5886
   15.285    0.5136
   15.300    0.5564
   15.315    0.6314
   15.330    0.7919
   15.345    0.7277
   15.360    0.6314
   15.375    0.6635
   15.390    0.6314
   15.405    0.5136
   15.420    0.5993
   15.435    0.6956
   15.450    0.6849
   15.465    0.7063
   15.480    0.7170
   15.495    0.6742
   15.510    0.7170
   15.525    0.7812
   15.540    0.8026
   15.555    0.8989
   15.570    0.8668
   15.585    0.9310
   15.600    0.8561
   15.615    0.9417
   15.630    0.9952
   15.645    1.0166
   15.660    1.0701
   15.675    1.0915
   15.690    1.2948
   15.705    1.6479
   15.720    2.0974
   15.735    2.1295
   15.750    2.3007
   15.765    1.8727
   15.780    1.6051
   15.795    1.1557
   15.810    0.9952
   15.825    0.6742
   15.840    0.7063
   15.855    0.6742
   15.870    0.5778
   15.885    0.5778
   15.900    0.7063
   15.915    0.5993
   15.930    0.5778
   15.945    0.6100
   15.960    0.6421
   15.975    0.6635
   15.990    0.6207
   16.005    0.5243
   16.020    0.7705
   16.035    0.6742
   16.050    0.8454
   16.065    0.7812
   16.080    0.6207
   16.095    0.6956
   16.110    0.7170
   16.125    0.7812
   16.140    0.8240
   16.155    0.8882
   16.170    0.7277
   16.185    0.8347
   16.200    0.9203
   16.215    1.0166
   16.230    1.1022
   16.245    1.1236
   16.260    1.2520
   16.275    1.1557
   16.290    1.3804
   16.305    1.5837
   16.320    1.8620
   16.335    2.4612
   16.350    3.2852
   16.365    3.5206
   16.380    3.6811
   16.395    3.3815
   16.410    3.4564
   16.425    2.9535
   16.440    1.9797
   16.455    1.3162
   16.470    0.9524
   16.485    0.6956
   16.500    0.6207
   16.515    0.6635
   16.530    0.5671
   16.545    0.6635
   16.560    0.6742
   16.575    0.6528
   16.590    0.7919
   16.605    0.7491
   16.620    0.7705
   16.635    0.5671
   16.650    0.6528
   16.665    0.5778
   16.680    0.6314
   16.695    0.7598
   16.710    0.6849
   16.725    0.6742
   16.740    0.6314
   16.755    0.6421
   16.770    0.7491
   16.785    0.6849
   16.800    0.6207
   16.815    0.6100
   16.830    0.5993
   16.845    0.6849
   16.860    0.7919
   16.875    0.6314
   16.890    0.5886
   16.905    0.6956
   16.920    0.7277
   16.935    0.7063
   16.950    0.6314
   16.965    0.6956
   16.980    0.7598
   16.995    0.6956
   17.010    0.5886
   17.025    0.5350
   17.040    0.6314
   17.055    0.7919
   17.070    0.5350
   17.085    0.6956
   17.100    0.7170
   17.115    0.6742
   17.130    0.5243
   17.145    0.5993
   17.160    0.6742
   17.175    0.5350
   17.190    0.5886
   17.205    0.6849
   17.220    0.6421
   17.235    0.6635
   17.250    0.5457
   17.265    0.5350
   17.280    0.6635
   17.295    0.8026
   17.310    0.5778
   17.325    0.6100
   17.340    0.7598
   17.355    0.6421
   17.370    0.5993
   17.385    0.6207
   17.400    0.6100
   17.415    0.6849
   17.430    0.6421
   17.445    0.7598
   17.460    0.7277
   17.475    0.8454
   17.490    0.6635
   17.505    0.9417
   17.520    0.8454
   17.535    0.7598
   17.550    0.9524
   17.565    1.0915
   17.580    1.3483
   17.595    1.4767
   17.610    1.4553
   17.625    1.4018
   17.640    1.3162
   17.655    1.1878
   17.670    0.9203
   17.685    0.7491
   17.700    0.6849
   17.715    0.5993
   17.730    0.5886
   17.745    0.6849
   17.760    0.7170
   17.775    0.5993
   17.790    0.6421
   17.805    0.5564
   17.820    0.5993
   17.835    0.5564
   17.850    0.6314
   17.865    0.6314
   17.880    0.6207
   17.895    0.7277
   17.910    0.6742
   17.925    0.6100
   17.940    0.4922
   17.955    0.4815
   17.970    0.4922
   17.985    0.5136
   18.000    0.6207
   18.015    0.5457
   18.030    0.5136
   18.045    0.7063
   18.060    0.6421
   18.075    0.5671
   18.090    0.7277
   18.105    0.6100
   18.120    0.5671
   18.135    0.6956
   18.150    0.5457
   18.165    0.6635
   18.180    0.6207
   18.195    0.6528
   18.210    0.6528
   18.225    0.5136
   18.240    0.7063
   18.255    0.5993
   18.270    0.6742
   18.285    0.6956
   18.300    0.6635
   18.315    0.5993
   18.330    0.6956
   18.345    0.6528
   18.360    0.6100
   18.375    0.5243
   18.390    0.5778
   18.405    0.6956
   18.420    0.6528
   18.435    0.6635
   18.450    0.7277
   18.465    0.8240
   18.480    0.6849
   18.495    0.6207
   18.510    0.6528
   18.525    0.5886
   18.540    0.5350
   18.555    0.5457
   18.570    0.6635
   18.585    0.7919
   18.600    0.7170
   18.615    0.6528
   18.630    0.7491
   18.645    0.8347
   18.660    0.7812
   18.675    0.7063
   18.690    0.7277
   18.705    0.8026
   18.720    1.0166
   18.735    1.2520
   18.750    1.2627
   18.765    1.1343
   18.780    1.1343
   18.795    1.1557
   18.810    1.0915
   18.825    1.0380
   18.840    0.7598
   18.855    0.6742
   18.870    0.6528
   18.885    0.5886
   18.900    0.5671
   18.915    0.6207
   18.930    0.6635
   18.945    0.6849
   18.960    0.6207
   18.975    0.5778
   18.990    0.5886
   19.005    0.5457
   19.020    0.6207
   19.035    0.6635
   19.050    0.7277
   19.065    0.7812
   19.080    0.6100
   19.095    0.6207
   19.110    0.5993
   19.125    0.6956
   19.140    0.5886
   19.155    0.6314
   19.170    0.8133
   19.185    0.6314
   19.200    0.8454
   19.215    0.8775
   19.230    0.8561
   19.245    1.1129
   19.260    0.9417
   19.275    1.3590
   19.290    1.6372
   19.305    1.5302
   19.320    1.2520
   19.335    1.2199
   19.350    1.3162
   19.365    0.9952
   19.380    0.8347
   19.395    0.7705
   19.410    0.6421
   19.425    0.6849
   19.440    0.6742
   19.455    0.6100
   19.470    0.6635
   19.485    0.7063
   19.500    0.6207
   19.515    0.5993
   19.530    0.6207
   19.545    0.5993
   19.560    0.6207
   19.575    0.6956
   19.590    0.8133
   19.605    0.6528
   19.620    0.7812
   19.635    0.7919
   19.650    0.6421
   19.665    0.7384
   19.680    0.8026
   19.695    0.8454
   19.710    0.8989
   19.725    0.9417
   19.740    1.1878
   19.755    1.4446
   19.770    1.5302
   19.785    1.8834
   19.800    2.3007
   19.815    2.7073
   19.830    3.0819
   19.845    2.9749
   19.860    2.9642
   19.875    2.9106
   19.890    2.3970
   19.905    1.8834
   19.920    1.3376
   19.935    0.9203
   19.950    0.7812
   19.965    0.7170
   19.980    0.6849
   19.995    0.6528
   20.010    0.5886
   20.025    0.7491
   20.040    0.7812
   20.055    0.7491
   20.070    0.7063
   20.085    0.6635
   20.100    0.6100
   20.115    0.6849
   20.130    0.6207
   20.145    0.5671
   20.160    0.5993
   20.175    0.6849
   20.190    0.7812
   20.205    0.6849
   20.220    0.6528
   20.235    0.6528
   20.250    0.6421
   20.265    0.7277
   20.280    0.8775
   20.295    0.7063
   20.310    0.8882
   20.325    1.0487
   20.340    1.0166
   20.355    0.9631
   20.370    1.0701
   20.385    1.0915
   20.400    1.0166
   20.415    0.9631
   20.430    0.9524
   20.445    0.7919
   20.460    0.7384
   20.475    0.7384
   20.490    0.6314
   20.505    0.5886
   20.520    0.6635
   20.535    0.5886
   20.550    0.6421
   20.565    0.5778
   20.580    0.5886
   20.595    0.6849
   20.610    0.6207
   20.625    0.5136
   20.640    0.6528
   20.655    0.7277
   20.670    0.6528
   20.685    0.6528
   20.700    0.5564
   20.715    0.6528
   20.730    0.6528
   20.745    0.6635
   20.760    0.6100
   20.775    0.6528
   20.790    0.8561
   20.805    0.9096
   20.820    0.9952
   20.835    0.9845
   20.850    1.0594
   20.865    1.2413
   20.880    1.0059
   20.895    1.0487
   20.910    1.0059
   20.925    1.0594
   20.940    0.8989
   20.955    0.7491
   20.970    0.6528
   20.985    0.6314
   21.000    0.7491
   21.015    0.6956
   21.030    0.6742
   21.045    0.6421
   21.060    0.6635
   21.075    0.5564
   21.090    0.7277
   21.105    0.5778
   21.120    0.6635
   21.135    0.6314
   21.150    0.6956
   21.165    0.6100
   21.180    0.6956
   21.195    0.6528
   21.210    0.7598
   21.225    0.5350
   21.240    0.6849
   21.255    0.6635
   21.270    0.7812
   21.285    0.8882
   21.300    0.8775
   21.315    0.9952
   21.330    1.1878
   21.345    1.2306
   21.360    1.4339
   21.375    1.3269
   21.390    1.0915
   21.405    1.0166
   21.420    0.9310
   21.435    0.9203
   21.450    0.7705
   21.465    0.7491
   21.480    0.5886
   21.495    0.6207
   21.510    0.5457
   21.525    0.7063
   21.540    0.6314
   21.555    0.5886
   21.570    0.7170
   21.585    0.6849
   21.600    0.5993
   21.615    0.6742
   21.630    0.6956
   21.645    0.6849
   21.660    0.6314
   21.675    0.5136
   21.690    0.6528
   21.705    0.6849
   21.720    0.7919
   21.735    0.6100
   21.750    0.6742
   21.765    0.6421
   21.780    0.5350
   21.795    0.7063
   21.810    0.7491
   21.825    0.8347
   21.840    0.7491
   21.855    0.7491
   21.870    0.8882
   21.885    0.8561
   21.900    0.7812
   21.915    0.8133
   21.930    0.8240
   21.945    0.6207
   21.960    0.6956
   21.975    0.6956
   21.990    0.8240
   22.005    0.7384
   22.020    0.7705
   22.035    0.9203
   22.050    0.7919
   22.065    0.8347
   22.080    0.8882
   22.095    0.9203
   22.110    0.8454
   22.125    0.7919
   22.140    0.8347
   22.155    0.8668
   22.170    0.7170
   22.185    0.5993
   22.200    0.6849
   22.215    0.7598
   22.230    0.6207
   22.245    0.6956
   22.260    0.6314
   22.275    0.6207
   22.290    0.7919
   22.305    0.6314
   22.320    0.6849
   22.335    0.6742
   22.350    0.6849
   22.365    0.8668
   22.380    0.7812
   22.395    0.7705
   22.410    0.5993
   22.425    0.6207
   22.440    0.6421
   22.455    0.5457
   22.470    0.5350
   22.485    0.6742
   22.500    0.6421
   22.515    0.5886
   22.530    0.5993
   22.545    0.7384
   22.560    0.7598
   22.575    0.7491
   22.590    0.6207
   22.605    0.6421
   22.620    0.6742
   22.635    0.7063
   22.650    0.7491
   22.665    0.8026
   22.680    0.5671
   22.695    0.6314
   22.710    0.8347
   22.725    0.7598
   22.740    0.8240
   22.755    1.0059
   22.770    1.1878
   22.785    1.3055
   22.800    1.3483
   22.815    1.1985
   22.830    1.2627
   22.845    1.2199
   22.860    1.1557
   22.875    1.2199
   22.890    0.9203
   22.905    0.6421
   22.920    0.6849
   22.935    0.8347
   22.950    0.6742
   22.965    0.6207
   22.980    0.5671
   22.995    0.5564
   23.010    0.6421
   23.025    0.6100
   23.040    0.6528
   23.055    0.5993
   23.070    0.5564
   23.085    0.6207
   23.100    0.5778
   23.115    0.5993
   23.130    0.5886
   23.145    0.6207
   23.160    0.6956
   23.175    0.6314
   23.190    0.5886
   23.205    0.6100
   23.220    0.6421
   23.235    0.8989
   23.250    0.7812
   23.265    0.4922
   23.280    0.6849
   23.295    0.7277
   23.310    0.6421
   23.325    0.7491
   23.340    0.5564
   23.355    0.6528
   23.370    0.5993
   23.385    0.5778
   23.400    0.7598
   23.415    0.6314
   23.430    0.6207
   23.445    0.6207
   23.460    0.5350
   23.475    0.6528
   23.490    0.5671
   23.505    0.6635
   23.520    0.6421
   23.535    0.7170
   23.550    0.8454
   23.565    0.7491
   23.580    0.6742
   23.595    0.9524
   23.610    1.0380
   23.625    1.1236
   23.640    1.3483
   23.655    1.5409
   23.670    2.0439
   23.685    2.1723
   23.700    2.2151
   23.715    2.3863
   23.730    2.4612
   23.745    2.2900
   23.760    2.0546
   23.775    1.7121
   23.790    1.4874
   23.805    1.1129
   23.820    0.8775
   23.835    0.6742
   23.850    0.6956
   23.865    0.6100
   23.880    0.7277
   23.895    0.7919
   23.910    0.5993
   23.925    0.6528
   23.940    0.7170
   23.955    0.5243
   23.970    0.7063
   23.985    0.6956
   24.000    0.7170
   24.015    0.7491
   24.030    0.5993
   24.045    0.6635
   24.060    0.6207
   24.075    0.7812
   24.090    0.5457
   24.105    0.5778
   24.120    0.7384
   24.135    0.7919
   24.150    0.5993
   24.165    0.6528
   24.180    0.6100
   24.195    0.6207
   24.210    0.6849
   24.225    0.7384
   24.240    0.6849
   24.255    0.7491
   24.270    0.8668
   24.285    0.6956
   24.300    0.7063
   24.315    0.7063
   24.330    0.6742
   24.345    0.6207
   24.360    0.7812
   24.375    0.6528
   24.390    0.6207
   24.405    0.6956
   24.420    0.6849
   24.435    0.6742
   24.450    0.7277
   24.465    0.7170
   24.480    0.8026
   24.495    0.5993
   24.510    0.6207
   24.525    0.6956
   24.540    0.7812
   24.555    0.6528
   24.570    0.6314
   24.585    0.7063
   24.600    0.6528
   24.615    0.7277
   24.630    0.6742
   24.645    0.6635
   24.660    0.6421
   24.675    0.7598
   24.690    0.5671
   24.705    0.5671
   24.720    0.5778
   24.735    0.5136
   24.750    0.7491
   24.765    0.6956
   24.780    0.7384
   24.795    0.6207
   24.810    0.6314
   24.825    0.6635
   24.840    0.5993
   24.855    0.7277
   24.870    0.7277
   24.885    0.5778
   24.900    0.4708
   24.915    0.6314
   24.930    0.6100
   24.945    0.4708
   24.960    0.6421
   24.975    0.6635
   24.990    0.6421
   25.005    0.7170
   25.020    0.7598
   25.035    0.5993
   25.050    0.5457
   25.065    0.6314
   25.080    0.7277
   25.095    0.6421
   25.110    0.6207
   25.125    0.5564
   25.140    0.5993
   25.155    0.6742
   25.170    0.7384
   25.185    0.6635
   25.200    0.6849
   25.215    0.5243
   25.230    0.7598
   25.245    0.6742
   25.260    0.8347
   25.275    0.6849
   25.290    0.6742
   25.305    0.6742
   25.320    0.5564
   25.335    0.7277
   25.350    0.6956
   25.365    0.8882
   25.380    0.8561
   25.395    0.9845
   25.410    1.2413
   25.425    1.3483
   25.440    1.2841
   25.455    1.0380
   25.470    1.2199
   25.485    1.1022
   25.500    1.0487
   25.515    0.9631
   25.530    0.8882
   25.545    0.6528
   25.560    0.7170
   25.575    0.7491
   25.590    0.8668
   25.605    0.6314
   25.620    0.5778
   25.635    0.7170
   25.650    0.7812
   25.665    0.7491
   25.680    0.7598
   25.695    0.6849
   25.710    0.7491
   25.725    0.6421
   25.740    0.6635
   25.755    0.5886
   25.770    0.8347
   25.785    0.9524
   25.800    0.8882
   25.815    1.0273
   25.830    0.9845
   25.845    1.1771
   25.860    1.2199
   25.875    1.0166
   25.890    1.0701
   25.905    1.0166
   25.920    0.9096
   25.935    1.0487
   25.950    0.8026
   25.965    0.6421
   25.980    0.5993
   25.995    0.5778
   26.010    0.6742
   26.025    0.7170
   26.040    0.7170
   26.055    0.7063
   26.070    0.6207
   26.085    0.7063
   26.100    0.8989
   26.115    0.7705
   26.130    0.7919
   26.145    0.8882
   26.160    1.0487
   26.175    1.2306
   26.190    1.3911
   26.205    1.6586
   26.220    1.8941
   26.235    2.2044
   26.250    2.6003
   26.265    2.3435
   26.280    2.2686
   26.295    2.2472
   26.310    2.2151
   26.325    1.8834
   26.340    1.6158
   26.355    1.0915
   26.370    1.0059
   26.385    0.8668
   26.400    0.7384
   26.415    0.6421
   26.430    0.6100
   26.445    0.6742
   26.460    0.7598
   26.475    0.8240
   26.490    0.7705
   26.505    0.8668
   26.520    0.8454
   26.535    0.8133
   26.550    1.0059
   26.565    1.1450
   26.580    1.2306
   26.595    1.4874
   26.610    1.8620
   26.625    2.1081
   26.640    2.4826
   26.655    2.3863
   26.670    2.3328
   26.685    2.3221
   26.700    2.3221
   26.715    2.0867
   26.730    2.0546
   26.745    1.6372
   26.760    1.1343
   26.775    1.0059
   26.790    0.9096
   26.805    0.7277
   26.820    0.7491
   26.835    0.8026
   26.850    0.7277
   26.865    0.7277
   26.880    0.7277
   26.895    0.7919
   26.910    0.7598
   26.925    0.8133
   26.940    0.8561
   26.955    0.8775
   26.970    0.8133
   26.985    0.8882
   27.000    0.9524
   27.015    1.1664
   27.030    1.2734
   27.045    1.4660
   27.060    1.4660
   27.075    1.3483
   27.090    1.3483
   27.105    1.3269
   27.120    0.9738
   27.135    0.9738
   27.150    0.9203
   27.165    0.8240
   27.180    0.7277
   27.195    0.6956
   27.210    0.7170
   27.225    0.7170
   27.240    0.6742
   27.255    0.6314
   27.270    0.5993
   27.285    0.6421
   27.300    0.7063
   27.315    0.6314
   27.330    0.5564
   27.345    0.7063
   27.360    0.6849
   27.375    0.7919
   27.390    0.7063
   27.405    0.8668
   27.420    0.6956
   27.435    0.7277
   27.450    0.6635
   27.465    0.7063
   27.480    0.9417
   27.495    0.7598
   27.510    0.7812
   27.525    0.8454
   27.540    0.7170
   27.555    0.7277
   27.570    0.7170
   27.585    0.7170
   27.600    0.7063
   27.615    0.5564
   27.630    0.6635
   27.645    0.7491
   27.660    0.6314
   27.675    0.5778
   27.690    0.5671
   27.705    0.4815
   27.720    0.6528
   27.735    0.6421
   27.750    0.6314
   27.765    0.8347
   27.780    1.2092
   27.795    1.1450
   27.810    0.9417
   27.825    1.0273
   27.840    1.1236
   27.855    1.1985
   27.870    0.9845
   27.885    1.0915
   27.900    0.9738
   27.915    1.0166
   27.930    0.9096
   27.945    0.6635
   27.960    0.5243
   27.975    0.6528
   27.990    0.5671
   28.005    0.5350
   28.020    0.7063
   28.035    0.6956
   28.050    0.6207
   28.065    0.6314
   28.080    0.5993
   28.095    0.7063
   28.110    0.6849
   28.125    0.6100
   28.140    0.7598
   28.155    0.6956
   28.170    0.5886
   28.185    0.5350
   28.200    0.6207
   28.215    0.7491
   28.230    0.7598
   28.245    0.7919
   28.260    0.6849
   28.275    0.6956
   28.290    0.7384
   28.305    0.6635
   28.320    0.6742
   28.335    0.5993
   28.350    0.6421
   28.365    0.6849
   28.380    0.7063
   28.395    0.6100
   28.410    0.6742
   28.425    0.5457
   28.440    0.5778
   28.455    0.5136
   28.470    0.4387
   28.485    0.6207
   28.500    0.7491
   28.515    0.6742
   28.530    0.7277
   28.545    0.6421
   28.560    0.7491
   28.575    0.6314
   28.590    0.6956
   28.605    0.5886
   28.620    0.7919
   28.635    0.8026
   28.650    0.6421
   28.665    0.7063
   28.680    0.7384
   28.695    0.7598
   28.710    0.6849
   28.725    0.5457
   28.740    0.5457
   28.755    0.5564
   28.770    0.6849
   28.785    0.7491
   28.800    0.5564
   28.815    0.5564
   28.830    0.7384
   28.845    0.7705
   28.860    0.7170
   28.875    0.8026
   28.890    0.5993
   28.905    0.6207
   28.920    0.5778
   28.935    0.5671
   28.950    0.7919
   28.965    0.7598
   28.980    0.7705
   28.995    0.7491
   29.010    0.7384
   29.025    0.8240
   29.040    0.6956
   29.055    0.6528
   29.070    0.6314
   29.085    0.6100
   29.100    0.6742
   29.115    0.5886
   29.130    0.6849
   29.145    0.6635
   29.160    0.6314
   29.175    0.5457
   29.190    0.6528
   29.205    0.6207
   29.220    0.5350
   29.235    0.6314
   29.250    0.6742
   29.265    0.7491
   29.280    0.7705
   29.295    0.7170
   29.310    0.8133
   29.325    0.8240
   29.340    0.7919
   29.355    0.8026
   29.370    0.9845
   29.385    0.8989
   29.400    0.7063
   29.415    0.5993
   29.430    0.7170
   29.445    0.7491
   29.460    0.7063
   29.475    0.8133
   29.490    0.5993
   29.505    0.6956
   29.520    0.7170
   29.535    0.5886
   29.550    0.5993
   29.565    0.5778
   29.580    0.5886
   29.595    0.6421
   29.610    0.6956
   29.625    0.7170
   29.640    0.6635
   29.655    0.7598
   29.670    0.6742
   29.685    0.7384
   29.700    0.8347
   29.715    0.7812
   29.730    0.6849
   29.745    0.8240
   29.760    0.7812
   29.775    0.8026
   29.790    0.6207
   29.805    0.5671
   29.820    0.7063
   29.835    0.6314
   29.850    0.6528
   29.865    0.5671
   29.880    0.7384
   29.895    0.9096
   29.910    0.8240
   29.925    0.6635
   29.940    0.7170
   29.955    0.8133
   29.970    0.8347
   29.985    0.9096
   30.000    1.2520
   30.015    1.2520
   30.030    1.5944
   30.045    1.6479
   30.060    1.7549
   30.075    1.7657
   30.090    1.8299
   30.105    1.7335
   30.120    1.4660
   30.135    1.3376
   30.150    1.1236
   30.165    1.0380
   30.180    0.7170
   30.195    0.8989
   30.210    0.6314
   30.225    0.6742
   30.240    0.5993
   30.255    0.5457
   30.270    0.4708
   30.285    0.5564
   30.300    0.5778
   30.315    0.6314
   30.330    0.6314
   30.345    0.6314
   30.360    0.6421
   30.375    0.6849
   30.390    0.7277
   30.405    0.7384
   30.420    0.5564
   30.435    0.6421
   30.450    0.6956
   30.465    0.7705
   30.480    0.5243
   30.495    0.5564
   30.510    0.5671
   30.525    0.5993
   30.540    0.5886
   30.555    0.6207
   30.570    0.5350
   30.585    0.5886
   30.600    0.6314
   30.615    0.5778
   30.630    0.5671
   30.645    0.6635
   30.660    0.5993
   30.675    0.6421
   30.690    0.5243
   30.705    0.6100
   30.720    0.7384
   30.735    0.8026
   30.750    0.8775
   30.765    0.8347
   30.780    0.9310
   30.795    0.8133
   30.810    1.0487
   30.825    0.7705
   30.840    0.9417
   30.855    0.8989
   30.870    0.6849
   30.885    0.6314
   30.900    0.5778
   30.915    0.5029
   30.930    0.5778
   30.945    0.6100
   30.960    0.5671
   30.975    0.5564
   30.990    0.5778
   31.005    0.5993
   31.020    0.5457
   31.035    0.5993
   31.050    0.5886
   31.065    0.5778
   31.080    0.6100
   31.095    0.5993
   31.110    0.4815
   31.125    0.5457
   31.140    0.5029
   31.155    0.4387
   31.170    0.4494
   31.185    0.6528
   31.200    0.5671
   31.215    0.5778
   31.230    0.5886
   31.245    0.5886
   31.260    0.5136
   31.275    0.6421
   31.290    0.6314
   31.305    0.5457
   31.320    0.5029
   31.335    0.6207
   31.350    0.6742
   31.365    0.6207
   31.380    0.6528
   31.395    0.7919
   31.410    0.8240
   31.425    0.9096
   31.440    0.9631
   31.455    0.9203
   31.470    1.0273
   31.485    0.9417
   31.500    0.9310
   31.515    0.8882
   31.530    0.9952
   31.545    0.9310
   31.560    0.7063
   31.575    0.8133
   31.590    0.8240
   31.605    0.6849
   31.620    0.6100
   31.635    0.6421
   31.650    0.6528
   31.665    0.5778
   31.680    0.4922
   31.695    0.5564
   31.710    0.5886
   31.725    0.5778
   31.740    0.6100
   31.755    0.5778
   31.770    0.5671
   31.785    0.6100
   31.800    0.5886
   31.815    0.5029
   31.830    0.4494
   31.845    0.4066
   31.860    0.5350
   31.875    0.4922
   31.890    0.5564
   31.905    0.6849
   31.920    0.5243
   31.935    0.5778
   31.950    0.5457
   31.965    0.6207
   31.980    0.5564
   31.995    0.6207
   32.010    0.5350
   32.025    0.6100
   32.040    0.5564
   32.055    0.6742
   32.070    0.6849
   32.085    0.7705
   32.100    0.8668
   32.115    1.0487
   32.130    0.8133
   32.145    0.7277
   32.160    0.9096
   32.175    0.9524
   32.190    0.8882
   32.205    0.7491
   32.220    0.7812
   32.235    0.7063
   32.250    0.7705
   32.265    0.7598
   32.280    0.5671
   32.295    0.5671
   32.310    0.4387
   32.325    0.5457
   32.340    0.4815
   32.355    0.5671
   32.370    0.6956
   32.385    0.6742
   32.400    0.5457
   32.415    0.5993
   32.430    0.5778
   32.445    0.6528
   32.460    0.6742
   32.475    0.7277
   32.490    0.7063
   32.505    0.6314
   32.520    0.6528
   32.535    0.8668
   32.550    0.8347
   32.565    0.8882
   32.580    0.7812
   32.595    0.8882
   32.610    0.8775
   32.625    0.6956
   32.640    0.6421
   32.655    0.8026
   32.670    0.8882
   32.685    0.8026
   32.700    0.8240
   32.715    0.8561
   32.730    0.8240
   32.745    0.8561
   32.760    0.8347
   32.775    0.8668
   32.790    0.9096
   32.805    0.9952
   32.820    1.0594
   32.835    0.9952
   32.850    1.1129
   32.865    1.0273
   32.880    1.0594
   32.895    0.9524
   32.910    0.8240
   32.925    0.8347
   32.940    0.8133
   32.955    0.7491
   32.970    0.5993
   32.985    0.5564
   33.000    0.5564
   33.015    0.6100
   33.030    0.6528
   33.045    0.5993
   33.060    0.6956
   33.075    0.6956
   33.090    0.7170
   33.105    0.9096
   33.120    1.0701
   33.135    0.8133
   33.150    0.8882
   33.165    0.9524
   33.180    0.8775
   33.195    0.8775
   33.210    0.8882
   33.225    1.0059
   33.240    0.6849
   33.255    0.7384
   33.270    0.7491
   33.285    0.5564
   33.300    0.6849
   33.315    0.6314
   33.330    0.5457
   33.345    0.5029
   33.360    0.6207
   33.375    0.5564
   33.390    0.5886
   33.405    0.5243
   33.420    0.4922
   33.435    0.5350
   33.450    0.5136
   33.465    0.5136
   33.480    0.5457
   33.495    0.5136
   33.510    0.6207
   33.525    0.6207
   33.540    0.5564
   33.555    0.5136
   33.570    0.5029
   33.585    0.4708
   33.600    0.5243
   33.615    0.5886
   33.630    0.5671
   33.645    0.5243
   33.660    0.5886
   33.675    0.5778
   33.690    0.5671
   33.705    0.6956
   33.720    0.7170
   33.735    0.8775
   33.750    0.9631
   33.765    0.9417
   33.780    0.8668
   33.795    0.7812
   33.810    0.7491
   33.825    0.8347
   33.840    0.7705
   33.855    0.7277
   33.870    0.5778
   33.885    0.5350
   33.900    0.6421
   33.915    0.4601
   33.930    0.5778
   33.945    0.5886
   33.960    0.5136
   33.975    0.4708
   33.990    0.6100
   34.005    0.5886
   34.020    0.4815
   34.035    0.6100
   34.050    0.8347
   34.065    0.7170
   34.080    0.8133
   34.095    0.9096
   34.110    0.8561
   34.125    0.9096
   34.140    0.8561
   34.155    0.8668
   34.170    0.7919
   34.185    0.8882
   34.200    0.8882
   34.215    0.7919
   34.230    0.5886
   34.245    0.5993
   34.260    0.5778
   34.275    0.5350
   34.290    0.5778
   34.305    0.5243
   34.320    0.5671
   34.335    0.5993
   34.350    0.5243
   34.365    0.5457
   34.380    0.4815
   34.395    0.4280
   34.410    0.4922
   34.425    0.5350
   34.440    0.5136
   34.455    0.5457
   34.470    0.4601
   34.485    0.4708
   34.500    0.4601
   34.515    0.5778
   34.530    0.4601
   34.545    0.4601
   34.560    0.5671
   34.575    0.4387
   34.590    0.4708
   34.605    0.5136
   34.620    0.5136
   34.635    0.4494
   34.650    0.5778
   34.665    0.4815
   34.680    0.5350
   34.695    0.6849
   34.710    0.7812
   34.725    0.7277
   34.740    0.6100
   34.755    0.6956
   34.770    0.5778
   34.785    0.6314
   34.800    0.6100
   34.815    0.5778
   34.830    0.7598
   34.845    0.6421
   34.860    0.5993
   34.875    0.5886
   34.890    0.4494
   34.905    0.4922
   34.920    0.4387
   34.935    0.5778
   34.950    0.5136
   34.965    0.5350
   34.980    0.5778
   34.995    0.5671
   35.010    0.5457
   35.025    0.7170
   35.040    0.5778
   35.055    0.5564
   35.070    0.7063
   35.085    0.5778
   35.100    0.5671
   35.115    0.5029
   35.130    0.5564
   35.145    0.6635
   35.160    0.6528
   35.175    0.6528
   35.190    0.5243
   35.205    0.5564
   35.220    0.5243
   35.235    0.4815
   35.250    0.6314
   35.265    0.6849
   35.280    0.4922
   35.295    0.4066
   35.310    0.5136
   35.325    0.5243
   35.340    0.5136
   35.355    0.6528
   35.370    0.6314
   35.385    0.5993
   35.400    0.6956
   35.415    0.6528
   35.430    0.5564
   35.445    0.4922
   35.460    0.5457
   35.475    0.5671
   35.490    0.5243
   35.505    0.5243
   35.520    0.5564
   35.535    0.4066
   35.550    0.4173
   35.565    0.4922
   35.580    0.6421
   35.595    0.5886
   35.610    0.4922
   35.625    0.5671
   35.640    0.7812
   35.655    0.7812
   35.670    0.7705
   35.685    0.7384
   35.700    0.6421
   35.715    0.7170
   35.730    0.7170
   35.745    0.5778
   35.760    0.5564
   35.775    0.7705
   35.790    0.6207
   35.805    0.6314
   35.820    0.5671
   35.835    0.5993
   35.850    0.5350
   35.865    0.4922
   35.880    0.3959
   35.895    0.5457
   35.910    0.5350
   35.925    0.5778
   35.940    0.5886
   35.955    0.5778
   35.970    0.4601
   35.985    0.5564
   36.000    0.5243
   36.015    0.4494
   36.030    0.4922
   36.045    0.5564
   36.060    0.4922
   36.075    0.5457
   36.090    0.5350
   36.105    0.4922
   36.120    0.5136
   36.135    0.3852
   36.150    0.5243
   36.165    0.4708
   36.180    0.4601
   36.195    0.4387
   36.210    0.4922
   36.225    0.5778
   36.240    0.5778
   36.255    0.5564
   36.270    0.5778
   36.285    0.5029
   36.300    0.3959
   36.315    0.4280
   36.330    0.4601
   36.345    0.4280
   36.360    0.4815
   36.375    0.5778
   36.390    0.4815
   36.405    0.4922
   36.420    0.5350
   36.435    0.5993
   36.450    0.5136
   36.465    0.5778
   36.480    0.6207
   36.495    0.5564
   36.510    0.4922
   36.525    0.5671
   36.540    0.6421
   36.555    0.7705
   36.570    0.6635
   36.585    0.6956
   36.600    0.7812
   36.615    0.7598
   36.630    0.8026
   36.645    0.7491
   36.660    0.7384
   36.675    0.7384
   36.690    0.7705
   36.705    0.7063
   36.720    0.7170
   36.735    0.6528
   36.750    0.6100
   36.765    0.7277
   36.780    0.8240
   36.795    0.6956
   36.810    0.7598
   36.825    0.7384
   36.840    0.8989
   36.855    0.8989
   36.870    1.0059
   36.885    1.0594
   36.900    0.8882
   36.915    0.8561
   36.930    1.0273
   36.945    0.9952
   36.960    0.9738
   36.975    1.1557
   36.990    1.0380
   37.005    1.0380
   37.020    0.9845
   37.035    1.1664
   37.050    1.1985
   37.065    1.0594
   37.080    1.0273
   37.095    0.9524
   37.110    1.0594
   37.125    1.0487
   37.140    1.1343
   37.155    1.1450
   37.170    1.1129
   37.185    1.0594
   37.200    1.0594
   37.215    0.9096
   37.230    0.9952
   37.245    0.6421
   37.260    0.6100
   37.275    0.7170
   37.290    0.7598
   37.305    0.6635
   37.320    0.8026
   37.335    0.7384
   37.350    0.7277
   37.365    0.7063
   37.380    0.9738
   37.395    0.8026
   37.410    1.1236
   37.425    1.0273
   37.440    1.0059
   37.455    1.0166
   37.470    1.0701
   37.485    0.9417
   37.500    0.9631
   37.515    0.8668
   37.530    0.7384
   37.545    0.7277
   37.560    0.7812
   37.575    0.7277
   37.590    0.5136
   37.605    0.5457
   37.620    0.5886
   37.635    0.5886
   37.650    0.5136
   37.665    0.4922
   37.680    0.4173
   37.695    0.4494
   37.710    0.5029
   37.725    0.5457
   37.740    0.5457
   37.755    0.4601
   37.770    0.4922
   37.785    0.4173
   37.800    0.3959
   37.815    0.3959
   37.830    0.3745
   37.845    0.4494
   37.860    0.4387
   37.875    0.5243
   37.890    0.4387
   37.905    0.3852
   37.920    0.3531
   37.935    0.5136
   37.950    0.3424
   37.965    0.3745
   37.980    0.3638
   37.995    0.4601
   38.010    0.3852
   38.025    0.4066
   38.040    0.3959
   38.055    0.4173
   38.070    0.3745
   38.085    0.4173
   38.100    0.4601
   38.115    0.5778
   38.130    0.4601
   38.145    0.4922
   38.160    0.4815
   38.175    0.5564
   38.190    0.5457
   38.205    0.4601
   38.220    0.5350
   38.235    0.5136
   38.250    0.4708
   38.265    0.3638
   38.280    0.6742
   38.295    0.6742
   38.310    0.6528
   38.325    0.5886
   38.340    0.5457
   38.355    0.5243
   38.370    0.5886
   38.385    0.6421
   38.400    0.6528
   38.415    0.5457
   38.430    0.6849
   38.445    0.6100
   38.460    0.5993
   38.475    0.5457
   38.490    0.4922
   38.505    0.4815
   38.520    0.5029
   38.535    0.4922
   38.550    0.5243
   38.565    0.3852
   38.580    0.3531
   38.595    0.3317
   38.610    0.4708
   38.625    0.5457
   38.640    0.4173
   38.655    0.4922
   38.670    0.4387
   38.685    0.5029
   38.700    0.3959
   38.715    0.3959
   38.730    0.3959
   38.745    0.3531
   38.760    0.4708
   38.775    0.4601
   38.790    0.4066
   38.805    0.3424
   38.820    0.4601
   38.835    0.4922
   38.850    0.3959
   38.865    0.3852
   38.880    0.5029
   38.895    0.3745
   38.910    0.3531
   38.925    0.4922
   38.940    0.3852
   38.955    0.4601
   38.970    0.4387
   38.985    0.3959
   39.000    0.3317
   39.015    0.5243
   39.030    0.4387
   39.045    0.4815
   39.060    0.4601
   39.075    0.5778
   39.090    0.4601
   39.105    0.4387
   39.120    0.5029
   39.135    0.5029
   39.150    0.4280
   39.165    0.5029
   39.180    0.5029
   39.195    0.4387
   39.210    0.4815
   39.225    0.6314
   39.240    0.5778
   39.255    0.4708
   39.270    0.5136
   39.285    0.4922
   39.300    0.5029
   39.315    0.5029
   39.330    0.5136
   39.345    0.5029
   39.360    0.6421
   39.375    0.5778
   39.390    0.5564
   39.405    0.6528
   39.420    0.7170
   39.435    0.7812
   39.450    0.8240
   39.465    0.8133
   39.480    1.0059
   39.495    0.9417
   39.510    0.9631
   39.525    1.0594
   39.540    0.9203
   39.555    0.8775
   39.570    0.7919
   39.585    0.8561
   39.600    0.6956
   39.615    0.5778
   39.630    0.5350
   39.645    0.6742
   39.660    0.5671
   39.675    0.4815
   39.690    0.6528
   39.705    0.7491
   39.720    0.6421
   39.735    0.6849
   39.750    0.5671
   39.765    0.5243
   39.780    0.6207
   39.795    0.5886
   39.810    0.6207
   39.825    0.5243
   39.840    0.5886
   39.855    0.6528
   39.870    0.5457
   39.885    0.6742
   39.900    0.7277
   39.915    0.6849
   39.930    0.4708
   39.945    0.6635
   39.960    0.6314
   39.975    0.5886
   39.990    0.6528
