    1.500    9.0209
    1.515    9.1493
    1.530    8.8925
    1.545    8.7105
    1.560    8.8068
    1.575    8.3788
    1.590    8.4751
    1.605    8.1648
    1.620    8.7426
    1.635    8.1648
    1.650    8.2397
    1.665    7.9722
    1.680    7.7903
    1.695    7.8224
    1.710    7.7154
    1.725    7.5762
    1.740    7.6833
    1.755    7.1375
    1.770    7.2231
    1.785    7.2338
    1.800    6.9556
    1.815    6.6988
    1.830    6.9770
    1.845    6.9021
    1.860    6.9128
    1.875    6.4741
    1.890    7.2873
    1.905    6.9235
    1.920    6.7309
    1.935    6.6346
    1.950    6.3242
    1.965    6.7416
    1.980    6.6346
    1.995    6.7523
    2.010    6.5276
    2.025    6.3563
    2.040    6.4955
    2.055    6.3991
    2.070    5.9711
    2.085    6.0888
    2.100    5.9604
    2.115    5.6501
    2.130    5.6822
    2.145    6.1851
    2.160    5.8962
    2.175    5.8427
    2.190    6.1102
    2.205    5.6929
    2.220    5.9069
    2.235    5.8534
    2.250    5.6501
    2.265    5.5217
    2.280    5.4147
    2.295    5.0080
    2.310    5.2006
    2.325    5.2220
    2.340    5.3184
    2.355    5.3612
    2.370    5.1685
    2.385    4.9866
    2.400    4.7191
    2.415    5.0508
    2.430    4.8796
    2.445    4.8475
    2.460    5.0829
    2.475    5.0829
    2.490    5.0829
    2.505    4.6549
    2.520    4.8154
    2.535    4.9545
    2.550    4.7298
    2.565    4.8261
    2.580    5.1043
    2.595    4.6335
    2.610    4.8261
    2.625    4.5800
    2.640    4.5372
    2.655    4.4730
    2.670    4.2162
    2.685    4.7512
    2.700    4.7619
    2.715    4.2911
    2.730    4.5907
    2.745    4.1948
    2.760    4.6228
    2.775    4.2697
    2.790    4.4623
    2.805    4.3018
    2.820    4.0984
    2.835    4.5800
    2.850    4.4195
    2.865    4.3553
    2.880    4.1948
    2.895    4.3553
    2.910    4.2911
    2.925    4.2697
    2.940    4.4195
    2.955    4.1520
    2.970    4.4302
    2.985    4.2376
    3.000    4.4837
    3.015    4.1627
    3.030    4.1306
    3.045    4.2162
    3.060    4.1091
    3.075    4.1627
    3.090    4.3874
    3.105    4.3553
    3.120    4.2804
    3.135    4.0021
    3.150    3.9593
    3.165    4.1948
    3.180    4.3232
    3.195    4.0663
    3.210    4.0128
    3.225    4.4623
    3.240    4.5051
    3.255    4.4944
    3.270    4.7405
    3.285    4.4944
    3.300    4.5051
    3.315    4.6656
    3.330    4.4302
    3.345    4.8475
    3.360    4.6763
    3.375    4.6121
    3.390    4.5907
    3.405    4.9652
    3.420    4.9438
    3.435    4.9438
    3.450    5.1899
    3.465    5.1364
    3.480    5.3719
    3.495    5.4147
    3.510    5.2970
    3.525    5.4254
    3.540    5.7678
    3.555    6.0460
    3.570    5.8534
    3.585    5.8106
    3.600    6.1744
    3.615    6.0995
    3.630    6.2600
    3.645    6.6239
    3.660    6.4633
    3.675    7.3408
    3.690    6.8700
    3.705    6.7416
    3.720    7.4906
    3.735    7.6512
    3.750    7.5334
    3.765    7.7796
    3.780    7.7689
    3.795    8.1755
    3.810    8.5714
    3.825    9.1814
    3.840    8.4858
    3.855    8.9246
    3.870    9.4489
    3.885    9.8769
    3.900   10.1873
    3.915   10.2194
    3.930   10.5832
    3.945   11.5570
    3.960   11.8566
    3.975   12.5950
    3.990   12.7555
    4.005   13.1407
    4.020   13.2156
    4.035   13.7293
    4.050   14.2964
    4.065   15.0776
    4.080   16.4152
    4.095   16.3938
    4.110   17.2606
    4.125   17.9240
    4.140   19.0155
    4.155   20.6635
    4.170   21.2306
    4.185   21.3162
    4.200   22.5147
    4.215   24.0128
    4.230   24.5479
    4.245   26.4848
    4.260   28.1862
    4.275   29.5345
    4.290   31.9101
    4.305   33.5046
    4.320   35.8802
    4.335   38.5019
    4.350   40.5779
    4.365   44.2162
    4.380   48.1648
    4.395   52.5736
    4.410   55.6554
    4.425   61.6800
    4.440   69.1814
    4.455   77.6351
    4.470   89.3740
    4.485  106.2279
    4.500  134.3927
    4.515  176.3617
    4.530  194.7459
    4.545  128.5821
    4.560   34.4034
    4.575    7.5227
    4.590    4.0877
    4.605    2.9213
    4.620    2.5575
    4.635    2.5361
    4.650    2.4291
    4.665    2.3114
    4.680    2.2900
    4.695    2.0011
    4.710    2.0653
    4.725    2.0332
    4.740    2.0011
    4.755    1.7764
    4.770    2.0225
    4.785    2.0225
    4.800    2.0011
    4.815    1.8941
    4.830    2.0011
    4.845    1.8085
    4.860    1.9048
    4.875    1.9476
    4.890    1.7014
    4.905    1.7549
    4.920    1.7228
    4.935    1.7549
    4.950    1.8406
    4.965    1.6158
    4.980    1.6479
    4.995    1.7014
    5.010    1.9476
    5.025    1.8299
    5.040    1.6479
    5.055    1.7335
    5.070    1.6158
    5.085    1.4660
    5.100    1.6479
    5.115    1.6586
    5.130    1.7657
    5.145    1.6051
    5.160    1.7335
    5.175    1.7442
    5.190    1.6051
    5.205    1.6693
    5.220    1.5944
    5.235    1.7764
    5.250    1.8299
    5.265    1.8085
    5.280    1.9369
    5.295    1.7657
    5.310    1.9155
    5.325    1.7228
    5.340    1.6586
    5.355    1.6907
    5.370    1.6907
    5.385    1.5623
    5.400    1.4874
    5.415    1.5516
    5.430    1.4767
    5.445    1.6586
    5.460    1.6586
    5.475    1.7228
    5.490    1.6051
    5.505    1.6693
    5.520    1.5730
    5.535    1.7871
    5.550    1.7764
    5.565    1.6158
    5.580    1.9048
    5.595    1.7657
    5.610    1.9476
    5.625    1.7871
    5.640    1.6693
    5.655    1.7657
    5.670    1.7978
    5.685    1.8727
    5.700    2.0225
    5.715    2.1402
    5.730    2.0332
    5.745    2.0011
    5.760    2.2151
    5.775    2.1830
    5.790    2.2044
    5.805    2.0225
    5.820    2.2151
    5.835    2.2472
    5.850    2.2472
    5.865    2.4719
    5.880    2.5575
    5.895    2.4398
    5.910    2.8999
    5.925    2.7180
    5.940    2.8785
    5.955    2.9106
    5.970    3.0177
    5.985    3.1033
    6.000    3.3280
    6.015    3.4457
    6.030    3.4457
    6.045    3.8202
    6.060    3.8202
    6.075    4.0021
    6.090    4.1091
    6.105    4.4623
    6.120    4.8475
    6.135    4.8368
    6.150    5.3933
    6.165    5.4789
    6.180    6.1316
    6.195    6.2386
    6.210    6.7951
    6.225    7.7689
    6.240    8.3788
    6.255    8.6570
    6.270    9.6201
    6.285   10.2729
    6.300   11.0754
    6.315   11.8994
    6.330   13.3654
    6.345   15.7410
    6.360   18.7373
    6.375   22.2900
    6.390   29.6415
    6.405   36.4687
    6.420   31.9315
    6.435   16.3724
    6.450    4.9010
    6.465    1.7871
    6.480    1.5944
    6.495    1.2199
    6.510    1.2734
    6.525    1.2199
    6.540    1.2413
    6.555    1.2413
    6.570    1.2948
    6.585    1.1771
    6.600    1.1236
    6.615    1.1022
    6.630    1.3269
    6.645    1.1236
    6.660    1.3055
    6.675    1.1022
    6.690    1.1878
    6.705    1.2306
    6.720    1.0059
    6.735    0.9738
    6.750    1.0915
    6.765    1.1985
    6.780    1.2092
    6.795    1.1343
    6.810    1.0701
    6.825    1.2306
    6.840    1.1129
    6.855    1.3590
    6.870    0.9417
    6.885    1.0059
    6.900    1.1771
    6.915    1.1985
    6.930    1.2627
    6.945    1.0701
    6.960    1.2841
    6.975    1.1557
    6.990    1.2306
    7.005    1.2092
    7.020    1.2734
    7.035    1.2199
    7.050    1.2520
    7.065    1.1236
    7.080    1.1450
    7.095    1.2092
    7.110    1.0273
    7.125    0.9845
    7.140    0.9952
    7.155    1.0166
    7.170    1.0059
    7.185    1.1343
    7.200    1.1878
    7.215    1.0701
    7.230    1.1343
    7.245    1.2306
    7.260    1.2520
    7.275    1.1236
    7.290    1.1557
    7.305    1.2413
    7.320    1.1557
    7.335    1.1343
    7.350    1.1129
    7.365    1.1771
    7.380    1.2948
    7.395    1.1129
    7.410    1.1450
    7.425    1.1450
    7.440    1.3055
    7.455    1.2306
    7.470    1.1557
    7.485    1.2413
    7.500    1.4767
    7.515    1.1771
    7.530    1.1450
    7.545    1.2306
    7.560    1.3590
    7.575    1.2413
    7.590    1.3590
    7.605    1.3590
    7.620    1.2199
    7.635    1.3590
    7.650    1.4660
    7.665    1.3911
    7.680    1.5409
    7.695    1.6800
    7.710    1.4018
    7.725    1.6479
    7.740    1.8941
    7.755    1.9262
    7.770    1.9155
    7.785    2.0439
    7.800    2.1830
    7.815    2.5682
    7.830    2.9856
    7.845    3.5955
    7.860    3.7774
    7.875    2.9428
    7.890    1.5623
    7.905    1.3055
    7.920    1.1022
    7.935    0.9738
    7.950    1.0380
    7.965    0.8668
    7.980    1.0166
    7.995    0.9524
    8.010    1.1557
    8.025    1.1236
    8.040    1.0808
    8.055    1.1664
    8.070    0.9738
    8.085    0.9738
    8.100    1.0059
    8.115    1.0380
    8.130    1.0059
    8.145    0.9631
    8.160    1.0059
    8.175    1.0487
    8.190    1.0915
    8.205    1.1878
    8.220    0.9631
    8.235    1.0166
    8.250    0.9524
    8.265    1.0594
    8.280    1.0487
    8.295    1.0059
    8.310    0.9845
    8.325    1.1129
    8.340    0.9952
    8.355    0.9417
    8.370    1.0166
    8.385    1.0487
    8.400    1.0166
    8.415    1.1985
    8.430    1.1771
    8.445    1.0059
    8.460    1.0808
    8.475    0.9738
    8.490    1.0594
    8.505    1.0808
    8.520    1.1022
    8.535    1.2413
    8.550    1.1985
    8.565    0.9203
    8.580    1.2841
    8.595    1.1985
    8.610    1.3162
    8.625    1.2413
    8.640    1.2306
    8.655    1.2734
    8.670    1.4339
    8.685    1.1878
    8.700    1.2092
    8.715    1.1557
    8.730    1.3590
    8.745    1.6693
    8.760    1.7442
    8.775    1.7121
    8.790    1.8620
    8.805    1.8513
    8.820    1.9048
    8.835    1.7228
    8.850    2.1830
    8.865    2.1616
    8.880    2.3221
    8.895    2.4398
    8.910    2.5147
    8.925    2.8785
    8.940    3.2745
    8.955    3.2638
    8.970    3.7239
    8.985    4.0021
    9.000    4.7084
    9.015    5.4040
    9.030    6.0460
    9.045    8.1006
    9.060    9.8769
    9.075   10.9470
    9.090    8.6784
    9.105    4.9759
    9.120    1.8941
    9.135    1.0594
    9.150    1.0487
    9.165    0.9203
    9.180    0.8989
    9.195    0.8989
    9.210    1.0166
    9.225    1.0701
    9.240    0.8347
    9.255    0.8561
    9.270    1.0594
    9.285    0.9524
    9.300    0.8347
    9.315    0.8882
    9.330    1.0808
    9.345    0.9203
    9.360    0.8775
    9.375    0.8240
    9.390    0.9845
    9.405    0.8882
    9.420    1.0059
    9.435    0.9203
    9.450    0.8347
    9.465    0.9738
    9.480    0.9417
    9.495    0.9203
    9.510    0.8668
    9.525    0.8240
    9.540    0.8989
    9.555    0.9096
    9.570    0.9738
    9.585    0.8561
    9.600    0.7919
    9.615    0.9524
    9.630    0.8561
    9.645    0.7919
    9.660    0.8668
    9.675    0.9738
    9.690    0.9738
    9.705    1.0380
    9.720    1.0915
    9.735    0.9738
    9.750    0.9631
    9.765    1.0166
    9.780    0.9096
    9.795    0.9845
    9.810    0.8026
    9.825    1.0487
    9.840    0.9952
    9.855    0.9738
    9.870    1.0166
    9.885    0.8882
    9.900    1.0166
    9.915    1.0594
    9.930    1.0701
    9.945    1.1878
    9.960    1.0915
    9.975    0.9631
    9.990    1.1664
   10.005    1.0594
   10.020    1.0487
   10.035    1.1985
   10.050    1.2199
   10.065    1.3804
   10.080    1.4018
   10.095    1.5088
   10.110    1.5837
   10.125    1.8513
   10.140    2.0439
   10.155    2.0439
   10.170    1.4660
   10.185    1.1343
   10.200    0.9952
   10.215    1.0594
   10.230    1.0273
   10.245    1.0273
   10.260    1.0059
   10.275    0.9738
   10.290    0.9738
   10.305    1.0059
   10.320    0.8668
   10.335    0.9417
   10.350    0.9096
   10.365    0.9203
   10.380    0.9203
   10.395    0.9845
   10.410    0.8882
   10.425    0.9310
   10.440    0.7705
   10.455    0.7491
   10.470    0.8882
   10.485    0.8347
   10.500    0.9096
   10.515    0.7812
   10.530    0.9310
   10.545    1.1022
   10.560    0.9417
   10.575    0.8882
   10.590    0.9096
   10.605    1.0273
   10.620    1.1022
   10.635    1.1771
   10.650    0.9845
   10.665    1.0166
   10.680    1.1664
   10.695    1.0701
   10.710    1.2306
   10.725    1.2092
   10.740    1.2627
   10.755    1.2948
   10.770    1.4232
   10.785    1.4232
   10.800    1.7121
   10.815    1.6051
   10.830    1.6265
   10.845    1.7978
   10.860    1.9690
   10.875    2.2258
   10.890    2.0546
   10.905    2.0867
   10.920    2.4612
   10.935    2.8357
   10.950    3.0284
   10.965    3.4992
   10.980    4.1413
   10.995    4.2055
   11.010    5.0401
   11.025    5.5645
   11.040    6.3349
   11.055    7.5441
   11.070    8.6891
   11.085   11.3537
   11.100   14.7994
   11.115   18.6838
   11.130   17.6779
   11.145   12.6164
   11.160    6.1958
   11.175    2.4826
   11.190    1.3483
   11.205    0.8989
   11.220    0.7277
   11.235    0.9203
   11.250    1.0059
   11.265    1.0487
   11.280    0.9096
   11.295    0.9417
   11.310    0.8668
   11.325    0.8240
   11.340    0.8347
   11.355    0.8775
   11.370    1.0273
   11.385    0.8668
   11.400    0.8882
   11.415    0.8133
   11.430    0.8347
   11.445    0.6421
   11.460    0.8240
   11.475    0.7277
   11.490    0.7384
   11.505    0.8989
   11.520    0.9845
   11.535    0.9524
   11.550    0.8026
   11.565    0.8882
   11.580    1.0701
   11.595    0.9310
   11.610    0.9845
   11.625    0.9738
   11.640    0.8561
   11.655    0.9952
   11.670    1.0273
   11.685    1.0059
   11.700    0.9738
   11.715    1.0059
   11.730    1.1236
   11.745    1.1129
   11.760    1.1129
   11.775    1.2092
   11.790    1.1450
   11.805    1.0594
   11.820    1.1664
   11.835    1.1664
   11.850    1.4553
   11.865    1.8192
   11.880    1.4232
   11.895    1.5088
   11.910    1.9690
   11.925    1.9369
   11.940    2.2044
   11.955    2.8143
   11.970    3.0070
   11.985    3.7881
   12.000    5.1043
   12.015    5.7250
   12.030    5.2755
   12.045    3.4136
   12.060    1.9262
   12.075    1.0594
   12.090    0.9203
   12.105    0.8240
   12.120    0.8347
   12.135    0.8240
   12.150    0.8454
   12.165    0.7598
   12.180    0.8775
   12.195    0.7384
   12.210    0.7812
   12.225    0.8454
   12.240    0.8775
   12.255    0.7063
   12.270    0.7705
   12.285    0.8133
   12.300    0.7170
   12.315    0.8347
   12.330    0.8240
   12.345    0.7919
   12.360    0.7277
   12.375    0.7919
   12.390    0.8668
   12.405    0.8133
   12.420    0.8133
   12.435    0.7919
   12.450    0.7384
   12.465    0.9096
   12.480    0.8989
   12.495    0.9631
   12.510    0.9096
   12.525    1.0166
   12.540    1.0380
   12.555    0.9845
   12.570    0.9738
   12.585    1.1236
   12.600    1.0594
   12.615    1.1771
   12.630    0.9952
   12.645    1.3483
   12.660    1.3162
   12.675    1.4874
   12.690    1.6586
   12.705    1.5409
   12.720    1.7764
   12.735    2.0011
   12.750    2.0974
   12.765    2.4933
   12.780    2.8785
   12.795    3.4243
   12.810    4.6228
   12.825    5.5003
   12.840    6.4848
   12.855    6.4955
   12.870    5.4682
   12.885    3.2424
   12.900    1.7657
   12.915    1.0380
   12.930    0.8561
   12.945    0.9203
   12.960    0.9417
   12.975    0.7063
   12.990    0.8026
   13.005    0.7491
   13.020    0.8240
   13.035    0.9631
   13.050    0.8133
   13.065    0.7919
   13.080    0.8026
   13.095    0.8454
   13.110    0.7491
   13.125    0.6956
   13.140    0.8454
   13.155    0.7170
   13.170    0.7384
   13.185    0.7491
   13.200    0.9524
   13.215    0.8775
   13.230    0.7919
   13.245    0.8668
   13.260    0.7919
   13.275    0.8668
   13.290    0.7812
   13.305    0.8026
   13.320    0.8133
   13.335    0.9096
   13.350    0.8454
   13.365    0.9096
   13.380    1.0059
   13.395    1.0059
   13.410    1.1022
   13.425    1.0487
   13.440    1.1343
   13.455    1.2948
   13.470    1.2734
   13.485    1.3376
   13.500    1.4232
   13.515    1.5195
   13.530    1.7549
   13.545    1.7764
   13.560    2.2686
   13.575    2.5147
   13.590    3.1247
   13.605    3.8202
   13.620    5.0722
   13.635    5.4789
   13.650    4.5051
   13.665    3.1247
   13.680    1.8941
   13.695    1.0059
   13.710    0.8668
   13.725    0.9631
   13.740    0.7705
   13.755    0.7491
   13.770    0.6421
   13.785    0.7812
   13.800    0.7170
   13.815    0.7919
   13.830    0.8240
   13.845    0.7919
   13.860    0.7705
   13.875    0.8133
   13.890    0.8775
   13.905    0.7170
   13.920    0.6742
   13.935    0.5993
   13.950    0.7384
   13.965    0.7277
   13.980    0.6742
   13.995    0.7170
   14.010    0.7919
   14.025    0.6742
   14.040    0.7919
   14.055    0.7384
   14.070    0.7919
   14.085    0.8347
   14.100    0.7277
   14.115    0.6314
   14.130    0.7812
   14.145    0.6528
   14.160    0.6956
   14.175    0.8133
   14.190    0.8240
   14.205    0.8454
   14.220    0.9631
   14.235    0.8668
   14.250    0.8240
   14.265    0.8133
   14.280    0.8989
   14.295    0.9524
   14.310    1.0915
   14.325    0.9631
   14.340    1.1771
   14.355    1.2092
   14.370    1.3269
   14.385    1.3269
   14.400    1.2413
   14.415    1.1129
   14.430    0.7598
   14.445    0.8133
   14.460    0.7384
   14.475    0.8240
   14.490    0.7812
   14.505    0.6849
   14.520    0.6421
   14.535    0.7491
   14.550    0.7170
   14.565    0.8347
   14.580    0.8133
   14.595    0.7812
   14.610    0.8454
   14.625    0.7277
   14.640    0.8347
   14.655    0.8454
   14.670    0.7277
   14.685    0.7063
   14.700    0.6528
   14.715    0.7277
   14.730    0.8668
   14.745    0.7919
   14.760    0.7598
   14.775    0.7384
   14.790    0.7063
   14.805    0.6207
   14.820    0.8347
   14.835    0.8882
   14.850    0.9096
   14.865    0.7598
   14.880    0.8133
   14.895    0.8668
   14.910    1.0380
   14.925    1.0059
   14.940    1.2734
   14.955    1.3804
   14.970    1.4446
   14.985    1.5730
   15.000    1.4874
   15.015    1.9262
   15.030    2.2900
   15.045    2.8036
   15.060    3.5313
   15.075    4.0449
   15.090    3.6918
   15.105    3.2103
   15.120    2.3114
   15.135    1.2734
   15.150    0.7063
   15.165    0.8133
   15.180    0.7919
   15.195    0.8026
   15.210    0.6849
   15.225    0.5778
   15.240    0.7170
   15.255    0.6314
   15.270    0.7812
   15.285    0.6849
   15.300    0.7277
   15.315    0.6849
   15.330    0.5350
   15.345    0.7919
   15.360    0.7491
   15.375    0.7705
   15.390    0.6314
   15.405    0.7277
   15.420    0.6421
   15.435    0.8026
   15.450    0.8026
   15.465    0.7170
   15.480    0.8240
   15.495    0.7491
   15.510    0.7919
   15.525    0.7812
   15.540    0.7491
   15.555    0.7491
   15.570    0.8668
   15.585    0.8454
   15.600    0.8454
   15.615    0.8775
   15.630    0.9738
   15.645    1.1985
   15.660    0.9738
   15.675    1.3162
   15.690    1.4125
   15.705    1.5837
   15.720    1.6051
   15.735    2.0546
   15.750    2.5254
   15.765    2.2579
   15.780    2.0653
   15.795    1.5730
   15.810    1.0273
   15.825    0.8989
   15.840    0.6742
   15.855    0.6421
   15.870    0.7812
   15.885    0.5350
   15.900    0.5564
   15.915    0.6849
   15.930    0.5778
   15.945    0.6100
   15.960    0.7384
   15.975    0.6849
   15.990    0.6314
   16.005    0.7491
   16.020    0.7919
   16.035    0.7491
   16.050    0.7063
   16.065    0.5886
   16.080    0.6314
   16.095    0.7170
   16.110    0.7491
   16.125    0.8026
   16.140    0.8561
   16.155    0.8026
   16.170    0.7919
   16.185    0.7170
   16.200    0.8240
   16.215    0.9096
   16.230    0.8026
   16.245    0.8561
   16.260    1.0487
   16.275    1.0915
   16.290    1.0594
   16.305    1.1557
   16.320    1.3269
   16.335    1.4018
   16.350    1.6693
   16.365    1.9690
   16.380    2.4933
   16.395    2.8357
   16.410    2.8892
   16.425    2.5468
   16.440    2.2044
   16.455    1.3804
   16.470    0.9952
   16.485    0.6528
   16.500    0.7277
   16.515    0.7598
   16.530    0.7491
   16.545    0.7277
   16.560    0.6528
   16.575    0.6207
   16.590    0.7277
   16.605    0.6421
   16.620    0.7170
   16.635    0.7491
   16.650    0.7277
   16.665    0.6100
   16.680    0.7277
   16.695    0.6314
   16.710    0.5457
   16.725    0.6207
   16.740    0.7598
   16.755    0.7491
   16.770    0.8240
   16.785    0.7812
   16.800    0.7384
   16.815    0.7812
   16.830    0.8133
   16.845    0.7919
   16.860    0.6956
   16.875    0.6849
   16.890    0.5886
   16.905    0.5886
   16.920    0.6207
   16.935    0.6421
   16.950    0.6956
   16.965    0.6314
   16.980    0.5886
   16.995    0.6421
   17.010    0.6742
   17.025    0.6849
   17.040    0.8347
   17.055    0.7063
   17.070    0.7812
   17.085    0.7384
   17.100    0.7491
   17.115    0.6742
   17.130    0.8240
   17.145    0.6635
   17.160    0.6849
   17.175    0.6635
   17.190    0.6421
   17.205    0.6528
   17.220    0.6207
   17.235    0.6421
   17.250    0.5993
   17.265    0.6956
   17.280    0.5778
   17.295    0.6742
   17.310    0.6635
   17.325    0.7491
   17.340    0.6635
   17.355    0.5993
   17.370    0.6742
   17.385    0.6528
   17.400    0.5886
   17.415    0.7170
   17.430    0.7598
   17.445    0.7277
   17.460    0.8133
   17.475    0.8026
   17.490    0.8561
   17.505    0.8775
   17.520    0.9310
   17.535    0.8882
   17.550    0.8882
   17.565    0.8882
   17.580    1.1557
   17.595    1.4232
   17.610    1.5088
   17.625    1.7657
   17.640    1.7764
   17.655    1.4125
   17.670    1.2948
   17.685    0.9096
   17.700    0.6635
   17.715    0.6314
   17.730    0.6742
   17.745    0.7491
   17.760    0.7491
   17.775    0.6421
   17.790    0.7170
   17.805    0.6742
   17.820    0.7598
   17.835    0.6635
   17.850    0.6956
   17.865    0.7170
   17.880    0.7384
   17.895    0.6207
   17.910    0.7170
   17.925    0.6635
   17.940    0.7277
   17.955    0.7598
   17.970    0.6742
   17.985    0.7170
   18.000    0.6528
   18.015    0.6956
   18.030    0.6849
   18.045    0.5886
   18.060    0.7812
   18.075    0.8133
   18.090    0.8133
   18.105    0.7384
   18.120    0.6742
   18.135    0.6314
   18.150    0.7919
   18.165    0.7170
   18.180    0.7277
   18.195    0.6956
   18.210    0.6528
   18.225    0.7063
   18.240    0.5993
   18.255    0.6849
   18.270    0.7384
   18.285    0.6849
   18.300    0.7063
   18.315    0.7277
   18.330    0.8133
   18.345    0.7491
   18.360    0.7705
   18.375    0.6207
   18.390    0.7598
   18.405    0.6849
   18.420    0.6849
   18.435    0.6956
   18.450    0.7384
   18.465    0.7598
   18.480    0.8240
   18.495    0.6956
   18.510    0.6742
   18.525    0.7277
   18.540    0.7705
   18.555    0.7277
   18.570    0.7919
   18.585    0.8133
   18.600    0.7812
   18.615    0.7812
   18.630    0.8775
   18.645    0.8133
   18.660    0.7598
   18.675    0.9845
   18.690    1.0487
   18.705    1.0701
   18.720    1.1771
   18.735    1.4660
   18.750    1.6372
   18.765    1.9797
   18.780    1.9797
   18.795    1.9369
   18.810    1.7014
   18.825    1.4660
   18.840    0.9417
   18.855    0.7277
   18.870    0.7170
   18.885    0.8454
   18.900    0.8026
   18.915    0.6421
   18.930    0.7170
   18.945    0.8026
   18.960    0.6528
   18.975    0.7812
   18.990    0.6956
   19.005    0.6100
   19.020    0.6635
   19.035    0.8561
   19.050    0.7063
   19.065    0.6849
   19.080    0.7812
   19.095    0.8240
   19.110    0.6528
   19.125    0.5886
   19.140    0.6100
   19.155    0.6314
   19.170    0.8454
   19.185    0.7063
   19.200    0.8882
   19.215    0.8240
   19.230    0.8133
   19.245    1.0059
   19.260    1.0380
   19.275    1.1985
   19.290    1.2627
   19.305    1.3804
   19.320    1.7764
   19.335    1.7549
   19.350    1.6158
   19.365    1.2520
   19.380    1.0059
   19.395    0.9203
   19.410    0.8240
   19.425    0.7063
   19.440    0.8240
   19.455    0.7063
   19.470    0.7705
   19.485    0.6421
   19.500    0.6421
   19.515    0.7384
   19.530    0.6100
   19.545    0.5564
   19.560    0.6528
   19.575    0.6635
   19.590    0.7277
   19.605    0.7919
   19.620    0.7598
   19.635    0.6849
   19.650    0.8454
   19.665    0.8133
   19.680    0.7919
   19.695    0.9417
   19.710    0.9417
   19.725    0.7384
   19.740    1.0487
   19.755    1.2627
   19.770    1.3162
   19.785    1.6479
   19.800    1.8192
   19.815    2.0439
   19.830    2.5789
   19.845    3.5741
   19.860    3.9700
   19.875    3.8737
   19.890    3.3280
   19.905    3.0284
   19.920    1.9476
   19.935    1.2199
   19.950    0.9952
   19.965    0.8240
   19.980    0.7170
   19.995    0.7919
   20.010    0.6742
   20.025    0.7919
   20.040    0.7919
   20.055    0.7063
   20.070    0.6742
   20.085    0.6849
   20.100    0.7063
   20.115    0.8026
   20.130    0.7919
   20.145    0.6956
   20.160    0.6635
   20.175    0.7598
   20.190    0.6635
   20.205    0.7919
   20.220    0.6956
   20.235    0.6421
   20.250    0.6314
   20.265    0.6314
   20.280    0.8454
   20.295    0.8882
   20.310    0.7919
   20.325    0.8882
   20.340    0.9738
   20.355    0.9845
   20.370    1.0915
   20.385    1.0808
   20.400    1.0487
   20.415    0.9631
   20.430    0.8882
   20.445    0.9096
   20.460    0.7705
   20.475    0.7384
   20.490    0.8240
   20.505    0.7063
   20.520    0.6207
   20.535    0.7063
   20.550    0.6635
   20.565    0.7919
   20.580    0.8454
   20.595    0.7812
   20.610    0.7384
   20.625    0.6100
   20.640    0.8026
   20.655    0.6742
   20.670    0.7598
   20.685    0.6849
   20.700    0.6849
   20.715    0.7170
   20.730    0.8775
   20.745    0.8561
   20.760    0.8347
   20.775    0.9738
   20.790    0.9096
   20.805    0.8775
   20.820    0.9738
   20.835    0.9845
   20.850    0.9310
   20.865    1.0808
   20.880    1.2199
   20.895    1.3162
   20.910    1.2413
   20.925    1.2092
   20.940    0.9417
   20.955    0.9738
   20.970    0.7812
   20.985    0.6314
   21.000    0.7063
   21.015    0.7170
   21.030    0.8668
   21.045    0.8668
   21.060    0.6849
   21.075    0.7170
   21.090    0.6528
   21.105    0.6849
   21.120    0.6207
   21.135    0.6956
   21.150    0.5886
   21.165    0.6742
   21.180    0.7491
   21.195    0.7598
   21.210    0.7812
   21.225    0.7705
   21.240    0.8026
   21.255    0.6100
   21.270    0.8026
   21.285    0.8240
   21.300    0.7919
   21.315    0.8882
   21.330    1.0166
   21.345    1.1557
   21.360    1.1236
   21.375    1.1878
   21.390    1.5516
   21.405    1.5837
   21.420    1.3055
   21.435    1.2413
   21.450    0.9738
   21.465    0.8347
   21.480    0.8454
   21.495    0.7491
   21.510    0.6314
   21.525    0.7277
   21.540    0.7063
   21.555    0.5993
   21.570    0.6207
   21.585    0.6207
   21.600    0.6100
   21.615    0.7384
   21.630    0.8989
   21.645    0.7384
   21.660    0.8240
   21.675    0.7598
   21.690    0.7598
   21.705    0.7491
   21.720    0.7063
   21.735    0.6314
   21.750    0.5778
   21.765    0.6849
   21.780    0.8561
   21.795    0.8133
   21.810    0.8561
   21.825    0.8454
   21.840    0.9096
   21.855    0.9417
   21.870    0.9631
   21.885    0.9524
   21.900    1.0594
   21.915    0.9952
   21.930    0.8989
   21.945    0.8240
   21.960    0.7384
   21.975    0.8240
   21.990    0.8347
   22.005    0.5886
   22.020    0.7063
   22.035    0.8026
   22.050    0.9310
   22.065    1.1557
   22.080    1.1450
   22.095    0.9524
   22.110    0.8775
   22.125    1.0273
   22.140    0.9417
   22.155    0.7812
   22.170    0.7812
   22.185    0.6421
   22.200    0.7491
   22.215    0.7170
   22.230    0.8240
   22.245    0.7277
   22.260    0.8989
   22.275    0.8775
   22.290    0.7705
   22.305    0.7919
   22.320    0.7384
   22.335    0.8026
   22.350    0.8989
   22.365    0.8989
   22.380    0.7491
   22.395    0.7277
   22.410    0.7812
   22.425    0.8347
   22.440    0.7598
   22.455    0.7919
   22.470    0.7491
   22.485    0.6956
   22.500    0.6528
   22.515    0.7491
   22.530    0.7812
   22.545    0.7063
   22.560    0.8668
   22.575    0.7919
   22.590    0.7812
   22.605    0.8240
   22.620    0.7491
   22.635    0.8989
   22.650    0.7812
   22.665    0.7812
   22.680    0.8668
   22.695    1.0166
   22.710    1.0487
   22.725    0.9845
   22.740    1.0808
   22.755    0.9845
   22.770    1.3162
   22.785    1.5623
   22.800    1.8727
   22.815    1.8727
   22.830    2.0867
   22.845    1.8513
   22.860    1.4767
   22.875    1.5944
   22.890    1.2199
   22.905    1.0808
   22.920    0.8133
   22.935    0.7384
   22.950    0.8454
   22.965    0.7598
   22.980    0.7063
   22.995    0.7491
   23.010    0.8133
   23.025    0.9631
   23.040    0.7491
   23.055    0.7598
   23.070    0.8026
   23.085    0.7598
   23.100    0.7063
   23.115    0.6849
   23.130    0.7705
   23.145    0.8133
   23.160    0.7919
   23.175    0.8347
   23.190    0.8026
   23.205    0.8026
   23.220    0.8240
   23.235    0.9524
   23.250    1.0380
   23.265    1.0594
   23.280    0.9417
   23.295    1.1236
   23.310    1.0701
   23.325    0.9524
   23.340    0.9524
   23.355    0.8668
   23.370    0.6528
   23.385    0.8454
   23.400    0.8454
   23.415    0.8454
   23.430    0.6849
   23.445    0.8347
   23.460    0.7598
   23.475    0.8561
   23.490    0.8026
   23.505    0.8026
   23.520    0.8775
   23.535    0.7170
   23.550    0.8989
   23.565    0.9417
   23.580    0.7705
   23.595    0.8668
   23.610    0.9310
   23.625    0.8561
   23.640    1.1022
   23.655    1.2413
   23.670    1.5516
   23.685    1.6372
   23.700    1.9476
   23.715    2.5682
   23.730    2.8785
   23.745    2.7287
   23.760    2.4077
   23.775    2.3114
   23.790    1.9262
   23.805    1.5302
   23.820    0.8989
   23.835    0.8133
   23.850    0.8454
   23.865    0.6956
   23.880    0.7491
   23.895    0.6100
   23.910    0.6956
   23.925    0.8668
   23.940    0.8133
   23.955    0.7705
   23.970    0.8775
   23.985    0.8240
   24.000    0.8561
   24.015    0.7170
   24.030    0.7598
   24.045    0.7598
   24.060    0.7384
   24.075    0.7812
   24.090    0.7277
   24.105    0.8775
   24.120    0.6956
   24.135    0.7598
   24.150    0.7063
   24.165    0.8561
   24.180    0.7491
   24.195    0.8454
   24.210    0.7277
   24.225    0.8561
   24.240    0.8775
   24.255    0.6635
   24.270    0.7277
   24.285    0.8561
   24.300    0.8347
   24.315    0.8026
   24.330    0.8454
   24.345    0.7170
   24.360    0.6849
   24.375    0.5778
   24.390    0.7705
   24.405    0.7491
   24.420    0.7063
   24.435    0.8026
   24.450    0.8347
   24.465    0.7384
   24.480    0.8133
   24.495    0.7919
   24.510    0.7491
   24.525    0.7598
   24.540    0.7063
   24.555    0.7919
   24.570    0.8561
   24.585    0.8882
   24.600    0.8454
   24.615    0.8133
   24.630    0.7384
   24.645    0.7277
   24.660    0.7063
   24.675    0.7598
   24.690    0.7919
   24.705    0.8454
   24.720    0.7277
   24.735    0.6956
   24.750    0.7384
   24.765    0.6849
   24.780    0.6742
   24.795    0.7277
   24.810    0.7491
   24.825    0.7277
   24.840    0.7705
   24.855    0.6849
   24.870    0.6849
   24.885    0.7919
   24.900    0.6421
   24.915    0.7705
   24.930    0.8561
   24.945    0.8668
   24.960    0.7491
   24.975    0.7598
   24.990    0.7384
   25.005    0.7705
   25.020    0.7491
   25.035    0.8133
   25.050    0.6100
   25.065    0.6100
   25.080    0.6742
   25.095    0.6849
   25.110    0.7063
   25.125    0.7170
   25.140    0.8133
   25.155    0.7705
   25.170    0.6421
   25.185    0.8240
   25.200    0.8989
   25.215    0.8454
   25.230    0.9738
   25.245    0.7491
   25.260    0.6421
   25.275    0.8347
   25.290    0.8882
   25.305    0.7705
   25.320    0.8454
   25.335    0.8347
   25.350    0.7170
   25.365    0.8775
   25.380    0.9631
   25.395    1.1022
   25.410    1.0915
   25.425    1.3269
   25.440    1.5623
   25.455    1.6800
   25.470    1.6693
   25.485    1.4553
   25.500    1.3911
   25.515    1.2627
   25.530    1.2520
   25.545    0.9952
   25.560    0.9524
   25.575    0.8561
   25.590    0.7491
   25.605    0.7170
   25.620    0.8240
   25.635    0.7812
   25.650    0.6742
   25.665    0.7063
   25.680    0.8026
   25.695    0.7705
   25.710    0.7491
   25.725    0.7812
   25.740    0.7384
   25.755    0.7812
   25.770    0.8668
   25.785    0.8133
   25.800    0.8454
   25.815    1.0380
   25.830    1.0166
   25.845    1.2948
   25.860    1.4232
   25.875    1.3911
   25.890    1.3590
   25.905    1.5088
   25.920    1.1129
   25.935    1.0701
   25.950    0.8240
   25.965    0.8240
   25.980    0.8347
   25.995    0.7705
   26.010    0.8454
   26.025    0.8775
   26.040    0.7491
   26.055    0.7705
   26.070    0.8668
   26.085    0.8133
   26.100    0.7598
   26.115    0.7491
   26.130    0.9096
   26.145    1.0380
   26.160    1.0594
   26.175    1.3376
   26.190    1.3162
   26.205    1.4981
   26.220    1.6265
   26.235    1.8941
   26.250    2.8143
   26.265    3.1568
   26.280    3.5955
   26.295    3.3922
   26.310    2.9320
   26.325    3.1140
   26.340    2.5147
   26.355    2.1188
   26.370    1.5088
   26.385    1.1022
   26.400    0.8989
   26.415    0.8989
   26.430    0.7491
   26.445    0.7384
   26.460    0.7919
   26.475    0.8347
   26.490    0.7919
   26.505    0.8454
   26.520    0.8454
   26.535    0.8347
   26.550    1.0166
   26.565    1.0166
   26.580    1.2092
   26.595    1.2092
   26.610    1.4553
   26.625    1.6372
   26.640    1.9583
   26.655    2.4612
   26.670    3.2210
   26.685    3.3387
   26.700    2.9963
   26.715    2.8892
   26.730    2.7929
   26.745    2.7073
   26.760    2.0118
   26.775    1.3376
   26.790    1.0594
   26.805    0.8133
   26.820    0.7491
   26.835    0.9203
   26.850    0.7812
   26.865    0.6421
   26.880    0.7277
   26.895    0.8882
   26.910    0.9524
   26.925    0.9738
   26.940    0.8775
   26.955    0.8775
   26.970    0.8989
   26.985    0.8775
   27.000    0.8775
   27.015    0.9417
   27.030    0.9524
   27.045    1.1664
   27.060    1.4767
   27.075    1.4660
   27.090    1.5195
   27.105    1.3376
   27.120    1.4767
   27.135    1.5837
   27.150    1.1878
   27.165    0.9952
   27.180    0.9203
   27.195    0.7491
   27.210    0.7063
   27.225    0.7598
   27.240    0.6849
   27.255    0.7491
   27.270    0.7491
   27.285    0.7170
   27.300    0.8133
   27.315    0.7598
   27.330    0.7598
   27.345    0.8347
   27.360    0.7277
   27.375    0.8454
   27.390    0.7812
   27.405    0.6849
   27.420    0.9738
   27.435    1.0701
   27.450    1.0487
   27.465    0.9738
   27.480    1.1236
   27.495    1.2734
   27.510    1.1343
   27.525    0.9631
   27.540    0.6956
   27.555    0.6956
   27.570    0.7170
   27.585    0.9524
   27.600    0.8989
   27.615    0.6956
   27.630    0.7277
   27.645    0.8026
   27.660    0.7491
   27.675    0.7598
   27.690    0.7705
   27.705    0.7705
   27.720    0.9310
   27.735    0.9203
   27.750    0.8775
   27.765    0.9524
   27.780    0.9738
   27.795    1.0380
   27.810    1.1129
   27.825    1.4874
   27.840    1.7335
   27.855    2.1830
   27.870    2.0439
   27.885    1.9904
   27.900    1.7549
   27.915    1.7335
   27.930    1.3804
   27.945    1.1236
   27.960    0.9631
   27.975    0.8347
   27.990    0.7277
   28.005    0.7705
   28.020    0.9524
   28.035    0.8668
   28.050    0.7491
   28.065    0.7598
   28.080    0.7812
   28.095    0.7491
   28.110    0.8133
   28.125    0.7170
   28.140    0.6742
   28.155    0.8026
   28.170    0.6421
   28.185    0.8561
   28.200    0.9310
   28.215    1.0059
   28.230    0.9310
   28.245    0.7812
   28.260    0.8989
   28.275    0.8454
   28.290    0.8561
   28.305    0.9310
   28.320    0.7812
   28.335    0.6742
   28.350    0.7170
   28.365    0.6635
   28.380    0.6849
   28.395    0.5778
   28.410    0.7598
   28.425    0.8668
   28.440    0.7705
   28.455    0.7063
   28.470    0.7598
   28.485    0.7170
   28.500    0.7705
   28.515    0.7384
   28.530    0.7919
   28.545    0.8989
   28.560    0.7705
   28.575    0.8668
   28.590    0.9203
   28.605    0.9096
   28.620    0.9310
   28.635    1.0594
   28.650    0.9631
   28.665    1.0594
   28.680    0.8026
   28.695    0.8347
   28.710    0.8026
   28.725    0.6956
   28.740    0.6207
   28.755    0.7170
   28.770    0.7491
   28.785    0.7705
   28.800    0.8775
   28.815    0.7170
   28.830    0.6314
   28.845    0.7170
   28.860    0.8668
   28.875    0.7919
   28.890    0.7598
   28.905    0.7384
   28.920    0.7919
   28.935    0.8240
   28.950    0.7812
   28.965    0.8989
   28.980    0.8668
   28.995    0.8454
   29.010    1.0594
   29.025    0.9738
   29.040    0.8347
   29.055    0.9203
   29.070    0.6421
   29.085    0.7277
   29.100    0.8240
   29.115    0.6956
   29.130    0.8026
   29.145    0.9203
   29.160    0.8347
   29.175    0.7384
   29.190    0.6207
   29.205    0.6956
   29.220    0.7170
   29.235    0.6742
   29.250    0.6528
   29.265    0.8133
   29.280    0.7919
   29.295    0.9631
   29.310    1.0273
   29.325    0.8989
   29.340    1.0701
   29.355    1.1236
   29.370    1.2306
   29.385    1.1129
   29.400    1.1129
   29.415    1.1557
   29.430    0.9417
   29.445    0.7812
   29.460    0.7919
   29.475    0.7277
   29.490    0.7598
   29.505    0.6635
   29.520    0.6635
   29.535    0.6421
   29.550    0.6956
   29.565    0.7491
   29.580    0.5671
   29.595    0.7705
   29.610    0.7598
   29.625    0.5993
   29.640    0.7598
   29.655    0.8347
   29.670    1.0059
   29.685    1.0808
   29.700    0.9417
   29.715    1.1450
   29.730    1.1450
   29.745    1.1878
   29.760    1.0487
   29.775    0.9417
   29.790    0.8240
   29.805    0.8668
   29.820    0.8668
   29.835    0.7063
   29.850    0.6528
   29.865    0.7277
   29.880    0.6100
   29.895    0.6421
   29.910    0.6635
   29.925    0.7170
   29.940    0.7491
   29.955    0.7384
   29.970    0.8454
   29.985    0.8454
   30.000    1.0915
   30.015    1.2092
   30.030    1.2734
   30.045    1.7228
   30.060    2.1830
   30.075    2.4077
   30.090    2.5040
   30.105    2.3328
   30.120    2.3863
   30.135    2.3542
   30.150    2.0867
   30.165    1.7871
   30.180    1.3804
   30.195    0.9845
   30.210    0.8668
   30.225    0.6528
   30.240    0.8882
   30.255    0.8775
   30.270    0.6635
   30.285    0.6100
   30.300    0.5564
   30.315    0.6100
   30.330    0.6849
   30.345    0.6314
   30.360    0.5671
   30.375    0.6207
   30.390    0.8240
   30.405    0.8668
   30.420    0.8775
   30.435    0.8989
   30.450    1.1022
   30.465    0.9417
   30.480    0.9203
   30.495    0.8026
   30.510    0.8240
   30.525    0.8882
   30.540    0.6742
   30.555    0.7063
   30.570    0.6742
   30.585    0.7705
   30.600    0.7063
   30.615    0.6635
   30.630    0.6849
   30.645    0.7491
   30.660    0.5993
   30.675    0.7063
   30.690    0.7384
   30.705    0.6742
   30.720    0.7491
   30.735    0.8240
   30.750    0.8989
   30.765    0.9952
   30.780    1.0915
   30.795    1.2092
   30.810    1.1985
   30.825    1.2306
   30.840    1.1664
   30.855    1.0594
   30.870    1.0059
   30.885    0.8240
   30.900    0.7170
   30.915    0.6100
   30.930    0.7598
   30.945    0.7491
   30.960    0.6528
   30.975    0.5993
   30.990    0.5993
   31.005    0.5350
   31.020    0.7277
   31.035    0.7063
   31.050    0.6849
   31.065    0.6207
   31.080    0.5993
   31.095    0.7705
   31.110    0.7063
   31.125    0.6314
   31.140    0.5993
   31.155    0.6100
   31.170    0.6635
   31.185    0.6956
   31.200    0.7170
   31.215    0.6849
   31.230    0.7063
   31.245    0.6421
   31.260    0.6742
   31.275    0.7705
   31.290    0.6956
   31.305    0.6849
   31.320    0.6956
   31.335    0.8240
   31.350    1.0059
   31.365    0.7919
   31.380    0.7063
   31.395    0.6635
   31.410    0.7063
   31.425    0.9631
   31.440    1.1878
   31.455    1.2413
   31.470    1.4553
   31.485    1.5944
   31.500    1.7121
   31.515    1.7549
   31.530    1.5302
   31.545    1.4018
   31.560    1.3911
   31.575    1.1878
   31.590    0.9845
   31.605    0.7277
   31.620    0.6849
   31.635    0.7812
   31.650    0.6314
   31.665    0.6742
   31.680    0.6742
   31.695    0.6849
   31.710    0.5778
   31.725    0.7063
   31.740    0.6100
   31.755    0.6742
   31.770    0.6421
   31.785    0.5564
   31.800    0.7812
   31.815    0.7063
   31.830    0.5886
   31.845    0.5993
   31.860    0.6207
   31.875    0.6849
   31.890    0.5671
   31.905    0.6421
   31.920    0.6528
   31.935    0.7063
   31.950    0.5029
   31.965    0.5778
   31.980    0.6421
   31.995    0.6742
   32.010    0.6421
   32.025    0.7277
   32.040    0.6956
   32.055    0.7063
   32.070    0.7812
   32.085    0.7491
   32.100    0.7277
   32.115    0.9631
   32.130    0.8882
   32.145    0.9096
   32.160    1.0166
   32.175    0.8240
   32.190    1.0380
   32.205    1.1236
   32.220    0.9845
   32.235    1.0594
   32.250    1.0487
   32.265    0.8989
   32.280    0.6956
   32.295    0.5993
   32.310    0.7384
   32.325    0.6849
   32.340    0.4815
   32.355    0.5886
   32.370    0.6849
   32.385    0.5671
   32.400    0.6100
   32.415    0.6635
   32.430    0.6528
   32.445    0.7598
   32.460    0.8026
   32.475    0.8240
   32.490    0.8882
   32.505    1.0059
   32.520    1.1129
   32.535    1.0273
   32.550    1.1022
   32.565    0.9203
   32.580    1.1343
   32.595    1.1129
   32.610    1.1129
   32.625    0.8347
   32.640    0.8240
   32.655    0.7170
   32.670    0.7491
   32.685    0.7919
   32.700    0.8133
   32.715    0.9738
   32.730    0.9524
   32.745    0.7705
   32.760    0.7277
   32.775    0.8240
   32.790    1.0059
   32.805    1.2092
   32.820    1.3804
   32.835    1.3162
   32.850    1.3697
   32.865    1.3162
   32.880    1.2520
   32.895    1.0701
   32.910    0.9631
   32.925    0.8882
   32.940    1.0273
   32.955    0.7919
   32.970    0.7384
   32.985    0.7384
   33.000    0.6956
   33.015    0.6528
   33.030    0.6421
   33.045    0.6635
   33.060    0.5457
   33.075    0.7919
   33.090    0.9203
   33.105    0.8026
   33.120    0.9096
   33.135    1.1022
   33.150    1.1557
   33.165    1.0273
   33.180    1.2199
   33.195    0.9738
   33.210    1.2306
   33.225    1.3376
   33.240    1.2306
   33.255    0.9631
   33.270    0.8026
   33.285    0.6528
   33.300    0.5886
   33.315    0.6207
   33.330    0.6635
   33.345    0.5029
   33.360    0.5564
   33.375    0.7063
   33.390    0.6528
   33.405    0.6100
   33.420    0.7705
   33.435    0.7063
   33.450    0.6207
   33.465    0.6635
   33.480    0.7384
   33.495    0.5243
   33.510    0.5886
   33.525    0.6314
   33.540    0.6742
   33.555    0.6314
   33.570    0.6742
   33.585    0.7384
   33.600    0.5886
   33.615    0.6849
   33.630    0.5886
   33.645    0.5778
   33.660    0.7063
   33.675    0.6314
   33.690    0.5671
   33.705    0.6207
   33.720    0.6742
   33.735    0.6849
   33.750    0.8240
   33.765    0.7705
   33.780    0.8454
   33.795    0.9096
   33.810    1.0166
   33.825    0.8347
   33.840    0.7919
   33.855    0.7919
   33.870    0.7384
   33.885    0.7491
   33.900    0.7063
   33.915    0.5886
   33.930    0.7384
   33.945    0.4708
   33.960    0.6314
   33.975    0.5564
   33.990    0.6635
   34.005    0.5243
   34.020    0.5564
   34.035    0.5886
   34.050    0.6635
   34.065    0.5350
   34.080    0.6421
   34.095    0.9738
   34.110    1.0380
   34.125    1.1664
   34.140    1.1985
   34.155    1.1022
   34.170    1.1664
   34.185    1.1771
   34.200    1.0273
   34.215    1.0059
   34.230    1.0594
   34.245    0.8133
   34.260    0.8561
   34.275    0.6849
   34.290    0.6528
   34.305    0.6207
   34.320    0.7170
   34.335    0.6207
   34.350    0.5886
   34.365    0.5778
   34.380    0.5886
   34.395    0.5886
   34.410    0.5671
   34.425    0.5136
   34.440    0.5136
   34.455    0.5243
   34.470    0.4494
   34.485    0.6314
   34.500    0.5564
   34.515    0.5671
   34.530    0.6207
   34.545    0.5564
   34.560    0.7384
   34.575    0.6100
   34.590    0.5778
   34.605    0.6956
   34.620    0.5564
   34.635    0.6314
   34.650    0.5886
   34.665    0.5350
   34.680    0.6528
   34.695    0.6849
   34.710    0.6421
   34.725    0.5671
   34.740    0.7063
   34.755    0.8989
   34.770    0.8775
   34.785    0.8240
   34.800    0.7384
   34.815    0.8240
   34.830    0.7705
   34.845    0.6421
   34.860    0.6207
   34.875    0.6528
   34.890    0.7384
   34.905    0.6849
   34.920    0.5029
   34.935    0.5029
   34.950    0.6314
   34.965    0.5778
   34.980    0.5886
   34.995    0.5778
   35.010    0.5457
   35.025    0.5993
   35.040    0.6421
   35.055    0.6314
   35.070    0.6849
   35.085    0.9096
   35.100    0.8882
   35.115    0.8240
   35.130    0.6100
   35.145    0.6849
   35.160    0.7063
   35.175    0.6742
   35.190    0.6742
   35.205    0.7063
   35.220    0.6635
   35.235    0.6314
   35.250    0.5778
   35.265    0.4922
   35.280    0.5136
   35.295    0.5243
   35.310    0.5564
   35.325    0.5564
   35.340    0.5886
   35.355    0.7063
   35.370    0.6100
   35.385    0.7277
   35.400    0.6100
   35.415    0.7705
   35.430    0.6421
   35.445    0.5671
   35.460    0.6100
   35.475    0.6742
   35.490    0.5457
   35.505    0.4494
   35.520    0.4708
   35.535    0.6314
   35.550    0.4280
   35.565    0.5564
   35.580    0.4922
   35.595    0.6849
   35.610    0.6849
   35.625    0.5778
   35.640    0.6849
   35.655    0.7812
   35.670    0.6849
   35.685    0.7919
   35.700    0.8240
   35.715    0.9203
   35.730    0.7812
   35.745    0.8882
   35.760    0.8454
   35.775    0.6314
   35.790    0.6207
   35.805    0.6849
   35.820    0.5350
   35.835    0.4601
   35.850    0.5350
   35.865    0.4601
   35.880    0.5243
   35.895    0.5778
   35.910    0.5671
   35.925    0.5778
   35.940    0.4815
   35.955    0.5886
   35.970    0.5778
   35.985    0.4815
   36.000    0.5564
   36.015    0.5564
   36.030    0.5564
   36.045    0.6421
   36.060    0.4494
   36.075    0.5243
   36.090    0.5136
   36.105    0.4815
   36.120    0.5671
   36.135    0.5136
   36.150    0.4280
   36.165    0.3959
   36.180    0.4708
   36.195    0.4922
   36.210    0.4708
   36.225    0.5243
   36.240    0.4922
   36.255    0.5350
   36.270    0.3959
   36.285    0.4708
   36.300    0.5136
   36.315    0.4815
   36.330    0.4708
   36.345    0.4815
   36.360    0.4815
   36.375    0.4066
   36.390    0.5243
   36.405    0.4922
   36.420    0.4815
   36.435    0.5564
   36.450    0.5564
   36.465    0.4708
   36.480    0.6100
   36.495    0.4815
   36.510    0.5350
   36.525    0.4280
   36.540    0.5350
   36.555    0.6314
   36.570    0.6635
   36.585    0.7170
   36.600    0.8240
   36.615    0.8454
   36.630    0.9310
   36.645    0.8668
   36.660    0.6849
   36.675    0.7170
   36.690    0.9096
   36.705    0.7491
   36.720    0.6849
   36.735    0.6207
   36.750    0.5457
   36.765    0.4708
   36.780    0.6421
   36.795    0.6528
   36.810    0.4815
   36.825    0.4280
   36.840    0.4708
   36.855    0.5671
   36.870    0.5886
   36.885    0.3745
   36.900    0.5993
   36.915    0.5457
   36.930    0.6314
   36.945    0.5778
   36.960    0.5671
   36.975    0.5993
   36.990    0.6314
   37.005    0.6207
   37.020    0.5671
   37.035    0.5457
   37.050    0.5243
   37.065    0.4601
   37.080    0.5029
   37.095    0.5136
   37.110    0.5029
   37.125    0.6100
   37.140    0.6207
   37.155    0.6100
   37.170    0.5993
   37.185    0.6421
   37.200    0.6421
   37.215    0.6635
   37.230    0.5778
   37.245    0.5564
   37.260    0.7277
   37.275    0.6956
   37.290    0.5778
   37.305    0.5886
   37.320    0.5993
   37.335    0.5886
   37.350    0.5886
   37.365    0.4815
   37.380    0.5778
   37.395    0.7384
   37.410    0.7705
   37.425    0.8454
   37.440    0.9203
   37.455    0.8240
   37.470    0.9738
   37.485    0.9524
   37.500    1.0808
   37.515    0.9524
   37.530    0.9203
   37.545    0.9310
   37.560    0.8775
   37.575    0.5993
   37.590    0.5457
   37.605    0.5671
   37.620    0.5886
   37.635    0.4922
   37.650    0.5029
   37.665    0.4601
   37.680    0.4708
   37.695    0.5243
   37.710    0.5350
   37.725    0.5671
   37.740    0.4922
   37.755    0.6635
   37.770    0.5564
   37.785    0.4708
   37.800    0.4494
   37.815    0.4066
   37.830    0.5778
   37.845    0.5671
   37.860    0.5778
   37.875    0.4922
   37.890    0.5886
   37.905    0.5671
   37.920    0.4922
   37.935    0.4708
   37.950    0.4601
   37.965    0.4173
   37.980    0.4601
   37.995    0.3638
   38.010    0.3745
   38.025    0.5457
   38.040    0.4173
   38.055    0.4280
   38.070    0.4387
   38.085    0.4066
   38.100    0.4173
   38.115    0.5136
   38.130    0.5886
   38.145    0.5564
   38.160    0.4173
   38.175    0.4280
   38.190    0.4601
   38.205    0.4173
   38.220    0.4173
   38.235    0.5350
   38.250    0.5564
   38.265    0.4173
   38.280    0.4815
   38.295    0.5457
   38.310    0.5671
   38.325    0.5778
   38.340    0.4066
   38.355    0.6100
   38.370    0.6100
   38.385    0.7384
   38.400    0.7812
   38.415    0.5886
   38.430    0.7170
   38.445    0.6742
   38.460    0.6956
   38.475    0.6635
   38.490    0.5136
   38.505    0.5029
   38.520    0.5457
   38.535    0.4387
   38.550    0.4280
   38.565    0.4387
   38.580    0.4280
   38.595    0.4494
   38.610    0.3531
   38.625    0.5350
   38.640    0.4494
   38.655    0.4173
   38.670    0.5778
   38.685    0.5564
   38.700    0.4708
   38.715    0.4280
   38.730    0.4922
   38.745    0.4066
   38.760    0.5136
   38.775    0.4922
   38.790    0.5136
   38.805    0.5243
   38.820    0.4066
   38.835    0.3852
   38.850    0.3852
   38.865    0.4922
   38.880    0.4815
   38.895    0.3852
   38.910    0.5243
   38.925    0.4173
   38.940    0.4066
   38.955    0.4708
   38.970    0.4494
   38.985    0.3959
   39.000    0.4815
   39.015    0.4066
   39.030    0.4173
   39.045    0.4494
   39.060    0.5350
   39.075    0.4601
   39.090    0.4280
   39.105    0.4815
   39.120    0.4280
   39.135    0.4494
   39.150    0.5136
   39.165    0.4601
   39.180    0.5457
   39.195    0.6635
   39.210    0.6100
   39.225    0.4601
   39.240    0.4280
   39.255    0.5350
   39.270    0.4601
   39.285    0.4922
   39.300    0.4494
   39.315    0.4601
   39.330    0.4922
   39.345    0.5243
   39.360    0.5243
   39.375    0.4708
   39.390    0.5350
   39.405    0.5243
   39.420    0.5029
   39.435    0.5457
   39.450    0.5243
   39.465    0.5993
   39.480    0.7063
   39.495    0.8561
   39.510    0.9524
   39.525    0.8454
   39.540    0.8561
   39.555    0.7705
   39.570    0.7705
   39.585    0.7919
   39.600    0.8026
   39.615    0.7277
   39.630    0.7491
   39.645    0.5886
   39.660    0.5457
   39.675    0.5350
   39.690    0.5350
   39.705    0.5671
   39.720    0.5243
   39.735    0.4815
   39.750    0.4280
   39.765    0.4815
   39.780    0.4922
   39.795    0.5243
   39.810    0.6314
   39.825    0.4708
   39.840    0.5671
   39.855    0.5457
   39.870    0.4066
   39.885    0.5993
   39.900    0.5564
   39.915    0.5243
   39.930    0.4173
   39.945    0.4708
   39.960    0.4280
   39.975    0.3424
   39.990    0.4815
