    1.500   10.9321
    1.515   11.3007
    1.530   10.5740
    1.545   10.7109
    1.560   10.4265
    1.575   10.2791
    1.590   10.4687
    1.605   10.7952
    1.620   10.4687
    1.635    9.6788
    1.650   10.0263
    1.665    9.6893
    1.680    9.2154
    1.695    9.4155
    1.710    9.2786
    1.725    8.9942
    1.740    9.2680
    1.755    9.1522
    1.770    9.0363
    1.785    8.3939
    1.800    8.3834
    1.815    8.6993
    1.830    8.5940
    1.845    8.2780
    1.860    8.7520
    1.875    8.5097
    1.890    7.9621
    1.905    8.2149
    1.920    8.0463
    1.935    7.7304
    1.950    7.7620
    1.965    7.6672
    1.980    8.3518
    1.995    8.3202
    2.010    7.7409
    2.025    7.3196
    2.040    7.7304
    2.055    7.6883
    2.070    7.4671
    2.085    7.3618
    2.100    7.4355
    2.115    7.0037
    2.130    7.2565
    2.145    7.3407
    2.160    7.2143
    2.175    7.1827
    2.190    7.1090
    2.205    6.6035
    2.220    7.0774
    2.235    6.9510
    2.250    6.6877
    2.265    6.8562
    2.280    6.8457
    2.295    6.8036
    2.310    6.6140
    2.325    6.3718
    2.340    6.7088
    2.355    6.2770
    2.370    6.6877
    2.385    6.7299
    2.400    6.5719
    2.415    6.7193
    2.430    6.8878
    2.445    6.6351
    2.460    6.4876
    2.475    6.6245
    2.490    6.5929
    2.505    6.2454
    2.520    6.5508
    2.535    6.2033
    2.550    6.4982
    2.565    6.3191
    2.580    6.2138
    2.595    6.1822
    2.610    6.2243
    2.625    6.4876
    2.640    6.3191
    2.655    6.3718
    2.670    6.4350
    2.685    6.5508
    2.700    6.3402
    2.715    6.4666
    2.730    6.1822
    2.745    6.7193
    2.760    6.6983
    2.775    6.2981
    2.790    6.3296
    2.805    5.9926
    2.820    6.0558
    2.835    6.2875
    2.850    6.2454
    2.865    6.1190
    2.880    5.8347
    2.895    5.9505
    2.910    5.8347
    2.925    5.9400
    2.940    6.0874
    2.955    6.4034
    2.970    5.5503
    2.985    6.0453
    3.000    5.9821
    3.015    6.1295
    3.030    5.9926
    3.045    5.9716
    3.060    6.0137
    3.075    5.9400
    3.090    6.2559
    3.105    6.1927
    3.120    5.9505
    3.135    6.0979
    3.150    6.0453
    3.165    6.1927
    3.180    5.9821
    3.195    5.9400
    3.210    5.6451
    3.225    5.6872
    3.240    5.8557
    3.255    5.6767
    3.270    5.7083
    3.285    5.7609
    3.300    5.4239
    3.315    5.9821
    3.330    5.9294
    3.345    5.5819
    3.360    6.2875
    3.375    6.2770
    3.390    5.6451
    3.405    5.8347
    3.420    6.3612
    3.435    6.1611
    3.450    5.7820
    3.465    5.9716
    3.480    5.6135
    3.495    6.0874
    3.510    6.1190
    3.525    6.1822
    3.540    5.9505
    3.555    6.1611
    3.570    5.7083
    3.585    5.7609
    3.600    5.9926
    3.615    5.8662
    3.630    6.0242
    3.645    6.0979
    3.660    5.8662
    3.675    5.6872
    3.690    5.9610
    3.705    5.8347
    3.720    6.0664
    3.735    6.2454
    3.750    5.9294
    3.765    5.8662
    3.780    6.0348
    3.795    5.4028
    3.810    5.7293
    3.825    6.0558
    3.840    6.1085
    3.855    5.8557
    3.870    5.4239
    3.885    5.8662
    3.900    5.7820
    3.915    5.6135
    3.930    5.7188
    3.945    5.7399
    3.960    5.4871
    3.975    5.5608
    3.990    5.7925
    4.005    6.1085
    4.020    6.1506
    4.035    5.9610
    4.050    5.8768
    4.065    5.8768
    4.080    6.0664
    4.095    5.8873
    4.110    5.9084
    4.125    5.6345
    4.140    5.6556
    4.155    5.7820
    4.170    5.6977
    4.185    5.5292
    4.200    5.7925
    4.215    5.6135
    4.230    5.8347
    4.245    5.9189
    4.260    5.9716
    4.275    6.0558
    4.290    5.9189
    4.305    5.8031
    4.320    5.9189
    4.335    5.8873
    4.350    6.0032
    4.365    5.9505
    4.380    5.8662
    4.395    5.5187
    4.410    5.5398
    4.425    5.8662
    4.440    5.9400
    4.455    5.6345
    4.470    5.7188
    4.485    6.0769
    4.500    5.8662
    4.515    5.7399
    4.530    5.0764
    4.545    5.2870
    4.560    5.8347
    4.575    5.6345
    4.590    5.6661
    4.605    5.7609
    4.620    6.0558
    4.635    5.7925
    4.650    5.7504
    4.665    5.5608
    4.680    5.7293
    4.695    6.1401
    4.710    5.9400
    4.725    5.7293
    4.740    5.8662
    4.755    5.7820
    4.770    5.7083
    4.785    5.8557
    4.800    5.8347
    4.815    5.8452
    4.830    5.5398
    4.845    6.0664
    4.860    5.7399
    4.875    5.8662
    4.890    6.0242
    4.905    5.7609
    4.920    5.9400
    4.935    6.0242
    4.950    6.1401
    4.965    5.6661
    4.980    5.5187
    4.995    5.9084
    5.010    5.8768
    5.025    5.7083
    5.040    5.8136
    5.055    6.0032
    5.070    5.8978
    5.085    6.2875
    5.100    5.8873
    5.115    5.4766
    5.130    5.7820
    5.145    5.9926
    5.160    6.1506
    5.175    6.2349
    5.190    5.9294
    5.205    5.6556
    5.220    6.1822
    5.235    5.5398
    5.250    5.2238
    5.265    5.6977
    5.280    6.0137
    5.295    5.7715
    5.310    5.9294
    5.325    5.8557
    5.340    5.6661
    5.355    5.8452
    5.370    5.4871
    5.385    5.5819
    5.400    5.7820
    5.415    6.2454
    5.430    6.0242
    5.445    5.8452
    5.460    5.4766
    5.475    5.6345
    5.490    5.5608
    5.505    5.4871
    5.520    5.7820
    5.535    5.9400
    5.550    6.1506
    5.565    6.0979
    5.580    6.0874
    5.595    5.7925
    5.610    5.7609
    5.625    5.5819
    5.640    5.6240
    5.655    5.9084
    5.670    5.6872
    5.685    5.7293
    5.700    6.2138
    5.715    5.7715
    5.730    5.5819
    5.745    5.7504
    5.760    6.2243
    5.775    6.0558
    5.790    5.7504
    5.805    5.7188
    5.820    5.7609
    5.835    5.7609
    5.850    5.6977
    5.865    5.9084
    5.880    5.7609
    5.895    5.4871
    5.910    5.8347
    5.925    5.9610
    5.940    5.6977
    5.955    5.8978
    5.970    5.7609
    5.985    5.8347
    6.000    6.1295
    6.015    6.1401
    6.030    5.8452
    6.045    5.7399
    6.060    6.0874
    6.075    5.9400
    6.090    5.7293
    6.105    5.8768
    6.120    5.8452
    6.135    5.8031
    6.150    5.9610
    6.165    5.8031
    6.180    5.6661
    6.195    5.9610
    6.210    5.7399
    6.225    5.7293
    6.240    5.8241
    6.255    5.9610
    6.270    5.4344
    6.285    5.7399
    6.300    5.7083
    6.315    5.6556
    6.330    5.8452
    6.345    6.0242
    6.360    5.9716
    6.375    5.6767
    6.390    5.8031
    6.405    5.9084
    6.420    5.6661
    6.435    5.9716
    6.450    6.2559
    6.465    5.9610
    6.480    6.0137
    6.495    5.9294
    6.510    5.4871
    6.525    5.5924
    6.540    6.0769
    6.555    6.0242
    6.570    5.7925
    6.585    6.2454
    6.600    5.7293
    6.615    5.5187
    6.630    5.4239
    6.645    5.8452
    6.660    5.7188
    6.675    5.6661
    6.690    6.0558
    6.705    5.9189
    6.720    5.8768
    6.735    5.7609
    6.750    5.7504
    6.765    5.7399
    6.780    5.3397
    6.795    5.7083
    6.810    5.2238
    6.825    5.6240
    6.840    5.8031
    6.855    5.7925
    6.870    6.3612
    6.885    6.1611
    6.900    6.1401
    6.915    5.9400
    6.930    5.9084
    6.945    5.8662
    6.960    5.8136
    6.975    6.2770
    6.990    5.9505
    7.005    5.8873
    7.020    5.8347
    7.035    5.7715
    7.050    5.8557
    7.065    5.8452
    7.080    5.6767
    7.095    6.0664
    7.110    5.5187
    7.125    5.7715
    7.140    6.1085
    7.155    5.9821
    7.170    5.9610
    7.185    6.3086
    7.200    6.3823
    7.215    5.5503
    7.230    5.5714
    7.245    5.5608
    7.260    5.8031
    7.275    5.7504
    7.290    5.7399
    7.305    5.8452
    7.320    6.1717
    7.335    5.8136
    7.350    5.9400
    7.365    6.4244
    7.380    6.0348
    7.395    5.7925
    7.410    5.8873
    7.425    5.9189
    7.440    5.8873
    7.455    5.7925
    7.470    5.6872
    7.485    5.8557
    7.500    5.7925
    7.515    6.1927
    7.530    6.1401
    7.545    6.2454
    7.560    5.6556
    7.575    5.5608
    7.590    6.2770
    7.605    6.0032
    7.620    6.0664
    7.635    5.9400
    7.650    5.6451
    7.665    5.9821
    7.680    5.8978
    7.695    6.5298
    7.710    6.0769
    7.725    5.9294
    7.740    6.1295
    7.755    5.9505
    7.770    6.1401
    7.785    5.8347
    7.800    5.7609
    7.815    5.7715
    7.830    6.2243
    7.845    6.1717
    7.860    6.2875
    7.875    5.8241
    7.890    5.9189
    7.905    6.1401
    7.920    6.2349
    7.935    5.8873
    7.950    6.1085
    7.965    6.2770
    7.980    6.2454
    7.995    6.2349
    8.010    6.0979
    8.025    5.8136
    8.040    6.0348
    8.055    6.2981
    8.070    6.1927
    8.085    6.2138
    8.100    6.1085
    8.115    5.9926
    8.130    6.0769
    8.145    6.1506
    8.160    6.0769
    8.175    5.9294
    8.190    6.1611
    8.205    5.8662
    8.220    6.2033
    8.235    6.1927
    8.250    6.0348
    8.265    5.8873
    8.280    6.2033
    8.295    6.2138
    8.310    6.3507
    8.325    6.1506
    8.340    6.1927
    8.355    6.4560
    8.370    6.1822
    8.385    6.1085
    8.400    6.5192
    8.415    6.6772
    8.430    6.3507
    8.445    5.9505
    8.460    6.0137
    8.475    6.0769
    8.490    6.0664
    8.505    6.3191
    8.520    6.6351
    8.535    6.3191
    8.550    6.4455
    8.565    6.5192
    8.580    6.0453
    8.595    6.3402
    8.610    6.1927
    8.625    6.4034
    8.640    6.1295
    8.655    5.9189
    8.670    6.2665
    8.685    6.2770
    8.700    6.3823
    8.715    6.0769
    8.730    6.3296
    8.745    6.6245
    8.760    6.4982
    8.775    6.0032
    8.790    6.3718
    8.805    6.3823
    8.820    6.0558
    8.835    6.7088
    8.850    6.2559
    8.865    5.9084
    8.880    6.4350
    8.895    6.3507
    8.910    6.2770
    8.925    6.2454
    8.940    6.2770
    8.955    6.2454
    8.970    6.3507
    8.985    6.2981
    9.000    6.0242
    9.015    6.4771
    9.030    6.8036
    9.045    6.5192
    9.060    6.1085
    9.075    6.3191
    9.090    6.9300
    9.105    6.6983
    9.120    6.3402
    9.135    6.8773
    9.150    6.5824
    9.165    6.4455
    9.180    6.1506
    9.195    6.2559
    9.210    6.0664
    9.225    6.2770
    9.240    6.4876
    9.255    6.5613
    9.270    6.4455
    9.285    6.3823
    9.300    6.3402
    9.315    6.7825
    9.330    6.8878
    9.345    6.7825
    9.360    6.5192
    9.375    6.3718
    9.390    6.7299
    9.405    6.8036
    9.420    7.0248
    9.435    6.4876
    9.450    6.6245
    9.465    6.5508
    9.480    6.9089
    9.495    6.7193
    9.510    7.0037
    9.525    6.6772
    9.540    6.6667
    9.555    6.6245
    9.570    6.2138
    9.585    6.4982
    9.600    6.9405
    9.615    6.2770
    9.630    6.4350
    9.645    6.9194
    9.660    6.7509
    9.675    6.5192
    9.690    6.3086
    9.705    6.5613
    9.720    6.5719
    9.735    6.4771
    9.750    6.7404
    9.765    6.4034
    9.780    6.5087
    9.795    6.8457
    9.810    6.6772
    9.825    6.4139
    9.840    6.8984
    9.855    6.4350
    9.870    6.5298
    9.885    6.7299
    9.900    7.0563
    9.915    7.0458
    9.930    6.8457
    9.945    6.6351
    9.960    6.3402
    9.975    6.8773
    9.990    7.0669
   10.005    6.6456
   10.020    6.7299
   10.035    6.4560
   10.050    6.8036
   10.065    6.9300
   10.080    6.9510
   10.095    6.7299
   10.110    6.4560
   10.125    6.8457
   10.140    6.9089
   10.155    6.5613
   10.170    6.9721
   10.185    7.0458
   10.200    6.6351
   10.215    6.8773
   10.230    6.8246
   10.245    6.5508
   10.260    6.7509
   10.275    6.7088
   10.290    6.8036
   10.305    6.2665
   10.320    6.5298
   10.335    6.6351
   10.350    6.6667
   10.365    6.7509
   10.380    6.5403
   10.395    6.9089
   10.410    7.2038
   10.425    6.7930
   10.440    6.7088
   10.455    6.3928
   10.470    6.4244
   10.485    6.6351
   10.500    6.6667
   10.515    6.6561
   10.530    6.8773
   10.545    6.4876
   10.560    6.5087
   10.575    6.5298
   10.590    6.4139
   10.605    6.4771
   10.620    6.6351
   10.635    6.6877
   10.650    6.7509
   10.665    6.3191
   10.680    6.5719
   10.695    6.5087
   10.710    6.5508
   10.725    6.4350
   10.740    6.4982
   10.755    6.8668
   10.770    6.7615
   10.785    6.7193
   10.800    6.5613
   10.815    6.1506
   10.830    6.4244
   10.845    6.3191
   10.860    6.6667
   10.875    6.6035
   10.890    6.4244
   10.905    6.6035
   10.920    6.6035
   10.935    6.5508
   10.950    6.4560
   10.965    6.5403
   10.980    6.4876
   10.995    6.4982
   11.010    6.4350
   11.025    6.0032
   11.040    6.4350
   11.055    6.5087
   11.070    5.9610
   11.085    6.1717
   11.100    6.2875
   11.115    6.6140
   11.130    6.3718
   11.145    6.3612
   11.160    6.1822
   11.175    6.0769
   11.190    6.2138
   11.205    6.5929
   11.220    6.6983
   11.235    6.2770
   11.250    6.3086
   11.265    6.1085
   11.280    5.9716
   11.295    6.3823
   11.310    6.4139
   11.325    5.8347
   11.340    6.3191
   11.355    6.2770
   11.370    6.4560
   11.385    6.0979
   11.400    6.4560
   11.415    6.2559
   11.430    6.2559
   11.445    6.3191
   11.460    6.1506
   11.475    6.3402
   11.490    6.1611
   11.505    6.1717
   11.520    6.0664
   11.535    6.1085
   11.550    5.8557
   11.565    6.1506
   11.580    6.2770
   11.595    5.9505
   11.610    5.9084
   11.625    5.4555
   11.640    5.6872
   11.655    6.4034
   11.670    6.3296
   11.685    6.1401
   11.700    6.1295
   11.715    6.2559
   11.730    6.1190
   11.745    5.9084
   11.760    5.8347
   11.775    5.7609
   11.790    5.9716
   11.805    5.8873
   11.820    6.0242
   11.835    6.1611
   11.850    6.0558
   11.865    5.9189
   11.880    6.1401
   11.895    6.2875
   11.910    5.9716
   11.925    5.8662
   11.940    5.5292
   11.955    6.0032
   11.970    6.0558
   11.985    5.8978
   12.000    5.8557
   12.015    5.6767
   12.030    5.6135
   12.045    5.7399
   12.060    5.9716
   12.075    5.6135
   12.090    5.9084
   12.105    5.7083
   12.120    5.5503
   12.135    5.3923
   12.150    5.6661
   12.165    5.6872
   12.180    5.6345
   12.195    5.8978
   12.210    5.9294
   12.225    5.7820
   12.240    5.9189
   12.255    5.9716
   12.270    6.0664
   12.285    5.8452
   12.300    5.5292
   12.315    5.5082
   12.330    5.5714
   12.345    5.8873
   12.360    5.6345
   12.375    5.7820
   12.390    5.3923
   12.405    5.6029
   12.420    5.6767
   12.435    5.7083
   12.450    5.7820
   12.465    5.6977
   12.480    5.6767
   12.495    5.4871
   12.510    5.8873
   12.525    6.0348
   12.540    5.5503
   12.555    5.7188
   12.570    5.6135
   12.585    5.8873
   12.600    5.7399
   12.615    5.6977
   12.630    5.6240
   12.645    5.6240
   12.660    5.3607
   12.675    5.5714
   12.690    5.7504
   12.705    5.7399
   12.720    5.2765
   12.735    5.5714
   12.750    5.2554
   12.765    5.3818
   12.780    5.5714
   12.795    5.5819
   12.810    5.5292
   12.825    5.3923
   12.840    5.8031
   12.855    5.4239
   12.870    5.1711
   12.885    5.1185
   12.900    5.2975
   12.915    5.2870
   12.930    5.4450
   12.945    5.5503
   12.960    5.2343
   12.975    5.5082
   12.990    5.7188
   13.005    5.3923
   13.020    5.9716
   13.035    5.7293
   13.050    5.3607
   13.065    5.3502
   13.080    5.2765
   13.095    5.4239
   13.110    5.4450
   13.125    5.4028
   13.140    5.6556
   13.155    5.6029
   13.170    5.5292
   13.185    5.0448
   13.200    5.6135
   13.215    5.2449
   13.230    5.3923
   13.245    5.2449
   13.260    5.1185
   13.275    5.2659
   13.290    5.3712
   13.305    5.3712
   13.320    5.1080
   13.335    5.1922
   13.350    5.5187
   13.365    5.4871
   13.380    5.2554
   13.395    5.1185
   13.410    5.0132
   13.425    5.0869
   13.440    5.4134
   13.455    5.5503
   13.470    5.2554
   13.485    5.4028
   13.500    5.5398
   13.515    5.5924
   13.530    5.2554
   13.545    5.4871
   13.560    5.5819
   13.575    5.3923
   13.590    5.3502
   13.605    5.4134
   13.620    5.4239
   13.635    5.5819
   13.650    5.0342
   13.665    5.4450
   13.680    5.3502
   13.695    5.5714
   13.710    5.5187
   13.725    5.4660
   13.740    5.0974
   13.755    5.4660
   13.770    5.2975
   13.785    5.2765
   13.800    5.1501
   13.815    5.1817
   13.830    5.0342
   13.845    5.0869
   13.860    5.2027
   13.875    5.2659
   13.890    5.0764
   13.905    5.3607
   13.920    5.2133
   13.935    5.3081
   13.950    5.1080
   13.965    4.9816
   13.980    5.3397
   13.995    5.3818
   14.010    5.4766
   14.025    5.3397
   14.040    5.3502
   14.055    5.1711
   14.070    5.2027
   14.085    5.7925
   14.100    5.3081
   14.115    5.7925
   14.130    5.3291
   14.145    5.4344
   14.160    5.3923
   14.175    4.9921
   14.190    5.2133
   14.205    5.1290
   14.220    5.0342
   14.235    5.5819
   14.250    5.3397
   14.265    4.9710
   14.280    5.3607
   14.295    5.1080
   14.310    5.1080
   14.325    5.3186
   14.340    5.0869
   14.355    4.9500
   14.370    5.1185
   14.385    5.1817
   14.400    5.0342
   14.415    5.4344
   14.430    5.2343
   14.445    5.2659
   14.460    5.1606
   14.475    5.3081
   14.490    5.3291
   14.505    5.2449
   14.520    5.3186
   14.535    5.0342
   14.550    5.0869
   14.565    5.5924
   14.580    5.4871
   14.595    5.1817
   14.610    5.1606
   14.625    5.1606
   14.640    5.2659
   14.655    5.2449
   14.670    5.2238
   14.685    5.2238
   14.700    5.3502
   14.715    5.5503
   14.730    5.5398
   14.745    5.3186
   14.760    5.3818
   14.775    5.2870
   14.790    4.9710
   14.805    5.2343
   14.820    4.9605
   14.835    5.0974
   14.850    4.9078
   14.865    5.7399
   14.880    5.5819
   14.895    5.5398
   14.910    5.2659
   14.925    4.9184
   14.940    5.3923
   14.955    5.4239
   14.970    5.1922
   14.985    5.6135
   15.000    5.2449
   15.015    5.3186
   15.030    5.1395
   15.045    5.2027
   15.060    5.3712
   15.075    5.2238
   15.090    5.9821
   15.105    5.4344
   15.120    5.2449
   15.135    5.1817
   15.150    5.1080
   15.165    4.9394
   15.180    5.0237
   15.195    5.1817
   15.210    5.4766
   15.225    5.3397
   15.240    5.3607
   15.255    5.4450
   15.270    5.3607
   15.285    5.0974
   15.300    4.9816
   15.315    5.2975
   15.330    5.2870
   15.345    5.5398
   15.360    5.7293
   15.375    5.4766
   15.390    5.6240
   15.405    5.0026
   15.420    5.2027
   15.435    5.6029
   15.450    4.9500
   15.465    5.0132
   15.480    5.1395
   15.495    5.3923
   15.510    5.6451
   15.525    5.3397
   15.540    5.1922
   15.555    5.3502
   15.570    5.2870
   15.585    5.1817
   15.600    5.2449
   15.615    5.2238
   15.630    5.2659
   15.645    5.0974
   15.660    5.3081
   15.675    5.3397
   15.690    5.1080
   15.705    5.4344
   15.720    5.2975
   15.735    5.0869
   15.750    4.9184
   15.765    5.5398
   15.780    5.5819
   15.795    5.7293
   15.810    5.3397
   15.825    5.0132
   15.840    5.4766
   15.855    5.2133
   15.870    5.4028
   15.885    5.4450
   15.900    5.4344
   15.915    5.4028
   15.930    4.9500
   15.945    4.9710
   15.960    5.0658
   15.975    5.2870
   15.990    5.4239
   16.005    5.2343
   16.020    5.4239
   16.035    5.1922
   16.050    4.9710
   16.065    5.2659
   16.080    5.3818
   16.095    5.1395
   16.110    5.5292
   16.125    5.1290
   16.140    5.1395
   16.155    5.0974
   16.170    5.4028
   16.185    5.4028
   16.200    5.2238
   16.215    5.5714
   16.230    5.2870
   16.245    4.9816
   16.260    5.0553
   16.275    4.9500
   16.290    5.1080
   16.305    5.3502
   16.320    5.2027
   16.335    5.2343
   16.350    5.3397
   16.365    5.3923
   16.380    4.9710
   16.395    5.0764
   16.410    5.4555
   16.425    5.2238
   16.440    5.2975
   16.455    4.9500
   16.470    5.1395
   16.485    5.6977
   16.500    5.6556
   16.515    5.4450
   16.530    5.2870
   16.545    5.3712
   16.560    5.3291
   16.575    4.9921
   16.590    5.1711
   16.605    5.2659
   16.620    4.9289
   16.635    5.3818
   16.650    5.2238
   16.665    5.3081
   16.680    5.8662
   16.695    5.5187
   16.710    5.7293
   16.725    5.4555
   16.740    5.4344
   16.755    5.2659
   16.770    5.3502
   16.785    5.2659
   16.800    5.2765
   16.815    5.3186
   16.830    5.3923
   16.845    5.5187
   16.860    5.2975
   16.875    5.4344
   16.890    5.2659
   16.905    5.1185
   16.920    5.1290
   16.935    5.1290
   16.950    5.2133
   16.965    5.2975
   16.980    5.0869
   16.995    5.4660
   17.010    5.3502
   17.025    5.3186
   17.040    5.3923
   17.055    5.2343
   17.070    5.2765
   17.085    5.2238
   17.100    5.4028
   17.115    5.4239
   17.130    5.5292
   17.145    5.3081
   17.160    4.9816
   17.175    5.6345
   17.190    5.2659
   17.205    5.1922
   17.220    5.4344
   17.235    5.3502
   17.250    5.4660
   17.265    5.3291
   17.280    4.9500
   17.295    5.0658
   17.310    5.2870
   17.325    5.2133
   17.340    5.5924
   17.355    5.2870
   17.370    5.0132
   17.385    5.3818
   17.400    5.1606
   17.415    5.1606
   17.430    5.6135
   17.445    5.0132
   17.460    5.4871
   17.475    5.2659
   17.490    5.3712
   17.505    5.4344
   17.520    5.3291
   17.535    5.4028
   17.550    4.9394
   17.565    5.2449
   17.580    5.2975
   17.595    5.6240
   17.610    5.1711
   17.625    5.4555
   17.640    5.6345
   17.655    5.1606
   17.670    5.1606
   17.685    5.0764
   17.700    5.1080
   17.715    5.2554
   17.730    5.5082
   17.745    5.2449
   17.760    4.8657
   17.775    5.2554
   17.790    5.4555
   17.805    5.4766
   17.820    5.6240
   17.835    5.5187
   17.850    5.5714
   17.865    5.4660
   17.880    5.3291
   17.895    5.4976
   17.910    5.1185
   17.925    5.2870
   17.940    5.3607
   17.955    5.3607
   17.970    5.3291
   17.985    5.3291
   18.000    5.2659
   18.015    5.5398
   18.030    5.6451
   18.045    5.2870
   18.060    5.5398
   18.075    5.2975
   18.090    5.1817
   18.105    4.9921
   18.120    5.5082
   18.135    5.3291
   18.150    5.2975
   18.165    5.4976
   18.180    5.4766
   18.195    4.9184
   18.210    5.5503
   18.225    5.4239
   18.240    5.4976
   18.255    5.3397
   18.270    5.1080
   18.285    5.3397
   18.300    5.8452
   18.315    5.5187
   18.330    5.3081
   18.345    5.3923
   18.360    5.2449
   18.375    5.5292
   18.390    5.2027
   18.405    5.4028
   18.420    5.5714
   18.435    5.1922
   18.450    5.3186
   18.465    5.0342
   18.480    5.0132
   18.495    5.4239
   18.510    5.4028
   18.525    5.4344
   18.540    5.6135
   18.555    5.1922
   18.570    5.3712
   18.585    5.3397
   18.600    5.3712
   18.615    5.5819
   18.630    5.4344
   18.645    5.4239
   18.660    5.3923
   18.675    5.4239
   18.690    5.2133
   18.705    5.5714
   18.720    5.3923
   18.735    5.6556
   18.750    5.6029
   18.765    5.5714
   18.780    5.5503
   18.795    5.7083
   18.810    5.8452
   18.825    5.3186
   18.840    5.2238
   18.855    5.4134
   18.870    5.2659
   18.885    5.4976
   18.900    5.3291
   18.915    5.1290
   18.930    5.3712
   18.945    5.4976
   18.960    5.7820
   18.975    5.8136
   18.990    6.0348
   19.005    5.7188
   19.020    5.6767
   19.035    5.6872
   19.050    5.8347
   19.065    5.7504
   19.080    5.8241
   19.095    5.5398
   19.110    5.2659
   19.125    5.0026
   19.140    5.1080
   19.155    5.4344
   19.170    5.5292
   19.185    5.5608
   19.200    5.3081
   19.215    5.3081
   19.230    5.5398
   19.245    5.4239
   19.260    5.3712
   19.275    5.2975
   19.290    5.4450
   19.305    5.6240
   19.320    5.2975
   19.335    5.4976
   19.350    5.5187
   19.365    5.2659
   19.380    5.2554
   19.395    5.0342
   19.410    5.1501
   19.425    5.1711
   19.440    5.6240
   19.455    5.5187
   19.470    5.3186
   19.485    5.1395
   19.500    5.0764
   19.515    5.7609
   19.530    5.7399
   19.545    5.4239
   19.560    5.3186
   19.575    5.4134
   19.590    5.3607
   19.605    5.4450
   19.620    5.4555
   19.635    5.4766
   19.650    5.5924
   19.665    5.2554
   19.680    5.5187
   19.695    5.5292
   19.710    5.3712
   19.725    5.4555
   19.740    5.8978
   19.755    5.4766
   19.770    5.2659
   19.785    5.6556
   19.800    5.2238
   19.815    5.4766
   19.830    5.4555
   19.845    5.4660
   19.860    5.4976
   19.875    5.3186
   19.890    5.3291
   19.905    5.4555
   19.920    5.6451
   19.935    5.4976
   19.950    5.3186
   19.965    5.3818
   19.980    5.5714
   19.995    5.4660
   20.010    5.5187
   20.025    5.2659
   20.040    5.3607
   20.055    5.3607
   20.070    5.7504
   20.085    5.9716
   20.100    5.7083
   20.115    5.7188
   20.130    5.5608
   20.145    5.8136
   20.160    5.5292
   20.175    5.1817
   20.190    5.5187
   20.205    5.3397
   20.220    5.4555
   20.235    5.7083
   20.250    5.8031
   20.265    5.4239
   20.280    5.6767
   20.295    5.8768
   20.310    5.5503
   20.325    5.3712
   20.340    5.3081
   20.355    5.4344
   20.370    5.4239
   20.385    5.5608
   20.400    5.6029
   20.415    5.6556
   20.430    5.8031
   20.445    5.8031
   20.460    5.7083
   20.475    5.9505
   20.490    5.6451
   20.505    5.5608
   20.520    5.5187
   20.535    5.7609
   20.550    5.6977
   20.565    5.4976
   20.580    5.4028
   20.595    5.7293
   20.610    6.0453
   20.625    5.7925
   20.640    5.6661
   20.655    6.0769
   20.670    5.7820
   20.685    5.6872
   20.700    5.7504
   20.715    5.6556
   20.730    5.7083
   20.745    5.6872
   20.760    5.4134
   20.775    5.4660
   20.790    5.7083
   20.805    5.5187
   20.820    5.4871
   20.835    5.4028
   20.850    5.5608
   20.865    5.7715
   20.880    5.5292
   20.895    5.4239
   20.910    5.7188
   20.925    5.4555
   20.940    5.6977
   20.955    5.6872
   20.970    6.0769
   20.985    5.8557
   21.000    5.5082
   21.015    5.4976
   21.030    5.5819
   21.045    5.5503
   21.060    5.9926
   21.075    5.7609
   21.090    5.4344
   21.105    5.4660
   21.120    5.6872
   21.135    5.4660
   21.150    5.8241
   21.165    5.5187
   21.180    5.7925
   21.195    5.7504
   21.210    5.8662
   21.225    5.8136
   21.240    5.9084
   21.255    5.7188
   21.270    5.6135
   21.285    6.0769
   21.300    5.8662
   21.315    5.5082
   21.330    5.8031
   21.345    5.7820
   21.360    5.4976
   21.375    6.0137
   21.390    5.8136
   21.405    5.8241
   21.420    5.7293
   21.435    5.9294
   21.450    5.4555
   21.465    5.5187
   21.480    5.6135
   21.495    5.7188
   21.510    5.9821
   21.525    5.5819
   21.540    6.0979
   21.555    5.8452
   21.570    6.0453
   21.585    6.0979
   21.600    5.8452
   21.615    5.5714
   21.630    5.4134
   21.645    5.8662
   21.660    6.0348
   21.675    5.8873
   21.690    5.8873
   21.705    5.8978
   21.720    5.7609
   21.735    5.6872
   21.750    5.8557
   21.765    5.9821
   21.780    5.4660
   21.795    5.2027
   21.810    5.6661
   21.825    5.5187
   21.840    5.5503
   21.855    5.6556
   21.870    5.8978
   21.885    5.9926
   21.900    5.6451
   21.915    5.7820
   21.930    5.7715
   21.945    5.9610
   21.960    5.7504
   21.975    6.2665
   21.990    5.8768
   22.005    5.8136
   22.020    5.6451
   22.035    5.8241
   22.050    5.8452
   22.065    5.5714
   22.080    5.6240
   22.095    5.8978
   22.110    5.8978
   22.125    5.8873
   22.140    5.8768
   22.155    5.5187
   22.170    5.8347
   22.185    5.6240
   22.200    5.7820
   22.215    5.8136
   22.230    5.6767
   22.245    5.8768
   22.260    5.7083
   22.275    5.6872
   22.290    5.7609
   22.305    5.5398
   22.320    5.6451
   22.335    5.8557
   22.350    6.2349
   22.365    6.0769
   22.380    5.6029
   22.395    5.9189
   22.410    5.8873
   22.425    5.7293
   22.440    6.1506
   22.455    6.1085
   22.470    5.9189
   22.485    5.9084
   22.500    5.8873
   22.515    5.5082
   22.530    5.5924
   22.545    5.6240
   22.560    6.0558
   22.575    5.9716
   22.590    6.0032
   22.605    5.9610
   22.620    5.9821
   22.635    5.9716
   22.650    5.6767
   22.665    5.7715
   22.680    5.6029
   22.695    5.9610
   22.710    5.6767
   22.725    5.8347
   22.740    6.2033
   22.755    5.8452
   22.770    6.1717
   22.785    6.0032
   22.800    6.1927
   22.815    5.7504
   22.830    6.0137
   22.845    5.9294
   22.860    6.1506
   22.875    5.9505
   22.890    5.8768
   22.905    6.0242
   22.920    6.0979
   22.935    5.9400
   22.950    5.9400
   22.965    6.1085
   22.980    5.6872
   22.995    5.8873
   23.010    6.1085
   23.025    5.8347
   23.040    5.7083
   23.055    5.4766
   23.070    5.8978
   23.085    5.8031
   23.100    5.5187
   23.115    5.9189
   23.130    5.8557
   23.145    5.8873
   23.160    5.8978
   23.175    5.7504
   23.190    5.6977
   23.205    5.9400
   23.220    5.9400
   23.235    6.0979
   23.250    6.1190
   23.265    5.8557
   23.280    5.5398
   23.295    5.8347
   23.310    6.2454
   23.325    5.8452
   23.340    5.7609
   23.355    5.2449
   23.370    5.5398
   23.385    5.6556
   23.400    5.8136
   23.415    5.8136
   23.430    5.8136
   23.445    5.6977
   23.460    5.7083
   23.475    5.9189
   23.490    5.8662
   23.505    5.6135
   23.520    6.0664
   23.535    6.2138
   23.550    5.8452
   23.565    5.9400
   23.580    5.9084
   23.595    5.8873
   23.610    5.6977
   23.625    5.7083
   23.640    6.1085
   23.655    5.9400
   23.670    6.0453
   23.685    6.0453
   23.700    5.9294
   23.715    5.5924
   23.730    5.7820
   23.745    5.5714
   23.760    5.6240
   23.775    5.6240
   23.790    5.8662
   23.805    6.0137
   23.820    5.8136
   23.835    6.2243
   23.850    5.9505
   23.865    5.9294
   23.880    5.9926
   23.895    5.6661
   23.910    5.6451
   23.925    5.8136
   23.940    6.0032
   23.955    6.0137
   23.970    5.9821
   23.985    5.8452
   24.000    6.1295
   24.015    6.3191
   24.030    6.0558
   24.045    5.6556
   24.060    5.8136
   24.075    5.5187
   24.090    5.7083
   24.105    5.9084
   24.120    6.0769
   24.135    5.9084
   24.150    6.0664
   24.165    5.7504
   24.180    5.7399
   24.195    5.6872
   24.210    6.0348
   24.225    5.8557
   24.240    5.5503
   24.255    5.9505
   24.270    6.1506
   24.285    5.6345
   24.300    5.9189
   24.315    5.8662
   24.330    5.9400
   24.345    5.5714
   24.360    5.7083
   24.375    5.4976
   24.390    5.8662
   24.405    5.3607
   24.420    5.7715
   24.435    5.7925
   24.450    5.4344
   24.465    5.1606
   24.480    5.5924
   24.495    5.8031
   24.510    5.7188
   24.525    5.4028
   24.540    5.6556
   24.555    5.8662
   24.570    6.1085
   24.585    5.9716
   24.600    5.6661
   24.615    5.7188
   24.630    5.8031
   24.645    5.4660
   24.660    5.3712
   24.675    5.8452
   24.690    6.0242
   24.705    5.7293
   24.720    5.6767
   24.735    5.4766
   24.750    5.6977
   24.765    5.8136
   24.780    5.8662
   24.795    5.8347
   24.810    5.4766
   24.825    5.5187
   24.840    5.6977
   24.855    5.8557
   24.870    5.7820
   24.885    5.5714
   24.900    5.6872
   24.915    5.8031
   24.930    5.9084
   24.945    5.9610
   24.960    5.8347
   24.975    5.9084
   24.990    5.6767
   25.005    5.8241
   25.020    5.8978
   25.035    5.4871
   25.050    5.4028
   25.065    5.8557
   25.080    5.8557
   25.095    5.7715
   25.110    5.5292
   25.125    5.5924
   25.140    5.9294
   25.155    5.8768
   25.170    5.9189
   25.185    5.4555
   25.200    5.5819
   25.215    5.9084
   25.230    5.7715
   25.245    6.0979
   25.260    5.6556
   25.275    5.6767
   25.290    5.7399
   25.305    5.8873
   25.320    5.7083
   25.335    5.7504
   25.350    5.3081
   25.365    5.7504
   25.380    5.6135
   25.395    5.4450
   25.410    5.9610
   25.425    5.7188
   25.440    5.7925
   25.455    5.5924
   25.470    5.5187
   25.485    5.6556
   25.500    6.0137
   25.515    5.6451
   25.530    5.6661
   25.545    5.8136
   25.560    5.5819
   25.575    5.3607
   25.590    5.2659
   25.605    5.5924
   25.620    5.2449
   25.635    5.4134
   25.650    5.6661
   25.665    5.5714
   25.680    5.5187
   25.695    5.5608
   25.710    5.4871
   25.725    5.5608
   25.740    5.6767
   25.755    5.5714
   25.770    5.6240
   25.785    5.5714
   25.800    5.8662
   25.815    5.7083
   25.830    5.9821
   25.845    5.6767
   25.860    5.9505
   25.875    5.4766
   25.890    5.3186
   25.905    5.4239
   25.920    5.4134
   25.935    5.4028
   25.950    5.4134
   25.965    5.8347
   25.980    5.5819
   25.995    5.7188
   26.010    5.5292
   26.025    5.6240
   26.040    5.7083
   26.055    5.2659
   26.070    5.2975
   26.085    5.4028
   26.100    5.7715
   26.115    5.6767
   26.130    5.4660
   26.145    5.5608
   26.160    5.5082
   26.175    5.4028
   26.190    5.8241
   26.205    5.6451
   26.220    5.5924
   26.235    5.4555
   26.250    5.3397
   26.265    5.2870
   26.280    5.6451
   26.295    5.2659
   26.310    5.4976
   26.325    5.5398
   26.340    5.0974
   26.355    5.5819
   26.370    5.7083
   26.385    5.3923
   26.400    5.7083
   26.415    5.8031
   26.430    5.9610
   26.445    5.8347
   26.460    5.7083
   26.475    5.3502
   26.490    5.9716
   26.505    5.4134
   26.520    5.4660
   26.535    5.5924
   26.550    5.5398
   26.565    5.4871
   26.580    5.3712
   26.595    5.5292
   26.610    5.4450
   26.625    5.4766
   26.640    5.6135
   26.655    5.9084
   26.670    5.6661
   26.685    5.4766
   26.700    5.5082
   26.715    5.6977
   26.730    5.4555
   26.745    5.1606
   26.760    5.7188
   26.775    5.5187
   26.790    5.2343
   26.805    5.3818
   26.820    5.4239
   26.835    5.3397
   26.850    5.2659
   26.865    5.5608
   26.880    5.6345
   26.895    5.4871
   26.910    5.3397
   26.925    5.3818
   26.940    5.2975
   26.955    5.1185
   26.970    5.4134
   26.985    5.2975
   27.000    5.8136
   27.015    5.3923
   27.030    5.5292
   27.045    5.3712
   27.060    5.4450
   27.075    5.2133
   27.090    5.4450
   27.105    5.2027
   27.120    5.6451
   27.135    5.5714
   27.150    5.4871
   27.165    5.2659
   27.180    5.4239
   27.195    5.2975
   27.210    5.1080
   27.225    5.1395
   27.240    5.1501
   27.255    5.0764
   27.270    5.0342
   27.285    5.0553
   27.300    5.4239
   27.315    5.2870
   27.330    5.0342
   27.345    5.1606
   27.360    5.0658
   27.375    5.1606
   27.390    5.5398
   27.405    5.3081
   27.420    5.3397
   27.435    5.4766
   27.450    5.3712
   27.465    5.3607
   27.480    5.3607
   27.495    5.4239
   27.510    5.2133
   27.525    5.6451
   27.540    5.3186
   27.555    5.4450
   27.570    5.6135
   27.585    5.7609
   27.600    5.1817
   27.615    5.1606
   27.630    5.2659
   27.645    5.3818
   27.660    5.6556
   27.675    5.5714
   27.690    5.3397
   27.705    4.9710
   27.720    5.2343
   27.735    5.4134
   27.750    5.2238
   27.765    5.5292
   27.780    5.2975
   27.795    5.3186
   27.810    5.5292
   27.825    5.7925
   27.840    5.6240
   27.855    5.5608
   27.870    5.5924
   27.885    5.3502
   27.900    5.2765
   27.915    5.2027
   27.930    5.3397
   27.945    5.4344
   27.960    5.3923
   27.975    5.3081
   27.990    5.3818
   28.005    5.7399
   28.020    5.4976
   28.035    5.0448
   28.050    5.3923
   28.065    5.4344
   28.080    5.3081
   28.095    5.0448
   28.110    5.2554
   28.125    5.2975
   28.140    5.4871
   28.155    5.4871
   28.170    5.3818
   28.185    5.4239
   28.200    5.1080
   28.215    5.0974
   28.230    5.0764
   28.245    5.2343
   28.260    5.3712
   28.275    5.2343
   28.290    4.8868
   28.305    5.2027
   28.320    5.0974
   28.335    5.3186
   28.350    5.3186
   28.365    4.9816
   28.380    5.2975
   28.395    5.6135
   28.410    5.4344
   28.425    5.5292
   28.440    5.0553
   28.455    5.1501
   28.470    4.9816
   28.485    4.9816
   28.500    5.4028
   28.515    5.2133
   28.530    5.2449
   28.545    5.2343
   28.560    5.3712
   28.575    5.1501
   28.590    5.3186
   28.605    5.6029
   28.620    5.7609
   28.635    5.1395
   28.650    4.9078
   28.665    5.0764
   28.680    4.9500
   28.695    5.3712
   28.710    4.9710
   28.725    5.1290
   28.740    5.2659
   28.755    5.4871
   28.770    5.4134
   28.785    5.0026
   28.800    4.8973
   28.815    5.1606
   28.830    4.9816
   28.845    4.7920
   28.860    4.6340
   28.875    5.2554
   28.890    5.2343
   28.905    5.4344
   28.920    5.4344
   28.935    5.1711
   28.950    5.2343
   28.965    5.2554
   28.980    5.1290
   28.995    5.0869
   29.010    5.4028
   29.025    5.0026
   29.040    4.8341
   29.055    5.0869
   29.070    5.1606
   29.085    5.3397
   29.100    5.0132
   29.115    5.2133
   29.130    4.9500
   29.145    4.9921
   29.160    5.1395
   29.175    5.2133
   29.190    5.0237
   29.205    5.1922
   29.220    4.8447
   29.235    5.2238
   29.250    4.8763
   29.265    5.0869
   29.280    4.8236
   29.295    5.1395
   29.310    5.2975
   29.325    5.1395
   29.340    4.8236
   29.355    4.9816
   29.370    5.0553
   29.385    4.9816
   29.400    5.0974
   29.415    5.0026
   29.430    5.1711
   29.445    5.0658
   29.460    4.9078
   29.475    4.9289
   29.490    4.8236
   29.505    5.2870
   29.520    5.2765
   29.535    4.8236
   29.550    5.0026
   29.565    5.0974
   29.580    4.8447
   29.595    4.9394
   29.610    5.0132
   29.625    4.7499
   29.640    4.7393
   29.655    5.0869
   29.670    4.9816
   29.685    4.5708
   29.700    4.6761
   29.715    4.9184
   29.730    4.7709
   29.745    5.0974
   29.760    5.0658
   29.775    5.0553
   29.790    5.1922
   29.805    4.8973
   29.820    4.8341
   29.835    4.8657
   29.850    4.7920
   29.865    5.1922
   29.880    5.1922
   29.895    4.9184
   29.910    4.7499
   29.925    5.1606
   29.940    5.0658
   29.955    4.7709
   29.970    4.8552
   29.985    5.0132
   30.000    4.9710
   30.015    4.9184
   30.030    4.6551
   30.045    4.9816
   30.060    5.0026
   30.075    4.9500
   30.090    5.0448
   30.105    4.8868
   30.120    4.8657
   30.135    4.6130
   30.150    4.3286
   30.165    4.6024
   30.180    4.5919
   30.195    4.6130
   30.210    4.8657
   30.225    4.8447
   30.240    5.0132
   30.255    4.8552
   30.270    4.2970
   30.285    4.6551
   30.300    4.5919
   30.315    4.7815
   30.330    4.7920
   30.345    4.6340
   30.360    4.5814
   30.375    4.9289
   30.390    4.6340
   30.405    4.8025
   30.420    4.9710
   30.435    4.8025
   30.450    4.5919
   30.465    4.8868
   30.480    5.2238
   30.495    4.6445
   30.510    4.6024
   30.525    4.8025
   30.540    4.7709
   30.555    4.6235
   30.570    5.0553
   30.585    5.0553
   30.600    4.8131
   30.615    4.4971
   30.630    4.9184
   30.645    4.5919
   30.660    4.3497
   30.675    4.6024
   30.690    4.6972
   30.705    4.7288
   30.720    5.2975
   30.735    4.5919
   30.750    4.5919
   30.765    4.8447
   30.780    4.7288
   30.795    4.7815
   30.810    4.8973
   30.825    4.9921
   30.840    4.6130
   30.855    4.8025
   30.870    4.9184
   30.885    4.7288
   30.900    4.8447
   30.915    4.8973
   30.930    4.9605
   30.945    4.6761
   30.960    4.7077
   30.975    4.7499
   30.990    4.8236
   31.005    4.9500
   31.020    4.7499
   31.035    4.8131
   31.050    4.4444
   31.065    4.7393
   31.080    4.7393
   31.095    4.4971
   31.110    4.6551
   31.125    4.7709
   31.140    4.6235
   31.155    4.6130
   31.170    4.9394
   31.185    4.5708
   31.200    4.7709
   31.215    4.6867
   31.230    4.8025
   31.245    4.9184
   31.260    4.5708
   31.275    4.7077
   31.290    4.7393
   31.305    4.8025
   31.320    4.4866
   31.335    4.3918
   31.350    4.5603
   31.365    4.6024
   31.380    5.1185
   31.395    4.8025
   31.410    4.6867
   31.425    4.4760
   31.440    4.5076
   31.455    4.4760
   31.470    4.7604
   31.485    4.8868
   31.500    4.7604
   31.515    4.6867
   31.530    4.6656
   31.545    5.1080
   31.560    4.9078
   31.575    4.6024
   31.590    4.4234
   31.605    4.2970
   31.620    4.6340
   31.635    4.8447
   31.650    4.7183
   31.665    4.8868
   31.680    4.4971
   31.695    4.7499
   31.710    4.7604
   31.725    4.7920
   31.740    4.6656
   31.755    4.7288
   31.770    4.6551
   31.785    4.3707
   31.800    4.3813
   31.815    4.5708
   31.830    4.4655
   31.845    4.7499
   31.860    4.6761
   31.875    4.5708
   31.890    4.7815
   31.905    4.4971
   31.920    4.6761
   31.935    4.4234
   31.950    4.6024
   31.965    4.5814
   31.980    4.6130
   31.995    4.5392
   32.010    4.5708
   32.025    4.9500
   32.040    4.7288
   32.055    4.9710
   32.070    4.7815
   32.085    4.7499
   32.100    4.9816
   32.115    4.9184
   32.130    4.9710
   32.145    5.0764
   32.160    4.8447
   32.175    5.0237
   32.190    4.9500
   32.205    4.6656
   32.220    4.4023
   32.235    4.4234
   32.250    4.7183
   32.265    4.8236
   32.280    4.4339
   32.295    4.2759
   32.310    4.4023
   32.325    4.5603
   32.340    4.4760
   32.355    4.3181
   32.370    4.3918
   32.385    4.6235
   32.400    4.4550
   32.415    4.3181
   32.430    4.2127
   32.445    4.0653
   32.460    4.2865
   32.475    4.6024
   32.490    4.7077
   32.505    4.2970
   32.520    4.8552
   32.535    4.4339
   32.550    4.5392
   32.565    4.3181
   32.580    4.5287
   32.595    4.3707
   32.610    4.2022
   32.625    4.6340
   32.640    4.6972
   32.655    4.3918
   32.670    4.4128
   32.685    4.3286
   32.700    4.3707
   32.715    4.2759
   32.730    4.2127
   32.745    4.3497
   32.760    4.1706
   32.775    4.3497
   32.790    4.6340
   32.805    4.4866
   32.820    4.3602
   32.835    4.3391
   32.850    4.1811
   32.865    4.4339
   32.880    4.1811
   32.895    4.3602
   32.910    4.4128
   32.925    4.3075
   32.940    4.4866
   32.955    4.5708
   32.970    4.3707
   32.985    4.5392
   33.000    4.4971
   33.015    4.3075
   33.030    4.3918
   33.045    4.3707
   33.060    4.4444
   33.075    4.1917
   33.090    4.3075
   33.105    4.1390
   33.120    4.1811
   33.135    4.4444
   33.150    4.4339
   33.165    4.2443
   33.180    4.4128
   33.195    4.5392
   33.210    4.4760
   33.225    4.3286
   33.240    4.2443
   33.255    4.3075
   33.270    4.0864
   33.285    4.1706
   33.300    4.1390
   33.315    4.2549
   33.330    4.4550
   33.345    4.3286
   33.360    4.5287
   33.375    4.3918
   33.390    4.2970
   33.405    4.6235
   33.420    4.2865
   33.435    4.3286
   33.450    4.2022
   33.465    4.1706
   33.480    4.0021
   33.495    4.2233
   33.510    4.1496
   33.525    4.4866
   33.540    4.5182
   33.555    4.4339
   33.570    4.0758
   33.585    4.4550
   33.600    4.3181
   33.615    3.9284
   33.630    4.5076
   33.645    4.2865
   33.660    4.3286
   33.675    4.0126
   33.690    3.9389
   33.705    4.0126
   33.720    4.1496
   33.735    4.1706
   33.750    4.1496
   33.765    4.1390
   33.780    4.2443
   33.795    4.6235
   33.810    4.4444
   33.825    4.1285
   33.840    4.5076
   33.855    4.4128
   33.870    4.4655
   33.885    4.0021
   33.900    4.4128
   33.915    4.5076
   33.930    4.5498
   33.945    4.4339
   33.960    4.1390
   33.975    4.3075
   33.990    4.3918
   34.005    4.4339
   34.020    4.4234
   34.035    4.2759
   34.050    4.3391
   34.065    4.2549
   34.080    4.2233
   34.095    4.2443
   34.110    3.8968
   34.125    4.0337
   34.140    4.4760
   34.155    4.2127
   34.170    4.1074
   34.185    4.0442
   34.200    4.3391
   34.215    3.9916
   34.230    4.4760
   34.245    4.3181
   34.260    4.2759
   34.275    4.4023
   34.290    4.4234
   34.305    4.2338
   34.320    4.4866
   34.335    4.0758
   34.350    4.1074
   34.365    4.2865
   34.380    4.4444
   34.395    4.0548
   34.410    3.8757
   34.425    3.9073
   34.440    4.1706
   34.455    4.3075
   34.470    4.2338
   34.485    4.1285
   34.500    4.0969
   34.515    4.1496
   34.530    4.5498
   34.545    4.1601
   34.560    4.2549
   34.575    3.9916
   34.590    4.0653
   34.605    4.1285
   34.620    4.4023
   34.635    4.2549
   34.650    4.0969
   34.665    4.3602
   34.680    4.3181
   34.695    4.4128
   34.710    4.0126
   34.725    4.1180
   34.740    4.2443
   34.755    4.1285
   34.770    4.2759
   34.785    4.0653
   34.800    4.2022
   34.815    4.1074
   34.830    3.9389
   34.845    4.1285
   34.860    4.2759
   34.875    4.0337
   34.890    4.1180
   34.905    3.9600
   34.920    4.0021
   34.935    4.3286
   34.950    4.2970
   34.965    4.3813
   34.980    4.3075
   34.995    4.1496
   35.010    4.3181
   35.025    4.3075
   35.040    4.1811
   35.055    3.8020
   35.070    4.0864
   35.085    4.1601
   35.100    4.3286
   35.115    4.0758
   35.130    3.8652
   35.145    3.9810
   35.160    3.9494
   35.175    3.6967
   35.190    4.2233
   35.205    4.2022
   35.220    3.8863
   35.235    3.9705
   35.250    4.1917
   35.265    4.0548
   35.280    4.1811
   35.295    4.0337
   35.310    4.3602
   35.325    4.3286
   35.340    3.9284
   35.355    4.0337
   35.370    4.0337
   35.385    4.1811
   35.400    4.0653
   35.415    4.0653
   35.430    3.9705
   35.445    4.0864
   35.460    4.3918
   35.475    4.2549
   35.490    4.2549
   35.505    4.2970
   35.520    4.2443
   35.535    4.1390
   35.550    4.2233
   35.565    4.1074
   35.580    3.9284
   35.595    4.0653
   35.610    3.7704
   35.625    4.1811
   35.640    4.0232
   35.655    4.0653
   35.670    3.8757
   35.685    3.9600
   35.700    4.0864
   35.715    4.2759
   35.730    3.8125
   35.745    3.9284
   35.760    3.8652
   35.775    3.9810
   35.790    3.8652
   35.805    4.0442
   35.820    4.1917
   35.835    4.1811
   35.850    4.0126
   35.865    3.8652
   35.880    4.1180
   35.895    3.9810
   35.910    4.4234
   35.925    4.2654
   35.940    4.0021
   35.955    3.9494
   35.970    3.7809
   35.985    4.0758
   36.000    3.9389
   36.015    3.9284
   36.030    4.0864
   36.045    3.8231
   36.060    4.2022
   36.075    4.0548
   36.090    4.0969
   36.105    4.2865
   36.120    4.0232
   36.135    3.8652
   36.150    3.7809
   36.165    3.6862
   36.180    3.5598
   36.195    3.9494
   36.210    4.0653
   36.225    3.7704
   36.240    3.8547
   36.255    4.0442
   36.270    4.0864
   36.285    4.0864
   36.300    3.8125
   36.315    3.8125
   36.330    3.7493
   36.345    3.7599
   36.360    3.6967
   36.375    3.8757
   36.390    3.7493
   36.405    3.7388
   36.420    3.7388
   36.435    3.8968
   36.450    3.8441
   36.465    3.8231
   36.480    3.8547
   36.495    4.0126
   36.510    3.9284
   36.525    3.8020
   36.540    3.6862
   36.555    3.8336
   36.570    3.7177
   36.585    3.8652
   36.600    3.9284
   36.615    4.0758
   36.630    4.2443
   36.645    3.9179
   36.660    3.9916
   36.675    4.0969
   36.690    3.9073
   36.705    3.8652
   36.720    3.8336
   36.735    3.7388
   36.750    3.8125
   36.765    3.8547
   36.780    4.1074
   36.795    3.7809
   36.810    3.7493
   36.825    3.7915
   36.840    4.0126
   36.855    3.9810
   36.870    3.9600
   36.885    3.9284
   36.900    3.9179
   36.915    3.8652
   36.930    4.1811
   36.945    3.8020
   36.960    3.9179
   36.975    3.7599
   36.990    4.0337
   37.005    4.0758
   37.020    4.0969
   37.035    4.0126
   37.050    4.1390
   37.065    4.0126
   37.080    3.9494
   37.095    3.8968
   37.110    3.9810
   37.125    3.8757
   37.140    3.7809
   37.155    3.9073
   37.170    3.7493
   37.185    3.9494
   37.200    3.6756
   37.215    3.6335
   37.230    3.9284
   37.245    4.0969
   37.260    4.0442
   37.275    3.9284
   37.290    4.2233
   37.305    3.9389
   37.320    3.7704
   37.335    3.9284
   37.350    4.0126
   37.365    4.0969
   37.380    3.8968
   37.395    3.8968
   37.410    3.8968
   37.425    3.9705
   37.440    3.7493
   37.455    3.9073
   37.470    3.8968
   37.485    3.9916
   37.500    3.8547
   37.515    4.2338
   37.530    3.9389
   37.545    4.0021
   37.560    3.8968
   37.575    3.9600
   37.590    4.2022
   37.605    3.9494
   37.620    3.8125
   37.635    3.9389
   37.650    4.0758
   37.665    3.9494
   37.680    3.9073
   37.695    3.9916
   37.710    3.9810
   37.725    3.6756
   37.740    3.8652
   37.755    3.9916
   37.770    3.4966
   37.785    3.2017
   37.800    3.5176
   37.815    3.7283
   37.830    3.7915
   37.845    3.9284
   37.860    4.0653
   37.875    3.6651
   37.890    3.5808
   37.905    3.8441
   37.920    3.8652
   37.935    3.7599
   37.950    3.6124
   37.965    3.9600
   37.980    3.9073
   37.995    3.7283
   38.010    3.9284
   38.025    3.9916
   38.040    3.8336
   38.055    4.2127
   38.070    4.1601
   38.085    3.6967
   38.100    3.9179
   38.115    3.8441
   38.130    3.6019
   38.145    4.0337
   38.160    4.3181
   38.175    4.0758
   38.190    4.0337
   38.205    3.6967
   38.220    3.6335
   38.235    3.6651
   38.250    3.8652
   38.265    3.7388
   38.280    3.9389
   38.295    3.8652
   38.310    3.5387
   38.325    3.8336
   38.340    3.7599
   38.355    3.4860
   38.370    3.6756
   38.385    3.6546
   38.400    3.4439
   38.415    3.9179
   38.430    3.6862
   38.445    3.7915
   38.460    3.9284
   38.475    3.9600
   38.490    4.0232
   38.505    3.9810
   38.520    4.0969
   38.535    3.9810
   38.550    3.9600
   38.565    3.8441
   38.580    3.9073
   38.595    3.8757
   38.610    3.8231
   38.625    3.7072
   38.640    3.8968
   38.655    3.6862
   38.670    3.8020
   38.685    3.7915
   38.700    3.5387
   38.715    3.7072
   38.730    3.9916
   38.745    4.0969
   38.760    3.5703
   38.775    3.8020
   38.790    4.0653
   38.805    4.1917
   38.820    3.8652
   38.835    3.5914
   38.850    3.6335
   38.865    3.8231
   38.880    3.8757
   38.895    3.8125
   38.910    3.6335
   38.925    3.5387
   38.940    3.6967
   38.955    4.0021
   38.970    3.9916
   38.985    3.8020
   39.000    3.7599
   39.015    3.7599
   39.030    4.0548
   39.045    4.1074
   39.060    3.9389
   39.075    3.9705
   39.090    3.9494
   39.105    3.6335
   39.120    3.7704
   39.135    4.2022
   39.150    3.9389
   39.165    3.9916
   39.180    3.5071
   39.195    3.5071
   39.210    3.4334
   39.225    3.5598
   39.240    3.7704
   39.255    3.6440
   39.270    3.7704
   39.285    3.7177
   39.300    3.8547
   39.315    3.7599
   39.330    3.4755
   39.345    3.7177
   39.360    3.6440
   39.375    3.4334
   39.390    3.8441
   39.405    3.8125
   39.420    3.7493
   39.435    3.7283
   39.450    3.8441
   39.465    3.2965
   39.480    3.8547
   39.495    3.5071
   39.510    3.6335
   39.525    3.8757
   39.540    3.7599
   39.555    4.1074
   39.570    3.6230
   39.585    4.1706
   39.600    4.0758
   39.615    3.9073
   39.630    3.6230
   39.645    3.7493
   39.660    3.6335
   39.675    3.7915
   39.690    3.9284
   39.705    3.5808
   39.720    3.7599
   39.735    3.7177
   39.750    3.4229
   39.765    3.5176
   39.780    3.7388
   39.795    3.9389
   39.810    3.8547
   39.825    3.6546
   39.840    3.6651
   39.855    3.7177
   39.870    3.8441
   39.885    3.8863
   39.900    3.6862
   39.915    3.5071
   39.930    3.4018
   39.945    3.5071
   39.960    3.5598
   39.975    3.7283
   39.990    3.8968
