    1.500   39.4523
    1.515   39.6314
    1.530   39.2838
    1.545   39.0837
    1.560   38.8310
    1.575   38.5887
    1.590   39.0100
    1.605   38.3149
    1.620   37.3986
    1.635   38.2517
    1.650   37.1143
    1.665   37.3881
    1.680   37.4197
    1.695   35.2396
    1.710   35.7451
    1.725   37.0195
    1.740   36.1348
    1.755   34.8499
    1.770   35.2923
    1.785   34.6288
    1.800   34.7130
    1.815   34.0600
    1.830   33.7967
    1.845   33.8599
    1.860   33.7651
    1.875   33.2491
    1.890   32.4487
    1.905   32.3749
    1.920   32.9542
    1.935   32.0800
    1.950   33.2701
    1.965   32.5434
    1.980   32.7120
    1.995   31.6377
    2.010   31.1532
    2.025   31.8273
    2.040   31.2059
    2.055   31.0585
    2.070   31.3849
    2.085   31.5429
    2.100   32.0274
    2.115   31.9642
    2.130   31.2796
    2.145   31.4060
    2.160   32.3223
    2.175   31.7641
    2.190   31.7430
    2.205   31.2480
    2.220   31.3218
    2.235   32.0800
    2.250   31.9642
    2.265   31.5113
    2.280   32.1643
    2.295   32.1854
    2.310   32.2696
    2.325   32.5961
    2.340   33.6072
    2.355   32.6804
    2.370   33.6072
    2.385   33.9231
    2.400   33.7441
    2.415   33.4808
    2.430   35.0606
    2.445   34.4708
    2.460   34.9447
    2.475   35.0606
    2.490   34.8605
    2.505   35.8504
    2.520   36.3244
    2.535   36.6403
    2.550   36.0084
    2.565   37.2407
    2.580   37.7672
    2.595   37.9042
    2.610   39.1680
    2.625   39.7578
    2.640   40.3054
    2.655   41.5271
    2.670   41.5061
    2.685   41.6430
    2.700   42.9384
    2.715   43.5492
    2.730   44.5814
    2.745   45.5292
    2.760   46.9721
    2.775   47.6988
    2.790   47.7514
    2.805   49.1838
    2.820   49.3418
    2.835   51.5113
    2.850   52.3223
    2.865   52.2802
    2.880   54.6709
    2.895   56.5350
    2.910   57.3776
    2.925   58.1148
    2.940   59.3997
    2.955   61.0637
    2.970   62.7278
    2.985   65.6767
    3.000   66.6035
    3.015   68.0253
    3.030   70.1211
    3.045   72.6277
    3.060   74.9236
    3.075   77.7146
    3.090   79.4945
    3.105   81.2638
    3.120   85.9610
    3.135   87.8146
    3.150   90.3950
    3.165   94.5340
    3.180   97.9884
    3.195  102.0432
    3.210  106.3613
    3.225  110.4265
    3.240  113.0806
    3.255  118.1464
    3.270  124.3813
    3.285  132.0695
    3.300  137.5777
    3.315  143.5071
    3.330  151.3639
    3.345  158.3781
    3.360  169.0995
    3.375  180.4739
    3.390  195.7873
    3.405  207.5829
    3.420  225.0342
    3.435  242.3697
    3.450  259.1996
    3.465  271.7957
    3.480  275.7136
    3.495  269.2891
    3.510  251.2902
    3.525  222.1696
    3.540  187.9937
    3.555  152.9542
    3.570  126.9194
    3.585  110.7530
    3.600  100.2001
    3.615   93.5440
    3.630   90.6266
    3.645   90.0579
    3.660   89.6788
    3.675   89.8157
    3.690   91.7430
    3.705   96.3560
    3.720  100.0000
    3.735  104.1812
    3.750  110.2580
    3.765  113.5966
    3.780  120.5477
    3.795  127.4776
    3.810  134.0811
    3.825  143.2649
    3.840  152.9121
    3.855  160.6109
    3.870  170.0053
    3.885  176.9247
    3.900  179.2733
    3.915  176.6719
    3.930  173.3860
    3.945  161.8326
    3.960  150.0053
    3.975  133.4913
    3.990  116.1138
    4.005   98.0832
    4.020   84.4655
    4.035   70.4897
    4.050   60.6635
    4.065   49.5945
    4.080   42.6856
    4.095   37.3986
    4.110   32.2170
    4.125   28.4781
    4.140   26.1822
    4.155   24.0758
    4.170   21.9905
    4.185   20.0316
    4.200   19.3154
    4.215   17.8410
    4.230   17.2091
    4.245   16.0400
    4.260   15.7767
    4.275   14.8710
    4.290   13.9442
    4.305   13.6282
    4.320   13.5545
    4.335   13.2596
    4.350   12.2380
    4.365   12.6382
    4.380   12.3960
    4.395   12.3855
    4.410   12.0800
    4.425   11.5219
    4.440   11.4903
    4.455   11.5956
    4.470   11.1743
    4.485   10.1422
    4.500   10.8583
    4.515   10.4371
    4.530   10.6266
    4.545   10.5635
    4.560   10.0685
    4.575   10.2896
    4.590   10.2686
    4.605   10.3002
    4.620    9.6367
    4.635    9.3734
    4.650   10.1001
    4.665    9.4050
    4.680    9.8789
    4.695    9.6998
    4.710    9.4892
    4.725    9.7525
    4.740    9.5313
    4.755    9.2996
    4.770    9.4892
    4.785    9.4681
    4.800    9.1943
    4.815    9.0574
    4.830    9.5735
    4.845    9.2259
    4.860    8.8468
    4.875    9.0574
    4.890    9.3523
    4.905    9.2680
    4.920    9.3418
    4.935    9.2048
    4.950    9.8052
    4.965    9.5629
    4.980    9.5524
    4.995    9.3628
    5.010    9.6261
    5.025    9.2048
    5.040    9.0469
    5.055    8.9837
    5.070    8.9837
    5.085    9.0785
    5.100    9.4155
    5.115    9.9421
    5.130   10.1316
    5.145    9.7841
    5.160    9.9315
    5.175   10.1211
    5.190    9.7314
    5.205    9.8578
    5.220    9.9315
    5.235   10.0158
    5.250    9.7420
    5.265    9.4365
    5.280    9.8052
    5.295    9.8368
    5.310    9.6156
    5.325    9.2891
    5.340    9.5840
    5.355    9.6367
    5.370    8.9100
    5.385    9.2470
    5.400    9.1522
    5.415    9.6367
    5.430    9.2154
    5.445    9.0363
    5.460    8.8362
    5.475    9.2470
    5.490    8.8678
    5.505    8.8468
    5.520    8.7098
    5.535    8.3939
    5.550    8.6783
    5.565    8.2254
    5.580    8.3518
    5.595    8.3096
    5.610    8.2464
    5.625    8.2675
    5.640    8.1517
    5.655    8.2675
    5.670    8.4466
    5.685    8.5940
    5.700    8.6045
    5.715    8.0358
    5.730    8.2149
    5.745    8.2886
    5.760    8.5308
    5.775    8.5308
    5.790    8.3623
    5.805    8.4992
    5.820    8.1622
    5.835    8.0253
    5.850    8.3307
    5.865    8.2570
    5.880    8.3202
    5.895    8.4255
    5.910    8.3623
    5.925    8.4571
    5.940    8.9837
    5.955    8.5097
    5.970    8.0674
    5.985    8.3307
    6.000    8.8362
    6.015    8.3412
    6.030    8.2254
    6.045    8.0885
    6.060    8.1411
    6.075    8.4781
    6.090    8.7625
    6.105    8.7204
    6.120    8.1306
    6.135    8.4044
    6.150    8.2675
    6.165    8.9942
    6.180    8.6677
    6.195    8.9521
    6.210    8.9837
    6.225    9.1627
    6.240    9.1943
    6.255    9.6472
    6.270    9.6156
    6.285    9.3734
    6.300    9.4576
    6.315    9.5945
    6.330    9.8789
    6.345    9.7104
    6.360    9.8684
    6.375    9.8473
    6.390   10.1632
    6.405    9.9631
    6.420   10.2370
    6.435   10.2580
    6.450   10.8162
    6.465   10.8794
    6.480   11.7325
    6.495   11.7009
    6.510   11.9115
    6.525   11.9221
    6.540   12.5118
    6.555   13.0806
    6.570   12.4908
    6.585   13.0806
    6.600   13.6809
    6.615   14.4813
    6.630   14.6919
    6.645   15.1027
    6.660   15.6398
    6.675   15.8926
    6.690   16.6509
    6.705   17.5461
    6.720   18.3149
    6.735   19.0732
    6.750   20.2106
    6.765   21.2217
    6.780   22.3170
    6.795   23.2965
    6.810   24.2759
    6.825   25.8662
    6.840   28.1306
    6.855   29.7525
    6.870   32.2696
    6.885   35.4713
    6.900   38.7783
    6.915   41.9273
    6.930   44.4339
    6.945   47.4250
    6.960   50.0790
    6.975   49.9631
    6.990   48.5097
    7.005   45.2238
    7.020   39.7578
    7.035   33.6177
    7.050   28.2043
    7.065   22.8015
    7.080   18.9573
    7.095   16.3665
    7.110   14.4076
    7.125   13.5334
    7.140   12.3433
    7.155   12.1116
    7.170   11.3955
    7.185   11.3639
    7.200   10.9005
    7.215   10.7636
    7.230   10.7109
    7.245   10.5951
    7.260   10.5424
    7.275   10.8478
    7.290   10.6582
    7.305   10.7636
    7.320   11.5956
    7.335   11.5008
    7.350   11.4692
    7.365   11.5956
    7.380   11.7430
    7.395   11.7114
    7.410   11.8273
    7.425   12.5645
    7.440   12.9015
    7.455   13.2175
    7.470   13.5650
    7.485   14.3865
    7.500   14.5129
    7.515   14.3865
    7.530   14.5761
    7.545   15.2396
    7.560   15.6082
    7.575   16.3665
    7.590   17.7567
    7.605   18.0200
    7.620   18.3781
    7.635   20.0211
    7.650   21.2322
    7.665   22.7699
    7.680   23.6124
    7.695   24.9500
    7.710   26.4034
    7.725   28.3202
    7.740   31.4797
    7.755   32.8173
    7.770   34.2917
    7.785   35.1448
    7.800   37.5461
    7.815   38.7994
    7.830   38.6519
    7.845   38.5993
    7.860   38.9152
    7.875   37.9674
    7.890   36.2401
    7.905   34.3549
    7.920   32.7751
    7.935   30.5213
    7.950   27.8357
    7.965   26.6245
    7.980   24.4023
    7.995   21.4534
    8.010   20.0105
    8.025   18.5887
    8.040   16.7562
    8.055   15.8926
    8.070   14.6919
    8.085   13.4176
    8.100   12.3539
    8.115   12.1327
    8.130   12.1854
    8.145   11.7957
    8.160   11.3323
    8.175   10.5529
    8.190   10.4687
    8.205   10.0579
    8.220    9.8262
    8.235    9.6577
    8.250    9.4787
    8.265    9.7946
    8.280    9.6998
    8.295    9.2259
    8.310    8.8573
    8.325    9.2470
    8.340    9.1627
    8.355    9.1417
    8.370    8.6256
    8.385    8.6783
    8.400    8.5940
    8.415    8.1201
    8.430    8.3412
    8.445    8.4044
    8.460    8.3412
    8.475    7.8884
    8.490    8.1095
    8.505    8.3202
    8.520    8.5413
    8.535    8.6467
    8.550    8.5097
    8.565    7.6988
    8.580    7.8041
    8.595    7.6777
    8.610    7.9305
    8.625    8.0463
    8.640    7.5619
    8.655    7.8252
    8.670    8.0885
    8.685    8.5203
    8.700    8.0674
    8.715    7.9410
    8.730    7.8778
    8.745    7.8778
    8.760    7.6883
    8.775    8.0569
    8.790    7.7936
    8.805    7.6883
    8.820    7.6988
    8.835    7.8146
    8.850    7.9410
    8.865    7.8673
    8.880    7.6040
    8.895    7.6567
    8.910    7.7514
    8.925    7.8989
    8.940    8.2570
    8.955    8.0885
    8.970    8.0042
    8.985    7.7514
    9.000    7.5619
    9.015    7.5408
    9.030    7.7093
    9.045    8.0253
    9.060    7.4671
    9.075    7.8357
    9.090    7.7093
    9.105    7.5724
    9.120    8.2675
    9.135    8.0147
    9.150    7.6777
    9.165    7.6461
    9.180    7.7199
    9.195    7.9621
    9.210    7.4776
    9.225    7.3828
    9.240    7.4776
    9.255    7.4671
    9.270    8.1517
    9.285    7.8357
    9.300    7.6883
    9.315    7.7304
    9.330    7.6988
    9.345    7.6145
    9.360    7.5408
    9.375    7.6145
    9.390    7.9621
    9.405    7.6777
    9.420    7.9516
    9.435    7.6567
    9.450    7.4144
    9.465    7.4039
    9.480    7.9516
    9.495    7.9516
    9.510    7.4144
    9.525    7.4460
    9.540    8.0674
    9.555    7.8252
    9.570    7.6883
    9.585    7.7304
    9.600    7.6356
    9.615    7.7725
    9.630    7.4250
    9.645    7.4460
    9.660    8.0358
    9.675    7.6777
    9.690    8.0042
    9.705    7.3407
    9.720    7.5829
    9.735    7.7093
    9.750    8.0147
    9.765    8.0990
    9.780    7.9937
    9.795    7.5724
    9.810    7.3618
    9.825    7.6777
    9.840    7.6567
    9.855    7.4250
    9.870    7.7830
    9.885    7.8989
    9.900    7.9726
    9.915    8.0042
    9.930    8.2043
    9.945    8.1201
    9.960    7.8252
    9.975    7.6145
    9.990    8.1201
   10.005    8.0569
   10.020    7.9831
   10.035    7.9200
   10.050    8.2991
   10.065    7.7304
   10.080    7.8778
   10.095    7.9621
   10.110    7.9200
   10.125    7.8778
   10.140    7.8989
   10.155    7.5513
   10.170    7.7620
   10.185    8.0147
   10.200    8.0463
   10.215    7.7514
   10.230    8.1622
   10.245    8.0358
   10.260    8.4887
   10.275    8.0885
   10.290    7.9726
   10.305    8.4150
   10.320    8.5729
   10.335    8.6677
   10.350    8.2359
   10.365    8.1938
   10.380    8.8152
   10.395    9.0258
   10.410    8.7730
   10.425    9.1206
   10.440    9.3418
   10.455    8.8994
   10.470    8.5519
   10.485    8.9837
   10.500    9.1838
   10.515    8.9626
   10.530    8.7309
   10.545    8.4255
   10.560    8.4150
   10.575    7.9094
   10.590    7.8989
   10.605    7.9410
   10.620    8.0779
   10.635    7.8568
   10.650    8.3939
   10.665    8.4150
   10.680    8.3939
   10.695    7.9516
   10.710    8.0674
   10.725    7.8673
   10.740    8.1727
   10.755    8.0042
   10.770    7.9937
   10.785    7.7620
   10.800    7.8252
   10.815    7.7199
   10.830    7.7620
   10.845    7.8462
   10.860    7.5513
   10.875    7.8252
   10.890    7.3934
   10.905    7.7620
   10.920    8.0042
   10.935    7.8989
   10.950    7.8673
   10.965    7.8568
   10.980    8.2254
   10.995    7.8989
   11.010    8.1306
   11.025    8.3518
   11.040    8.2675
   11.055    8.1517
   11.070    8.2991
   11.085    8.0358
   11.100    7.5935
   11.115    7.7725
   11.130    7.8568
   11.145    7.7936
   11.160    7.9621
   11.175    8.4150
   11.190    8.0569
   11.205    8.4676
   11.220    8.1938
   11.235    8.3412
   11.250    8.1622
   11.265    8.3728
   11.280    8.6467
   11.295    8.5308
   11.310    8.2991
   11.325    8.3412
   11.340    8.2254
   11.355    8.4044
   11.370    8.4255
   11.385    8.5519
   11.400    8.7625
   11.415    8.7309
   11.430    9.0363
   11.445    8.4150
   11.460    8.8152
   11.475    8.7941
   11.490    8.7309
   11.505    9.4576
   11.520    9.3312
   11.535    9.5840
   11.550    9.4365
   11.565    9.3312
   11.580    9.6156
   11.595    9.5840
   11.610    9.8578
   11.625    9.5945
   11.640   10.2686
   11.655   10.2159
   11.670   10.3212
   11.685   10.5108
   11.700   10.5529
   11.715   10.6372
   11.730   11.2480
   11.745   11.1848
   11.760   10.7846
   11.775   10.9215
   11.790   11.0795
   11.805   10.6477
   11.820   10.4055
   11.835   10.7004
   11.850   10.4687
   11.865   10.4160
   11.880   10.4581
   11.895    9.9421
   11.910   10.3528
   11.925   10.0579
   11.940    9.8578
   11.955    9.2048
   11.970    8.7836
   11.985    8.7625
   12.000    9.1311
   12.015    8.8257
   12.030    8.9731
   12.045    9.2154
   12.060    8.8784
   12.075    8.4992
   12.090    8.4676
   12.105    8.2464
   12.120    8.1411
   12.135    8.3202
   12.150    8.2254
   12.165    8.5729
   12.180    8.0990
   12.195    8.2254
   12.210    8.1306
   12.225    8.1517
   12.240    7.7304
   12.255    7.9726
   12.270    7.8357
   12.285    7.6040
   12.300    8.4255
   12.315    7.9410
   12.330    8.2043
   12.345    8.0779
   12.360    8.0674
   12.375    8.1938
   12.390    7.5935
   12.405    7.7936
   12.420    7.7409
   12.435    7.8568
   12.450    8.0674
   12.465    8.0674
   12.480    8.5203
   12.495    7.8778
   12.510    8.1622
   12.525    8.0253
   12.540    8.3096
   12.555    8.0569
   12.570    8.4150
   12.585    8.7520
   12.600    8.2043
   12.615    7.8989
   12.630    7.7830
   12.645    8.1517
   12.660    8.0674
   12.675    8.2464
   12.690    8.1201
   12.705    7.8041
   12.720    7.9621
   12.735    8.2570
   12.750    7.8884
   12.765    8.8152
   12.780    8.0253
   12.795    7.9410
   12.810    8.7941
   12.825    8.1201
   12.840    8.1095
   12.855    8.2149
   12.870    8.6783
   12.885    8.7414
   12.900    8.3834
   12.915    8.5203
   12.930    8.5940
   12.945    8.2675
   12.960    8.5835
   12.975    8.6993
   12.990    8.7520
   13.005    8.6572
   13.020    8.0885
   13.035    8.6677
   13.050    8.7941
   13.065    8.7098
   13.080    8.8152
   13.095    8.5519
   13.110    8.5940
   13.125    8.6467
   13.140    8.9415
   13.155    8.8152
   13.170    8.6467
   13.185    8.6783
   13.200    8.7520
   13.215    7.9937
   13.230    7.9831
   13.245    8.6361
   13.260    8.1095
   13.275    8.4360
   13.290    8.5519
   13.305    8.5835
   13.320    8.3728
   13.335    8.1727
   13.350    8.8889
   13.365    8.4676
   13.380    8.1938
   13.395    8.2675
   13.410    8.0990
   13.425    8.1095
   13.440    7.7620
   13.455    8.1201
   13.470    8.2359
   13.485    8.2991
   13.500    8.2780
   13.515    8.2886
   13.530    8.0674
   13.545    8.2043
   13.560    7.6251
   13.575    7.3407
   13.590    8.0674
   13.605    7.8884
   13.620    7.6883
   13.635    8.2149
   13.650    8.2886
   13.665    8.0569
   13.680    8.3202
   13.695    7.8146
   13.710    7.5197
   13.725    8.0779
   13.740    8.0569
   13.755    7.6461
   13.770    7.7409
   13.785    7.7936
   13.800    7.8146
   13.815    7.7936
   13.830    7.9305
   13.845    7.8778
   13.860    7.9621
   13.875    7.8146
   13.890    7.5619
   13.905    8.1938
   13.920    8.0779
   13.935    7.3934
   13.950    7.3618
   13.965    7.5724
   13.980    7.2354
   13.995    7.8146
   14.010    7.3618
   14.025    7.5724
   14.040    7.5724
   14.055    7.6672
   14.070    7.8989
   14.085    7.8252
   14.100    7.8146
   14.115    7.3934
   14.130    7.6672
   14.145    7.6988
   14.160    7.4987
   14.175    7.1933
   14.190    7.5829
   14.205    7.5619
   14.220    7.7093
   14.235    7.8462
   14.250    7.2565
   14.265    7.3618
   14.280    7.7830
   14.295    7.7409
   14.310    7.5092
   14.325    7.9831
   14.340    8.0885
   14.355    7.8778
   14.370    7.7725
   14.385    7.6040
   14.400    8.0042
   14.415    7.9937
   14.430    8.0253
   14.445    7.6672
   14.460    7.5092
   14.475    7.7620
   14.490    7.4144
   14.505    7.2565
   14.520    7.6251
   14.535    7.8673
   14.550    7.7830
   14.565    7.7830
   14.580    7.5829
   14.595    7.7409
   14.610    7.5197
   14.625    7.7620
   14.640    7.6040
   14.655    7.8989
   14.670    7.9200
   14.685    8.2254
   14.700    7.8252
   14.715    7.5724
   14.730    7.9094
   14.745    7.7620
   14.760    7.7620
   14.775    8.0147
   14.790    8.0253
   14.805    7.7304
   14.820    7.7620
   14.835    7.8778
   14.850    8.1201
   14.865    7.9305
   14.880    8.3096
   14.895    8.2464
   14.910    7.9621
   14.925    7.7093
   14.940    7.7514
   14.955    8.2886
   14.970    8.0674
   14.985    7.7725
   15.000    7.9305
   15.015    7.8884
   15.030    8.3518
   15.045    7.8673
   15.060    7.5935
   15.075    8.2675
   15.090    8.3518
   15.105    8.0042
   15.120    8.2254
   15.135    8.0885
   15.150    8.0463
   15.165    8.3834
   15.180    8.1938
   15.195    8.3307
   15.210    8.0042
   15.225    7.8989
   15.240    7.8989
   15.255    7.6356
   15.270    8.0042
   15.285    8.3307
   15.300    8.4044
   15.315    8.1201
   15.330    8.3096
   15.345    8.1306
   15.360    7.9937
   15.375    8.3939
   15.390    8.0990
   15.405    8.0885
   15.420    8.5097
   15.435    8.2780
   15.450    8.3939
   15.465    8.4676
   15.480    8.4466
   15.495    8.5413
   15.510    9.0363
   15.525    8.3728
   15.540    8.6677
   15.555    8.1622
   15.570    8.3939
   15.585    8.4887
   15.600    8.4255
   15.615    8.2359
   15.630    8.9310
   15.645    8.6256
   15.660    8.6151
   15.675    8.1938
   15.690    8.5413
   15.705    8.5519
   15.720    8.3623
   15.735    8.3412
   15.750    8.8678
   15.765    8.7309
   15.780    8.6572
   15.795    8.4150
   15.810    8.4571
   15.825    8.6467
   15.840    8.2991
   15.855    8.6888
   15.870    8.5519
   15.885    8.3412
   15.900    8.1727
   15.915    8.2780
   15.930    8.0463
   15.945    8.6783
   15.960    7.8673
   15.975    8.1095
   15.990    8.1833
   16.005    7.8146
   16.020    7.5513
   16.035    8.1622
   16.050    8.1201
   16.065    7.8041
   16.080    7.7725
   16.095    7.7409
   16.110    7.3723
   16.125    7.6883
   16.140    7.5513
   16.155    7.5092
   16.170    7.6567
   16.185    7.2143
   16.200    7.7199
   16.215    7.4460
   16.230    8.2886
   16.245    7.7620
   16.260    7.7725
   16.275    7.7409
   16.290    7.6883
   16.305    7.7514
   16.320    7.7199
   16.335    7.7514
   16.350    7.3407
   16.365    7.2986
   16.380    7.6040
   16.395    7.2143
   16.410    7.1827
   16.425    7.7409
   16.440    8.2149
   16.455    7.5092
   16.470    7.4144
   16.485    7.2880
   16.500    7.7620
   16.515    7.6883
   16.530    7.3091
   16.545    7.5935
   16.560    7.2354
   16.575    7.2986
   16.590    7.2459
   16.605    7.6145
   16.620    7.6461
   16.635    7.3828
   16.650    7.4566
   16.665    7.7830
   16.680    7.3618
   16.695    7.6461
   16.710    7.6567
   16.725    7.8041
   16.740    7.6883
   16.755    7.7514
   16.770    7.4671
   16.785    7.5829
   16.800    7.4987
   16.815    7.4776
   16.830    7.6672
   16.845    7.5619
   16.860    7.6040
   16.875    7.6251
   16.890    7.5197
   16.905    7.4671
   16.920    7.7620
   16.935    7.3828
   16.950    7.6356
   16.965    8.1517
   16.980    7.3512
   16.995    6.8668
   17.010    7.6883
   17.025    7.2038
   17.040    6.9616
   17.055    7.9726
   17.070    7.0774
   17.085    7.2249
   17.100    7.3618
   17.115    7.5724
   17.130    7.5829
   17.145    7.5829
   17.160    7.3828
   17.175    7.6883
   17.190    7.4987
   17.205    7.9094
   17.220    7.8041
   17.235    8.0253
   17.250    7.9621
   17.265    7.3407
   17.280    7.5724
   17.295    8.1622
   17.310    7.6883
   17.325    7.9621
   17.340    7.9726
   17.355    7.9410
   17.370    8.0674
   17.385    8.3623
   17.400    8.2991
   17.415    8.3412
   17.430    7.9305
   17.445    8.5203
   17.460    8.2675
   17.475    8.2780
   17.490    8.0990
   17.505    7.8989
   17.520    8.3623
   17.535    8.4571
   17.550    8.2886
   17.565    8.4255
   17.580    8.3623
   17.595    8.5413
   17.610    8.1938
   17.625    8.1517
   17.640    7.9831
   17.655    8.3412
   17.670    8.3939
   17.685    8.1411
   17.700    8.3096
   17.715    7.8884
   17.730    8.3096
   17.745    8.2149
   17.760    8.4676
   17.775    8.1517
   17.790    8.0674
   17.805    8.2675
   17.820    7.9305
   17.835    8.2675
   17.850    8.3096
   17.865    8.0463
   17.880    7.9410
   17.895    8.4571
   17.910    8.0990
   17.925    7.9621
   17.940    8.2886
   17.955    8.2254
   17.970    8.2254
   17.985    8.2359
   18.000    7.8778
   18.015    8.0358
   18.030    8.1306
   18.045    8.0990
   18.060    8.4571
   18.075    7.9937
   18.090    7.8041
   18.105    8.2359
   18.120    8.0569
   18.135    8.4676
   18.150    8.0358
   18.165    7.8778
   18.180    7.6777
   18.195    7.8252
   18.210    8.2780
   18.225    7.9094
   18.240    8.1411
   18.255    8.3096
   18.270    8.1938
   18.285    8.1095
   18.300    7.8462
   18.315    8.0147
   18.330    8.3202
   18.345    8.2043
   18.360    8.0990
   18.375    8.0042
   18.390    8.3096
   18.405    8.3518
   18.420    8.2570
   18.435    7.6251
   18.450    7.6883
   18.465    8.0147
   18.480    8.0253
   18.495    7.7304
   18.510    7.5092
   18.525    7.4671
   18.540    7.8357
   18.555    7.9726
   18.570    7.5513
   18.585    7.5935
   18.600    7.6145
   18.615    8.0885
   18.630    7.6883
   18.645    7.7514
   18.660    7.5619
   18.675    7.7199
   18.690    7.6251
   18.705    7.4776
   18.720    7.6040
   18.735    7.8146
   18.750    8.0569
   18.765    8.0990
   18.780    7.8146
   18.795    7.3723
   18.810    7.5303
   18.825    7.8778
   18.840    7.9094
   18.855    7.8568
   18.870    7.6251
   18.885    8.0990
   18.900    7.6672
   18.915    7.2775
   18.930    7.8884
   18.945    7.8673
   18.960    7.6672
   18.975    7.5829
   18.990    7.8252
   19.005    7.9410
   19.020    7.5303
   19.035    7.8252
   19.050    7.6251
   19.065    7.6356
   19.080    7.6672
   19.095    7.6777
   19.110    7.7514
   19.125    7.5303
   19.140    7.7725
   19.155    7.9305
   19.170    8.3096
   19.185    8.2043
   19.200    7.6567
   19.215    8.0358
   19.230    8.0674
   19.245    7.9726
   19.260    8.5519
   19.275    8.2464
   19.290    7.6356
   19.305    7.7936
   19.320    8.0253
   19.335    8.0147
   19.350    8.5413
   19.365    8.1727
   19.380    8.2043
   19.395    7.9831
   19.410    7.9937
   19.425    8.0674
   19.440    8.4466
   19.455    8.2043
   19.470    8.4150
   19.485    7.9305
   19.500    8.1306
   19.515    8.3202
   19.530    8.3728
   19.545    8.1201
   19.560    8.4360
   19.575    8.4571
   19.590    8.8573
   19.605    8.7941
   19.620    8.8784
   19.635    8.8152
   19.650    8.5519
   19.665    8.5097
   19.680    8.6888
   19.695    8.6361
   19.710    8.1727
   19.725    8.5940
   19.740    8.5729
   19.755    9.1311
   19.770    9.0995
   19.785    8.6045
   19.800    8.7520
   19.815    9.1101
   19.830    8.9626
   19.845    8.6045
   19.860    8.9731
   19.875    9.0785
   19.890    9.0890
   19.905    8.8889
   19.920    9.1206
   19.935    9.1311
   19.950    8.4781
   19.965    8.7836
   19.980    9.2891
   19.995    8.8046
   20.010    8.7625
   20.025    9.0679
   20.040    8.8362
   20.055    9.3312
   20.070    9.6998
   20.085    9.4471
   20.100    9.4050
   20.115    9.0258
   20.130    9.5419
   20.145    9.4365
   20.160    9.5103
   20.175    9.5524
   20.190    9.0679
   20.205    9.0679
   20.220    9.6472
   20.235    9.2575
   20.250    9.0890
   20.265    9.6893
   20.280    9.3839
   20.295    8.8573
   20.310    8.9731
   20.325    9.1417
   20.340    9.3734
   20.355    9.6472
   20.370    9.5524
   20.385    9.1311
   20.400    9.2680
   20.415    9.2259
   20.430    9.4576
   20.445    8.9205
   20.460    9.2575
   20.475    9.1311
   20.490    8.5413
   20.505    9.0153
   20.520    9.1943
   20.535    9.1311
   20.550    9.1101
   20.565    9.3102
   20.580    9.1627
   20.595    8.7941
   20.610    9.0890
   20.625    8.8152
   20.640    8.8362
   20.655    8.9837
   20.670    8.8678
   20.685    8.8784
   20.700    8.7204
   20.715    8.9205
   20.730    9.1732
   20.745    9.2364
   20.760    8.7625
   20.775    9.2048
   20.790    9.3734
   20.805    9.4681
   20.820    9.5103
   20.835    9.4471
   20.850    9.2048
   20.865    9.3839
   20.880    9.2680
   20.895    9.0258
   20.910    9.5103
   20.925    9.5103
   20.940    9.4576
   20.955    9.5629
   20.970    9.8262
   20.985    9.9210
   21.000    9.8578
   21.015    9.8789
   21.030    9.8052
   21.045    9.9105
   21.060    9.7420
   21.075    9.6682
   21.090   10.2791
   21.105    9.6472
   21.120    9.6577
   21.135    9.3102
   21.150    9.0890
   21.165    9.7525
   21.180    9.5945
   21.195    9.3207
   21.210    9.2575
   21.225    9.3418
   21.240    9.3734
   21.255    8.9731
   21.270    9.4155
   21.285    8.9626
   21.300    9.3523
   21.315    9.4471
   21.330    9.0047
   21.345    8.8468
   21.360    9.4471
   21.375    9.0995
   21.390    8.8468
   21.405    9.1627
   21.420    8.9310
   21.435    8.6993
   21.450    8.9942
   21.465    9.1417
   21.480    9.0574
   21.495    8.8889
   21.510    9.0047
   21.525    8.6783
   21.540    8.5940
   21.555    9.2048
   21.570    8.9837
   21.585    8.9415
   21.600    8.5413
   21.615    8.4781
   21.630    8.4571
   21.645    8.7204
   21.660    8.9626
   21.675    8.8257
   21.690    8.6467
   21.705    8.9205
   21.720    8.7520
   21.735    8.8257
   21.750    9.0995
   21.765    9.1101
   21.780    8.4887
   21.795    8.2359
   21.810    8.3939
   21.825    8.7941
   21.840    8.9837
   21.855    8.4466
   21.870    8.9415
   21.885    8.8889
   21.900    8.7730
   21.915    8.9205
   21.930    9.0047
   21.945    8.4044
   21.960    8.7520
   21.975    8.8573
   21.990    8.8994
   22.005    9.4471
   22.020    9.1417
   22.035    8.9942
   22.050    9.1522
   22.065    8.9310
   22.080    9.6051
   22.095    9.1206
   22.110    8.8994
   22.125    8.9521
   22.140    9.7630
   22.155    9.3418
   22.170    9.0258
   22.185    9.4471
   22.200    9.5840
   22.215    9.6788
   22.230    9.2996
   22.245    9.5419
   22.260    9.5524
   22.275    9.7525
   22.290    9.9631
   22.305    9.6788
   22.320    9.6367
   22.335    9.2259
   22.350    9.5945
   22.365    9.9315
   22.380    9.4997
   22.395    9.5524
   22.410    9.5419
   22.425    9.9526
   22.440    9.8157
   22.455    9.6682
   22.470    9.5735
   22.485    9.6472
   22.500   10.1738
   22.515    9.5629
   22.530    9.6788
   22.545    9.8684
   22.560    9.8368
   22.575    9.4155
   22.590    9.8157
   22.605    9.9421
   22.620    9.7841
   22.635    9.8052
   22.650   10.2159
   22.665    9.9105
   22.680    9.3734
   22.695    9.7420
   22.710    9.8999
   22.725    9.7841
   22.740    9.6998
   22.755    9.8789
   22.770    9.5945
   22.785   10.2580
   22.800   10.3844
   22.815    9.8262
   22.830    9.8578
   22.845    9.7314
   22.860    9.3628
   22.875   10.0474
   22.890    9.8052
   22.905    9.8262
   22.920    9.6788
   22.935    9.3734
   22.950    9.2680
   22.965    9.1101
   22.980    9.4997
   22.995    9.1206
   23.010    9.1206
   23.025    8.7625
   23.040    9.1206
   23.055    8.9626
   23.070    8.6888
   23.085    8.8152
   23.100    8.7309
   23.115    8.5624
   23.130    8.7414
   23.145    9.1417
   23.160    8.8046
   23.175    8.6256
   23.190    8.2254
   23.205    8.4044
   23.220    8.7941
   23.235    8.8889
   23.250    8.9731
   23.265    8.9310
   23.280    8.4150
   23.295    8.6361
   23.310    8.6045
   23.325    7.9516
   23.340    8.5308
   23.355    8.3518
   23.370    8.3623
   23.385    8.5413
   23.400    8.4676
   23.415    8.6361
   23.430    8.2254
   23.445    7.8673
   23.460    8.3518
   23.475    8.8678
   23.490    8.3412
   23.505    8.4992
   23.520    8.2254
   23.535    8.5729
   23.550    8.3307
   23.565    8.4887
   23.580    8.1727
   23.595    8.1622
   23.610    8.4887
   23.625    8.1622
   23.640    8.3939
   23.655    8.1517
   23.670    8.3834
   23.685    8.2464
   23.700    7.9094
   23.715    8.5940
   23.730    8.6467
   23.745    8.4781
   23.760    8.4887
   23.775    8.4255
   23.790    8.4676
   23.805    8.4360
   23.820    8.5729
   23.835    8.4992
   23.850    8.5519
   23.865    8.8046
   23.880    8.4676
   23.895    8.8468
   23.910    8.5940
   23.925    8.6677
   23.940    8.6783
   23.955    8.4571
   23.970    8.4044
   23.985    8.3518
   24.000    8.4044
   24.015    8.4360
   24.030    8.5835
   24.045    8.6783
   24.060    8.6783
   24.075    8.4676
   24.090    8.5940
   24.105    8.4887
   24.120    8.2359
   24.135    7.9516
   24.150    8.0779
   24.165    8.7836
   24.180    8.3939
   24.195    8.6361
   24.210    8.4150
   24.225    8.4571
   24.240    8.4781
   24.255    8.7941
   24.270    8.3518
   24.285    8.6256
   24.300    8.6151
   24.315    8.7309
   24.330    8.6467
   24.345    8.6361
   24.360    8.3623
   24.375    8.4150
   24.390    8.5835
   24.405    8.4360
   24.420    8.6467
   24.435    8.6677
   24.450    8.9415
   24.465    8.6993
   24.480    8.9942
   24.495    8.7204
   24.510    9.0995
   24.525    9.4576
   24.540    9.3839
   24.555    9.4365
   24.570    9.0679
   24.585    9.0574
   24.600    8.8573
   24.615    9.2786
   24.630    9.5524
   24.645    9.4787
   24.660    9.0995
   24.675    8.8257
   24.690    9.1417
   24.705    8.7941
   24.720    8.6993
   24.735    8.6256
   24.750    8.9626
   24.765    9.0890
   24.780    8.8994
   24.795    8.6151
   24.810    8.8046
   24.825    8.5729
   24.840    8.2780
   24.855    8.6151
   24.870    8.7414
   24.885    8.3518
   24.900    8.7625
   24.915    8.6888
   24.930    8.5203
   24.945    8.3096
   24.960    8.1622
   24.975    8.1622
   24.990    8.6467
   25.005    8.2780
   25.020    8.5413
   25.035    8.3939
   25.050    7.9937
   25.065    8.2359
   25.080    8.2991
   25.095    8.0147
   25.110    8.0990
   25.125    8.0147
   25.140    8.0253
   25.155    7.9410
   25.170    7.8989
   25.185    7.8357
   25.200    7.8146
   25.215    8.0885
   25.230    7.9621
   25.245    8.0779
   25.260    7.6672
   25.275    7.7830
   25.290    8.0569
   25.305    8.1517
   25.320    8.0569
   25.335    7.8989
   25.350    7.6883
   25.365    7.4776
   25.380    7.8146
   25.395    8.3202
   25.410    8.4466
   25.425    7.7830
   25.440    7.7199
   25.455    8.0042
   25.470    8.0569
   25.485    7.4039
   25.500    7.6672
   25.515    7.9305
   25.530    8.2675
   25.545    8.0253
   25.560    7.8357
   25.575    7.6145
   25.590    7.9831
   25.605    7.3934
   25.620    7.4144
   25.635    7.6356
   25.650    7.3934
   25.665    7.5408
   25.680    7.7620
   25.695    7.5408
   25.710    7.4776
   25.725    7.5408
   25.740    7.6251
   25.755    7.5513
   25.770    7.4776
   25.785    7.4144
   25.800    7.4987
   25.815    7.7304
   25.830    7.9516
   25.845    7.4671
   25.860    7.8462
   25.875    7.6672
   25.890    7.4250
   25.905    7.4882
   25.920    7.8673
   25.935    7.5935
   25.950    7.6145
   25.965    7.7936
   25.980    7.7725
   25.995    7.5724
   26.010    7.5935
   26.025    7.8252
   26.040    7.8673
   26.055    7.7514
   26.070    7.4250
   26.085    7.6672
   26.100    8.1411
   26.115    7.9094
   26.130    8.0358
   26.145    7.7093
   26.160    7.6988
   26.175    8.0253
   26.190    7.8778
   26.205    7.5303
   26.220    7.8041
   26.235    7.6356
   26.250    7.8884
   26.265    7.7830
   26.280    7.8462
   26.295    7.8673
   26.310    8.1517
   26.325    8.2043
   26.340    8.0042
   26.355    7.7199
   26.370    7.8989
   26.385    7.7725
   26.400    7.6251
   26.415    7.8041
   26.430    7.7304
   26.445    7.4882
   26.460    7.6988
   26.475    7.6883
   26.490    7.0458
   26.505    7.4039
   26.520    7.7304
   26.535    8.0674
   26.550    7.6777
   26.565    7.5513
   26.580    7.5513
   26.595    7.9094
   26.610    7.8673
   26.625    7.6461
   26.640    7.3196
   26.655    7.8673
   26.670    7.8778
   26.685    7.7725
   26.700    7.7830
   26.715    7.6461
   26.730    7.9305
   26.745    8.0358
   26.760    7.9094
   26.775    7.6461
   26.790    7.4776
   26.805    7.5408
   26.820    7.7830
   26.835    7.1933
   26.850    7.8778
   26.865    7.4776
   26.880    7.5092
   26.895    7.8357
   26.910    7.8884
   26.925    7.2249
   26.940    7.9937
   26.955    8.0990
   26.970    7.1195
   26.985    7.1090
   27.000    7.6145
   27.015    7.5829
   27.030    7.3723
   27.045    7.0248
   27.060    7.7514
   27.075    7.6567
   27.090    7.7304
   27.105    7.8989
   27.120    7.6145
   27.135    7.3407
   27.150    7.2565
   27.165    7.3828
   27.180    7.6356
   27.195    7.5303
   27.210    7.5197
   27.225    7.4460
   27.240    7.9305
   27.255    7.4144
   27.270    7.4039
   27.285    7.4882
   27.300    7.6461
   27.315    7.4671
   27.330    7.6883
   27.345    8.0674
   27.360    7.6567
   27.375    7.8778
   27.390    7.8357
   27.405    7.9410
   27.420    7.5829
   27.435    7.6040
   27.450    7.6777
   27.465    7.5935
   27.480    7.5935
   27.495    7.8884
   27.510    7.8357
   27.525    7.8462
   27.540    7.3828
   27.555    7.4671
   27.570    7.4776
   27.585    7.4144
   27.600    7.5724
   27.615    7.4144
   27.630    7.4144
   27.645    7.6883
   27.660    7.3934
   27.675    7.5619
   27.690    7.5197
   27.705    7.2143
   27.720    7.1195
   27.735    7.1933
   27.750    7.5303
   27.765    7.7725
   27.780    7.4355
   27.795    7.4039
   27.810    7.5935
   27.825    7.2459
   27.840    7.2249
   27.855    7.2354
   27.870    7.2775
   27.885    7.4250
   27.900    7.2354
   27.915    7.3196
   27.930    7.9200
   27.945    7.2880
   27.960    7.4882
   27.975    7.3828
   27.990    7.7199
   28.005    7.6040
   28.020    7.4566
   28.035    7.3934
   28.050    7.2986
   28.065    7.8673
   28.080    7.7725
   28.095    7.2986
   28.110    7.3828
   28.125    7.8146
   28.140    8.0463
   28.155    7.6251
   28.170    8.0674
   28.185    7.7514
   28.200    7.7725
   28.215    8.0253
   28.230    7.6567
   28.245    7.7620
   28.260    7.4039
   28.275    7.5408
   28.290    8.0253
   28.305    7.8252
   28.320    7.4566
   28.335    7.7304
   28.350    7.2354
   28.365    7.6145
   28.380    7.4144
   28.395    7.1406
   28.410    7.0353
   28.425    7.3934
   28.440    7.2459
   28.455    7.2038
   28.470    7.1933
   28.485    7.4776
   28.500    7.1827
   28.515    7.0458
   28.530    7.4144
   28.545    7.3302
   28.560    7.2459
   28.575    7.3196
   28.590    7.2249
   28.605    7.3302
   28.620    7.6251
   28.635    7.1933
   28.650    7.3723
   28.665    7.7830
   28.680    7.0458
   28.695    7.3618
   28.710    7.0669
   28.725    7.1301
   28.740    7.1406
   28.755    7.3302
   28.770    7.1933
   28.785    7.0774
   28.800    7.3302
   28.815    6.9932
   28.830    7.3196
   28.845    7.2986
   28.860    7.0985
   28.875    7.5513
   28.890    7.1722
   28.905    6.8668
   28.920    7.4144
   28.935    7.4039
   28.950    6.9616
   28.965    7.2880
   28.980    7.1301
   28.995    6.9089
   29.010    7.3091
   29.025    7.2459
   29.040    6.9721
   29.055    7.2565
   29.070    6.7615
   29.085    6.9616
   29.100    7.3091
   29.115    7.3512
   29.130    7.2880
   29.145    7.3512
   29.160    7.0985
   29.175    7.2565
   29.190    7.2565
   29.205    7.3407
   29.220    7.4039
   29.235    7.4882
   29.250    7.1511
   29.265    7.2249
   29.280    7.0669
   29.295    6.6456
   29.310    6.9721
   29.325    7.1511
   29.340    7.0142
   29.355    6.7930
   29.370    7.1827
   29.385    7.2986
   29.400    7.1406
   29.415    6.8984
   29.430    7.0985
   29.445    6.9932
   29.460    7.2459
   29.475    7.2670
   29.490    7.2143
   29.505    7.0458
   29.520    6.8878
   29.535    6.9616
   29.550    7.0037
   29.565    7.1195
   29.580    7.3723
   29.595    7.4355
   29.610    7.4566
   29.625    7.0985
   29.640    6.8246
   29.655    7.2038
   29.670    7.1722
   29.685    6.7193
   29.700    6.7930
   29.715    6.7193
   29.730    7.2459
   29.745    6.8878
   29.760    6.6772
   29.775    7.0248
   29.790    6.8036
   29.805    6.9932
   29.820    6.9405
   29.835    7.2143
   29.850    7.3302
   29.865    7.0563
   29.880    7.1617
   29.895    7.0669
   29.910    6.5192
   29.925    6.8246
   29.940    7.0669
   29.955    7.0563
   29.970    6.9300
   29.985    6.8352
   30.000    6.8878
   30.015    6.6140
   30.030    6.9510
   30.045    6.9510
   30.060    6.9510
   30.075    7.2565
   30.090    7.0563
   30.105    7.0458
   30.120    7.1406
   30.135    6.8562
   30.150    7.2459
   30.165    7.3723
   30.180    6.9826
   30.195    7.0353
   30.210    7.1301
   30.225    6.9616
   30.240    7.1933
   30.255    6.8984
   30.270    7.3302
   30.285    6.7825
   30.300    6.4350
   30.315    6.6877
   30.330    6.6983
   30.345    6.9089
   30.360    7.3723
   30.375    6.8562
   30.390    7.0879
   30.405    7.1511
   30.420    6.8984
   30.435    6.9405
   30.450    6.9510
   30.465    6.6140
   30.480    7.1090
   30.495    6.8562
   30.510    6.7825
   30.525    6.7299
   30.540    7.0458
   30.555    7.0879
   30.570    6.9089
   30.585    6.7930
   30.600    6.7825
   30.615    6.9826
   30.630    6.7615
   30.645    6.7509
   30.660    6.6035
   30.675    6.8984
   30.690    7.4776
   30.705    6.8562
   30.720    7.2670
   30.735    6.8141
   30.750    6.8562
   30.765    6.7615
   30.780    6.8878
   30.795    6.5719
   30.810    6.8984
   30.825    6.7615
   30.840    6.7930
   30.855    6.7825
   30.870    7.1933
   30.885    6.7825
   30.900    6.7404
   30.915    6.7930
   30.930    7.2143
   30.945    6.9405
   30.960    6.9300
   30.975    6.7930
   30.990    6.7509
   31.005    7.1301
   31.020    6.8984
   31.035    6.8878
   31.050    6.2770
   31.065    6.6245
   31.080    7.0037
   31.095    6.5087
   31.110    6.8457
   31.125    6.8141
   31.140    6.8878
   31.155    6.7193
   31.170    6.7088
   31.185    6.8457
   31.200    6.9300
   31.215    6.8773
   31.230    7.0669
   31.245    7.1301
   31.260    7.1195
   31.275    6.9300
   31.290    6.5824
   31.305    6.7193
   31.320    6.8984
   31.335    6.7509
   31.350    6.7930
   31.365    6.6140
   31.380    6.8562
   31.395    6.8246
   31.410    6.9721
   31.425    6.4666
   31.440    6.7825
   31.455    6.7088
   31.470    7.1406
   31.485    6.8984
   31.500    6.5508
   31.515    6.6140
   31.530    6.7615
   31.545    6.6667
   31.560    6.8457
   31.575    6.7720
   31.590    6.9300
   31.605    7.0563
   31.620    7.2670
   31.635    7.1301
   31.650    6.6351
   31.665    6.8773
   31.680    7.0879
   31.695    7.0248
   31.710    7.0353
   31.725    7.2986
   31.740    6.7088
   31.755    6.9826
   31.770    6.8246
   31.785    6.8773
   31.800    7.1301
   31.815    7.2249
   31.830    6.8878
   31.845    7.0563
   31.860    7.0353
   31.875    7.0142
   31.890    6.9089
   31.905    6.6983
   31.920    7.1827
   31.935    6.9616
   31.950    6.8036
   31.965    7.0458
   31.980    7.5408
   31.995    7.2986
   32.010    7.0248
   32.025    7.1827
   32.040    6.9826
   32.055    6.5192
   32.070    6.9826
   32.085    7.6461
   32.100    7.0985
   32.115    6.5087
   32.130    6.7299
   32.145    6.4771
   32.160    6.8457
   32.175    7.1195
   32.190    6.9300
   32.205    6.5403
   32.220    6.6877
   32.235    7.1195
   32.250    7.1406
   32.265    7.0142
   32.280    7.0879
   32.295    6.7299
   32.310    7.0458
   32.325    6.8984
   32.340    7.2670
   32.355    6.9721
   32.370    6.9721
   32.385    7.0774
   32.400    7.0142
   32.415    6.9826
   32.430    6.9089
   32.445    6.7720
   32.460    7.0879
   32.475    6.7615
   32.490    7.0248
   32.505    6.8878
   32.520    6.5824
   32.535    7.3618
   32.550    6.8036
   32.565    6.7930
   32.580    6.7509
   32.595    6.8562
   32.610    7.1722
   32.625    6.8141
   32.640    6.6561
   32.655    6.7193
   32.670    7.0879
   32.685    6.9300
   32.700    6.8036
   32.715    6.8562
   32.730    6.9826
   32.745    6.8246
   32.760    6.7299
   32.775    6.6035
   32.790    6.9405
   32.805    6.7404
   32.820    6.5403
   32.835    6.7404
   32.850    6.3191
   32.865    6.8773
   32.880    6.8141
   32.895    6.8141
   32.910    6.6772
   32.925    6.4350
   32.940    6.8457
   32.955    6.8036
   32.970    6.2981
   32.985    6.6877
   33.000    6.4771
   33.015    6.5508
   33.030    6.8246
   33.045    6.3823
   33.060    6.5403
   33.075    6.5508
   33.090    6.7615
   33.105    6.7825
   33.120    6.6561
   33.135    6.4876
   33.150    6.6245
   33.165    6.6035
   33.180    6.7193
   33.195    6.6456
   33.210    6.4982
   33.225    6.1401
   33.240    6.4455
   33.255    6.2138
   33.270    6.5824
   33.285    6.4139
   33.300    6.1717
   33.315    6.4876
   33.330    6.3718
   33.345    6.5087
   33.360    6.4034
   33.375    6.4139
   33.390    6.3086
   33.405    6.5192
   33.420    6.3823
   33.435    6.3718
   33.450    6.4244
   33.465    6.6140
   33.480    6.7720
   33.495    6.4982
   33.510    6.4455
   33.525    6.3086
   33.540    6.4876
   33.555    6.5824
   33.570    6.7825
   33.585    6.9510
   33.600    6.6245
   33.615    6.0137
   33.630    6.2243
   33.645    6.2665
   33.660    6.6351
   33.675    6.3191
   33.690    6.8036
   33.705    6.3718
   33.720    6.2454
   33.735    6.4139
   33.750    6.2559
   33.765    6.3612
   33.780    6.1401
   33.795    6.3718
   33.810    6.0664
   33.825    6.3296
   33.840    6.0769
   33.855    6.2665
   33.870    6.2665
   33.885    6.6140
   33.900    6.6456
   33.915    6.8773
   33.930    6.5929
   33.945    6.3402
   33.960    6.2665
   33.975    6.8878
   33.990    6.4034
   34.005    6.2981
   34.020    6.4560
   34.035    6.3191
   34.050    6.3718
   34.065    6.3402
   34.080    6.4455
   34.095    6.5719
   34.110    6.5719
   34.125    6.6245
   34.140    6.5508
   34.155    6.2665
   34.170    5.9821
   34.185    6.0874
   34.200    6.0348
   34.215    6.1401
   34.230    6.3507
   34.245    6.2559
   34.260    6.5508
   34.275    6.5403
   34.290    6.4350
   34.305    6.5192
   34.320    6.2349
   34.335    6.2875
   34.350    6.6140
   34.365    6.3086
   34.380    5.9084
   34.395    6.3612
   34.410    6.1927
   34.425    6.1611
   34.440    6.0664
   34.455    6.0558
   34.470    6.7615
   34.485    6.5508
   34.500    6.4982
   34.515    6.3507
   34.530    6.3718
   34.545    6.6561
   34.560    6.4876
   34.575    6.5403
   34.590    6.1295
   34.605    6.2454
   34.620    6.0242
   34.635    6.3086
   34.650    6.4876
   34.665    6.2981
   34.680    6.2981
   34.695    6.1295
   34.710    6.4350
   34.725    6.2349
   34.740    6.6035
   34.755    6.5929
   34.770    6.2138
   34.785    6.2875
   34.800    6.0137
   34.815    6.4455
   34.830    6.6351
   34.845    6.5719
   34.860    6.6667
   34.875    6.2770
   34.890    6.0979
   34.905    6.2454
   34.920    6.4350
   34.935    6.4034
   34.950    6.1190
   34.965    6.1190
   34.980    6.3402
   34.995    6.3086
   35.010    6.3718
   35.025    6.3191
   35.040    6.1611
   35.055    6.1085
   35.070    6.4982
   35.085    6.0664
   35.100    5.9400
   35.115    5.8241
   35.130    6.3191
   35.145    5.9716
   35.160    6.4034
   35.175    5.9821
   35.190    5.8978
   35.205    6.1295
   35.220    6.1085
   35.235    5.9716
   35.250    6.3718
   35.265    6.6035
   35.280    6.0348
   35.295    6.2138
   35.310    6.2454
   35.325    6.2981
   35.340    6.5719
   35.355    5.9821
   35.370    5.6345
   35.385    5.9294
   35.400    6.5508
   35.415    5.7399
   35.430    6.3086
   35.445    6.3086
   35.460    6.1927
   35.475    6.4244
   35.490    6.2243
   35.505    6.0979
   35.520    6.3296
   35.535    6.3086
   35.550    6.6035
   35.565    6.1822
   35.580    6.2243
   35.595    6.0979
   35.610    6.2454
   35.625    6.4244
   35.640    6.2454
   35.655    6.4666
   35.670    6.3191
   35.685    6.1611
   35.700    6.6456
   35.715    6.8352
   35.730    6.1085
   35.745    6.2033
   35.760    6.3823
   35.775    5.9084
   35.790    6.1401
   35.805    5.8978
   35.820    6.3402
   35.835    6.2875
   35.850    6.2559
   35.865    6.3402
   35.880    6.6772
   35.895    6.0453
   35.910    6.0558
   35.925    6.0979
   35.940    6.3191
   35.955    6.6456
   35.970    6.1611
   35.985    6.2665
   36.000    6.3612
   36.015    6.4771
   36.030    6.2875
   36.045    6.0558
   36.060    6.6351
   36.075    6.2981
   36.090    6.1927
   36.105    6.0348
   36.120    6.3928
   36.135    6.0242
   36.150    6.2770
   36.165    5.8031
   36.180    6.4034
   36.195    6.3086
   36.210    5.9821
   36.225    6.8562
   36.240    6.5824
   36.255    6.3823
   36.270    6.4876
   36.285    6.0242
   36.300    5.9294
   36.315    6.1927
   36.330    6.2981
   36.345    6.4034
   36.360    6.0348
   36.375    5.9505
   36.390    5.7293
   36.405    6.1295
   36.420    6.7615
   36.435    6.4139
   36.450    5.8452
   36.465    5.9505
   36.480    5.9294
   36.495    5.9716
   36.510    5.9084
   36.525    6.2243
   36.540    5.8031
   36.555    6.2033
   36.570    5.9189
   36.585    5.7715
   36.600    6.2243
   36.615    6.2875
   36.630    6.3191
   36.645    5.7820
   36.660    5.9505
   36.675    6.4666
   36.690    5.6977
   36.705    6.3928
   36.720    6.6140
   36.735    6.5298
   36.750    5.8978
   36.765    5.9716
   36.780    6.1506
   36.795    6.4244
   36.810    6.2243
   36.825    6.1295
   36.840    6.0664
   36.855    6.1506
   36.870    6.0137
   36.885    6.3296
   36.900    6.1085
   36.915    6.1717
   36.930    6.0453
   36.945    5.8031
   36.960    6.2349
   36.975    6.3612
   36.990    6.4034
   37.005    6.1822
   37.020    5.9084
   37.035    6.2349
   37.050    6.0769
   37.065    5.7083
   37.080    6.1190
   37.095    6.2138
   37.110    6.1085
   37.125    6.1295
   37.140    5.9084
   37.155    6.0558
   37.170    6.2349
   37.185    5.7083
   37.200    5.7293
   37.215    6.0137
   37.230    6.2665
   37.245    6.2665
   37.260    6.3718
   37.275    5.9294
   37.290    5.5924
   37.305    5.8031
   37.320    5.8662
   37.335    5.9716
   37.350    6.2770
   37.365    5.9610
   37.380    6.2559
   37.395    6.1611
   37.410    6.4455
   37.425    6.2981
   37.440    5.9926
   37.455    6.1822
   37.470    6.0979
   37.485    5.8662
   37.500    6.0558
   37.515    5.8136
   37.530    5.7188
   37.545    5.9610
   37.560    5.9821
   37.575    6.0769
   37.590    6.0558
   37.605    6.0137
   37.620    5.9610
   37.635    6.1190
   37.650    5.9505
   37.665    5.9821
   37.680    6.0979
   37.695    6.1822
   37.710    5.8241
   37.725    6.0348
   37.740    6.2454
   37.755    6.2770
   37.770    5.8452
   37.785    5.6977
   37.800    5.6767
   37.815    6.1717
   37.830    6.2033
   37.845    6.0769
   37.860    6.2033
   37.875    6.2033
   37.890    6.1611
   37.905    6.0453
   37.920    6.1085
   37.935    5.9400
   37.950    6.2875
   37.965    6.1295
   37.980    5.7293
   37.995    6.1506
   38.010    5.9505
   38.025    5.7293
   38.040    5.6345
   38.055    6.0032
   38.070    6.3402
   38.085    5.7083
   38.100    5.8452
   38.115    5.9084
   38.130    6.0242
   38.145    5.9821
   38.160    5.6661
   38.175    6.0137
   38.190    5.7504
   38.205    5.7293
   38.220    5.6977
   38.235    5.5714
   38.250    5.9294
   38.265    5.8452
   38.280    5.9716
   38.295    5.8031
   38.310    5.7188
   38.325    6.0453
   38.340    5.4028
   38.355    6.0032
   38.370    6.0979
   38.385    6.0348
   38.400    6.2454
   38.415    6.2138
   38.430    6.0453
   38.445    5.7715
   38.460    5.8662
   38.475    5.7925
   38.490    5.8768
   38.505    5.7504
   38.520    5.7399
   38.535    5.8662
   38.550    5.7293
   38.565    5.7083
   38.580    5.6345
   38.595    5.9400
   38.610    6.1717
   38.625    5.4871
   38.640    6.2243
   38.655    5.8557
   38.670    6.0558
   38.685    5.9084
   38.700    6.0664
   38.715    5.9294
   38.730    5.6767
   38.745    6.1822
   38.760    5.9400
   38.775    5.9084
   38.790    6.1401
   38.805    5.9400
   38.820    6.3507
   38.835    5.9926
   38.850    5.7504
   38.865    5.7399
   38.880    5.8241
   38.895    5.8241
   38.910    5.8557
   38.925    5.4660
   38.940    6.0348
   38.955    6.1295
   38.970    6.0979
   38.985    6.1611
   39.000    6.0348
   39.015    6.2033
   39.030    6.0979
   39.045    5.7715
   39.060    6.0558
   39.075    5.8031
   39.090    6.2138
   39.105    6.0242
   39.120    6.0032
   39.135    6.1927
   39.150    6.5192
   39.165    6.2454
   39.180    6.0664
   39.195    6.1401
   39.210    6.0874
   39.225    5.5187
   39.240    5.3818
   39.255    5.7820
   39.270    5.7399
   39.285    5.8978
   39.300    5.9505
   39.315    6.1295
   39.330    6.0242
   39.345    5.8347
   39.360    6.0874
   39.375    5.7399
   39.390    5.6029
   39.405    6.0874
   39.420    6.0453
   39.435    5.7820
   39.450    6.2243
   39.465    5.8136
   39.480    5.4450
   39.495    5.9294
   39.510    5.9189
   39.525    6.1401
   39.540    6.0769
   39.555    6.2454
   39.570    5.7504
   39.585    5.9189
   39.600    6.4350
   39.615    6.3191
   39.630    6.1822
   39.645    6.3402
   39.660    6.1401
   39.675    5.8031
   39.690    5.6240
   39.705    6.1717
   39.720    5.9716
   39.735    6.0769
   39.750    5.8557
   39.765    6.0453
   39.780    5.9821
   39.795    5.9400
   39.810    6.1506
   39.825    6.5087
   39.840    6.2559
   39.855    5.9189
   39.870    5.6977
   39.885    5.7820
   39.900    5.9926
   39.915    5.6872
   39.930    6.0032
   39.945    6.0979
   39.960    5.8452
   39.975    6.0032
   39.990    6.1717
