    1.500   20.3054
    1.515   20.5266
    1.530   20.0843
    1.545   19.7683
    1.560   19.3470
    1.575   19.0100
    1.590   18.4623
    1.605   17.9358
    1.620   18.4308
    1.635   17.8936
    1.650   17.8515
    1.665   18.0621
    1.680   17.5566
    1.695   17.7251
    1.710   16.6193
    1.725   16.6930
    1.740   16.6930
    1.755   16.5456
    1.770   16.2296
    1.785   16.0716
    1.800   16.3665
    1.815   15.4818
    1.830   15.7557
    1.845   16.0084
    1.860   15.3765
    1.875   14.8920
    1.890   15.3028
    1.905   14.8499
    1.920   14.3339
    1.935   14.5550
    1.950   15.2185
    1.965   14.2601
    1.980   14.1022
    1.995   14.2075
    2.010   14.0706
    2.025   13.8073
    2.040   13.7019
    2.055   13.7967
    2.070   13.7335
    2.085   13.3965
    2.100   13.9231
    2.115   13.9968
    2.130   13.0384
    2.145   13.8705
    2.160   13.3544
    2.175   13.1227
    2.190   13.3123
    2.205   13.0490
    2.220   12.7541
    2.235   12.6804
    2.250   12.6909
    2.265   12.3960
    2.280   13.0068
    2.295   11.9537
    2.310   12.0379
    2.325   12.1748
    2.340   12.4276
    2.355   11.8905
    2.370   11.9221
    2.385   12.2064
    2.400   12.4908
    2.415   12.3117
    2.430   11.9537
    2.445   11.7009
    2.460   12.0379
    2.475   11.8905
    2.490   11.8799
    2.505   11.9115
    2.520   11.5534
    2.535   11.7536
    2.550   11.8273
    2.565   11.4692
    2.580   12.2275
    2.595   11.4587
    2.610   11.3955
    2.625   11.2059
    2.640   11.4587
    2.655   11.1111
    2.670   11.4903
    2.685   11.6061
    2.700   11.9431
    2.715   12.0063
    2.730   11.4903
    2.745   11.2796
    2.760   11.4376
    2.775   11.6904
    2.790   11.0163
    2.805   10.9321
    2.820   11.4797
    2.835   11.5113
    2.850   11.6061
    2.865   10.8373
    2.880   10.5635
    2.895   10.9531
    2.910   11.6166
    2.925   11.2902
    2.940   11.2164
    2.955   11.3428
    2.970   11.3007
    2.985   11.1111
    3.000   11.0795
    3.015   11.2796
    3.030   10.9321
    3.045   10.7952
    3.060   10.6582
    3.075   10.6688
    3.090   10.8057
    3.105   10.8373
    3.120   10.9742
    3.135   11.1954
    3.150   11.0900
    3.165   10.7425
    3.180   10.8689
    3.195   10.5635
    3.210   10.7004
    3.225   10.5635
    3.240   10.5003
    3.255   10.7004
    3.270   10.6056
    3.285   10.4792
    3.300   10.6898
    3.315   10.7425
    3.330   10.5529
    3.345   10.8162
    3.360   10.8478
    3.375   10.8057
    3.390   10.6582
    3.405   11.1427
    3.420   10.5845
    3.435   11.3217
    3.450   10.9215
    3.465   10.3844
    3.480   10.4897
    3.495   10.6793
    3.510   10.6161
    3.525   10.4687
    3.540   11.0479
    3.555   10.5951
    3.570   10.4687
    3.585   10.1738
    3.600   10.4581
    3.615   10.2791
    3.630   10.2264
    3.645   10.6477
    3.660   10.9110
    3.675   10.6372
    3.690   10.4371
    3.705   10.6582
    3.720   10.1632
    3.735   10.6161
    3.750   10.7636
    3.765   10.6056
    3.780    9.9210
    3.795   10.6793
    3.810   10.5529
    3.825   11.0058
    3.840   10.5845
    3.855   10.4265
    3.870   10.3212
    3.885   10.9321
    3.900   10.4687
    3.915   10.5529
    3.930   10.5845
    3.945   10.7109
    3.960   10.4265
    3.975   10.6582
    3.990   10.3107
    4.005   10.0158
    4.020   10.1422
    4.035   10.2580
    4.050   10.0474
    4.065   10.0579
    4.080   10.5635
    4.095   10.2791
    4.110   10.3949
    4.125   10.3844
    4.140   10.2264
    4.155   10.7109
    4.170   10.4581
    4.185   10.1738
    4.200    9.9315
    4.215   10.3423
    4.230   10.4055
    4.245   10.1316
    4.260   10.2791
    4.275   10.3212
    4.290   10.1316
    4.305   10.0685
    4.320   10.4687
    4.335    9.9631
    4.350   10.2791
    4.365   10.2791
    4.380    9.8684
    4.395   10.0263
    4.410    9.6998
    4.425   10.5003
    4.440   10.3212
    4.455    9.9947
    4.470   10.1948
    4.485   10.3318
    4.500   10.1632
    4.515   10.3107
    4.530   10.2686
    4.545   10.2791
    4.560   10.5319
    4.575   10.3318
    4.590   10.0369
    4.605   10.0053
    4.620   10.1843
    4.635   10.1948
    4.650    9.7841
    4.665   10.1316
    4.680    9.8262
    4.695   10.0053
    4.710   10.3002
    4.725    9.9842
    4.740   10.6161
    4.755   10.0790
    4.770    9.9631
    4.785   10.2054
    4.800   10.0685
    4.815   10.3318
    4.830   10.2264
    4.845   10.1211
    4.860   10.1843
    4.875   10.0895
    4.890   10.3949
    4.905   10.2686
    4.920    9.9947
    4.935   10.4687
    4.950   10.4687
    4.965   10.1001
    4.980   10.4687
    4.995   10.2264
    5.010   10.4160
    5.025   10.3212
    5.040   10.0369
    5.055   10.2370
    5.070   10.7109
    5.085   10.3423
    5.100   10.3633
    5.115   10.3739
    5.130   10.2054
    5.145   10.5529
    5.160   10.4371
    5.175    9.9421
    5.190   10.4371
    5.205   10.2580
    5.220    9.8157
    5.235   10.7741
    5.250   10.4897
    5.265   10.1001
    5.280   10.8478
    5.295   10.6688
    5.310   10.4687
    5.325   10.1948
    5.340   10.1632
    5.355   10.2264
    5.370   10.2580
    5.385   10.3107
    5.400   10.2054
    5.415   10.8057
    5.430   10.0369
    5.445   10.1422
    5.460   10.3739
    5.475   10.1422
    5.490   10.4055
    5.505   10.6372
    5.520   10.2264
    5.535   10.4371
    5.550   10.1948
    5.565   10.3844
    5.580   10.6898
    5.595    9.7946
    5.610   10.1422
    5.625   10.0685
    5.640   10.5108
    5.655   11.1111
    5.670   10.2686
    5.685   10.6266
    5.700   10.2896
    5.715   10.5845
    5.730   10.6161
    5.745   10.8899
    5.760   10.6898
    5.775   10.8162
    5.790   10.5951
    5.805   10.5108
    5.820   10.5740
    5.835   10.2475
    5.850    9.7525
    5.865   10.2475
    5.880   10.4897
    5.895   10.5319
    5.910   10.7846
    5.925   10.8899
    5.940   10.4371
    5.955   10.1106
    5.970   10.5319
    5.985   11.3112
    6.000   10.4371
    6.015   10.5319
    6.030   10.7214
    6.045   10.4265
    6.060   10.1738
    6.075    9.9842
    6.090   10.6056
    6.105   10.3107
    6.120   10.6266
    6.135   10.3844
    6.150   10.1948
    6.165   10.1211
    6.180   10.3212
    6.195   10.2370
    6.210   10.5740
    6.225   10.9426
    6.240   10.2686
    6.255   10.6161
    6.270   10.5529
    6.285   10.1422
    6.300   10.1001
    6.315   10.8057
    6.330   10.4897
    6.345   10.7004
    6.360   10.3107
    6.375   10.5635
    6.390   10.3212
    6.405   10.4687
    6.420   10.6372
    6.435   10.7530
    6.450   10.1527
    6.465   10.3002
    6.480   10.6582
    6.495   10.5319
    6.510   10.9953
    6.525   10.3739
    6.540   10.3002
    6.555   10.3107
    6.570   10.2896
    6.585   10.3002
    6.600   10.0158
    6.615   10.3212
    6.630   10.3318
    6.645   10.3002
    6.660   10.1211
    6.675   10.3844
    6.690   10.1948
    6.705   10.0369
    6.720   10.3212
    6.735   10.4055
    6.750   10.2370
    6.765   10.5213
    6.780   10.8057
    6.795   10.4897
    6.810   10.2686
    6.825   10.3528
    6.840   10.4160
    6.855   10.4265
    6.870   10.7109
    6.885   10.1422
    6.900    9.8894
    6.915   10.6372
    6.930   11.0479
    6.945   10.5845
    6.960   10.5740
    6.975   10.8057
    6.990   10.7846
    7.005   11.1216
    7.020   11.1638
    7.035   10.7425
    7.050   11.1954
    7.065   10.8689
    7.080   11.0900
    7.095   10.7952
    7.110   10.5319
    7.125   10.7320
    7.140   11.0163
    7.155   10.9426
    7.170   11.1322
    7.185   11.6482
    7.200   11.4481
    7.215   11.5429
    7.230   11.7220
    7.245   11.3639
    7.260   11.9221
    7.275   11.6693
    7.290   11.9642
    7.305   12.1854
    7.320   12.1748
    7.335   12.9226
    7.350   13.0490
    7.365   12.8383
    7.380   12.7857
    7.395   13.0595
    7.410   12.9542
    7.425   12.6277
    7.440   12.5540
    7.455   13.2912
    7.470   13.5018
    7.485   13.5334
    7.500   13.0700
    7.515   13.4597
    7.530   13.5650
    7.545   13.5756
    7.560   13.3755
    7.575   12.7225
    7.590   13.2912
    7.605   13.6914
    7.620   13.6704
    7.635   13.6177
    7.650   13.7019
    7.665   13.8283
    7.680   14.0706
    7.695   14.2391
    7.710   14.0390
    7.725   14.1654
    7.740   14.3339
    7.755   14.8289
    7.770   14.8605
    7.785   14.7551
    7.800   15.2291
    7.815   15.7030
    7.830   15.4713
    7.845   15.5134
    7.860   15.1764
    7.875   16.2928
    7.890   16.2717
    7.905   16.0716
    7.920   15.9347
    7.935   15.1343
    7.950   14.8920
    7.965   14.5972
    7.980   13.9863
    7.995   13.9021
    8.010   13.3965
    8.025   12.4803
    8.040   12.2064
    8.055   12.1222
    8.070   11.8905
    8.085   12.2064
    8.100   11.7430
    8.115   11.1532
    8.130   10.8268
    8.145   10.7320
    8.160   10.9215
    8.175   11.0690
    8.190   10.9215
    8.205   10.6266
    8.220   10.7004
    8.235   10.5529
    8.250   10.3318
    8.265   10.3528
    8.280   10.9742
    8.295   10.6477
    8.310   10.7320
    8.325   10.2475
    8.340   10.5740
    8.355   10.8373
    8.370   10.4581
    8.385   10.7952
    8.400   10.3212
    8.415    9.8052
    8.430   10.2686
    8.445   10.5213
    8.460   10.0895
    8.475    9.7314
    8.490    9.6998
    8.505    9.9526
    8.520   10.5213
    8.535   10.8583
    8.550   10.3844
    8.565   10.1422
    8.580   10.1527
    8.595   10.6266
    8.610   10.7530
    8.625   10.0895
    8.640   10.5424
    8.655   10.7741
    8.670   10.4371
    8.685   10.2475
    8.700   10.3633
    8.715   10.2580
    8.730   10.6477
    8.745   10.4897
    8.760   10.5319
    8.775   10.2580
    8.790   10.2159
    8.805   10.8899
    8.820   10.1632
    8.835   10.2791
    8.850   10.4897
    8.865   10.5108
    8.880   10.5529
    8.895   10.9426
    8.910   10.2896
    8.925    9.7314
    8.940   10.2475
    8.955   10.6898
    8.970   10.1738
    8.985    9.9210
    9.000   10.6161
    9.015   10.1738
    9.030   10.3318
    9.045   10.5845
    9.060   10.9531
    9.075   10.5108
    9.090   10.5108
    9.105   10.6056
    9.120   10.6688
    9.135   10.4371
    9.150   10.8899
    9.165   11.0585
    9.180   11.0374
    9.195   11.0163
    9.210   10.4897
    9.225   10.9110
    9.240   11.4376
    9.255   11.4165
    9.270   10.7109
    9.285   11.5429
    9.300   11.6904
    9.315   11.0900
    9.330   11.5745
    9.345   11.8062
    9.360   12.0063
    9.375   12.3117
    9.390   12.3012
    9.405   13.0700
    9.420   12.6804
    9.435   13.1016
    9.450   13.1438
    9.465   13.5229
    9.480   13.7335
    9.495   14.0706
    9.510   14.3023
    9.525   14.7341
    9.540   15.2712
    9.555   15.5029
    9.570   16.2085
    9.585   16.0611
    9.600   17.2091
    9.615   18.1675
    9.630   18.7046
    9.645   18.6203
    9.660   18.5045
    9.675   18.9258
    9.690   19.4839
    9.705   18.9152
    9.720   19.1469
    9.735   19.3892
    9.750   19.2944
    9.765   19.0205
    9.780   19.2944
    9.795   19.7472
    9.810   19.9684
    9.825   19.4945
    9.840   18.7783
    9.855   18.6309
    9.870   18.8310
    9.885   17.4513
    9.900   17.0721
    9.915   16.4297
    9.930   15.6819
    9.945   14.4286
    9.960   14.3339
    9.975   13.8389
    9.990   13.5861
   10.005   13.6809
   10.020   13.5861
   10.035   12.9542
   10.050   13.0490
   10.065   13.2912
   10.080   13.6282
   10.095   13.7862
   10.110   13.7862
   10.125   13.8389
   10.140   13.4913
   10.155   13.5124
   10.170   13.8915
   10.185   13.6493
   10.200   13.4492
   10.215   13.8705
   10.230   13.5440
   10.245   13.8073
   10.260   13.8073
   10.275   14.1127
   10.290   14.2075
   10.305   13.9863
   10.320   12.8805
   10.335   12.6698
   10.350   12.5961
   10.365   12.6382
   10.380   12.5434
   10.395   12.5013
   10.410   12.6277
   10.425   12.5434
   10.440   12.3960
   10.455   12.4908
   10.470   12.2064
   10.485   12.5750
   10.500   12.8594
   10.515   12.7962
   10.530   12.2591
   10.545   12.3328
   10.560   12.7962
   10.575   13.2385
   10.590   12.8173
   10.605   13.0068
   10.620   13.1122
   10.635   12.9437
   10.650   13.1227
   10.665   13.1859
   10.680   12.8805
   10.695   13.1859
   10.710   13.3965
   10.725   12.9226
   10.740   12.6488
   10.755   12.7014
   10.770   12.8173
   10.785   12.8067
   10.800   12.7646
   10.815   13.0911
   10.830   13.3544
   10.845   13.3649
   10.860   13.6493
   10.875   13.7546
   10.890   13.5756
   10.905   13.5334
   10.920   12.9437
   10.935   13.1859
   10.950   12.7962
   10.965   12.6382
   10.980   12.7962
   10.995   13.1332
   11.010   13.1332
   11.025   12.8173
   11.040   12.7541
   11.055   12.8594
   11.070   12.4697
   11.085   12.8067
   11.100   12.8173
   11.115   12.6804
   11.130   12.5224
   11.145   12.9015
   11.160   12.8805
   11.175   12.5224
   11.190   12.1327
   11.205   12.0169
   11.220   12.7436
   11.235   12.7541
   11.250   12.0906
   11.265   11.9747
   11.280   12.6382
   11.295   12.0800
   11.310   12.0484
   11.325   12.4381
   11.340   12.2064
   11.355   12.0484
   11.370   11.6166
   11.385   11.5956
   11.400   11.9115
   11.415   12.0695
   11.430   11.7536
   11.445   12.0274
   11.460   11.8062
   11.475   11.6798
   11.490   11.7641
   11.505   11.8905
   11.520   11.6377
   11.535   11.9747
   11.550   11.6482
   11.565   11.3217
   11.580   11.0479
   11.595   11.6904
   11.610   11.4903
   11.625   11.8694
   11.640   12.0800
   11.655   11.9958
   11.670   11.6377
   11.685   11.5534
   11.700   12.0590
   11.715   11.9431
   11.730   12.1011
   11.745   11.9326
   11.760   11.3112
   11.775   11.2270
   11.790   12.1854
   11.805   12.1116
   11.820   11.8378
   11.835   12.1011
   11.850   12.1011
   11.865   12.3223
   11.880   11.9747
   11.895   12.2064
   11.910   12.6593
   11.925   12.3012
   11.940   12.3855
   11.955   12.0906
   11.970   12.3223
   11.985   12.2170
   12.000   12.7120
   12.015   12.3855
   12.030   12.3644
   12.045   12.4276
   12.060   12.2801
   12.075   12.6066
   12.090   11.8589
   12.105   12.0063
   12.120   12.4592
   12.135   11.9958
   12.150   12.0800
   12.165   11.8905
   12.180   12.2801
   12.195   11.9221
   12.210   11.9642
   12.225   11.9326
   12.240   11.1006
   12.255   11.5745
   12.270   11.7325
   12.285   11.6166
   12.300   11.2164
   12.315   11.8694
   12.330   11.5534
   12.345   11.5534
   12.360   11.5850
   12.375   11.6061
   12.390   11.7536
   12.405   11.4165
   12.420   11.6061
   12.435   11.2902
   12.450   10.9847
   12.465   11.0374
   12.480   11.3955
   12.495   10.8583
   12.510   11.2164
   12.525   11.6272
   12.540   11.3007
   12.555   11.2480
   12.570   11.3744
   12.585   11.7746
   12.600   11.3849
   12.615   11.1743
   12.630   11.1638
   12.645   11.4692
   12.660   11.1006
   12.675   11.0163
   12.690   11.1954
   12.705   11.6482
   12.720   11.2164
   12.735   11.1743
   12.750   11.8589
   12.765   11.8799
   12.780   11.5219
   12.795   11.4481
   12.810   11.7220
   12.825   11.6377
   12.840   11.6482
   12.855   11.3533
   12.870   11.1532
   12.885   11.2375
   12.900   11.8905
   12.915   12.1538
   12.930   11.2270
   12.945   11.0479
   12.960   11.1111
   12.975   11.3323
   12.990   11.4797
   13.005   11.4587
   13.020   11.4060
   13.035   11.6482
   13.050   11.4060
   13.065   11.6377
   13.080   11.7641
   13.095   12.0906
   13.110   11.5008
   13.125   11.3217
   13.140   11.3744
   13.155   10.9531
   13.170   11.4797
   13.185   11.2164
   13.200   11.9221
   13.215   11.1111
   13.230   10.6372
   13.245   10.9742
   13.260   11.6904
   13.275   11.6798
   13.290   11.2796
   13.305   11.0374
   13.320   11.2270
   13.335   11.1111
   13.350   11.1216
   13.365   10.8583
   13.380   10.6056
   13.395   11.1006
   13.410   10.7214
   13.425   11.1638
   13.440   12.1011
   13.455   11.3007
   13.470   11.5113
   13.485   11.1954
   13.500   11.3112
   13.515   11.2586
   13.530   11.2586
   13.545   11.4376
   13.560   11.3217
   13.575   10.9531
   13.590   11.4587
   13.605   11.3533
   13.620   11.3007
   13.635   11.2796
   13.650   11.4587
   13.665   11.4587
   13.680   11.8589
   13.695   11.2375
   13.710   11.1322
   13.725   10.9110
   13.740   11.1006
   13.755   11.4481
   13.770   10.9426
   13.785   11.0795
   13.800   11.5008
   13.815   11.1743
   13.830   11.3955
   13.845   11.5324
   13.860   11.0479
   13.875   11.5534
   13.890   11.1006
   13.905   11.6166
   13.920   11.1532
   13.935   11.3533
   13.950   11.4271
   13.965   10.9426
   13.980   11.3112
   13.995   11.0479
   14.010   11.2796
   14.025   10.9531
   14.040   10.6582
   14.055   10.5319
   14.070   10.5529
   14.085   10.3949
   14.100   10.6793
   14.115   10.9531
   14.130   10.6056
   14.145   10.6266
   14.160   10.5108
   14.175   10.6477
   14.190   10.7636
   14.205   10.3949
   14.220   10.6688
   14.235   10.7846
   14.250   10.7741
   14.265   10.5108
   14.280   10.6793
   14.295   10.3739
   14.310   10.4687
   14.325   11.4060
   14.340   10.8794
   14.355   10.5740
   14.370   10.6161
   14.385   10.6688
   14.400   10.4476
   14.415   10.3528
   14.430   10.3844
   14.445   10.9637
   14.460   10.7846
   14.475   10.8478
   14.490   11.1954
   14.505   11.1532
   14.520   10.3844
   14.535   11.0900
   14.550   11.1638
   14.565   10.9637
   14.580   11.4903
   14.595   10.5529
   14.610   10.4476
   14.625   10.5845
   14.640   11.2902
   14.655   11.1743
   14.670   11.1743
   14.685   10.6161
   14.700   11.4587
   14.715   11.5008
   14.730   10.7214
   14.745   10.5319
   14.760   10.6688
   14.775   11.1532
   14.790   11.4376
   14.805   11.1954
   14.820   10.9637
   14.835   10.8478
   14.850   11.0479
   14.865   10.9110
   14.880   10.6372
   14.895   10.5213
   14.910   10.0790
   14.925   10.4581
   14.940   10.5951
   14.955   10.6056
   14.970   10.3212
   14.985   10.5740
   15.000   10.2791
   15.015   10.4371
   15.030   10.1738
   15.045   10.0053
   15.060   10.5951
   15.075   10.6582
   15.090   11.1954
   15.105   11.0585
   15.120   10.3844
   15.135   10.5424
   15.150   10.9531
   15.165   10.3212
   15.180   10.4792
   15.195   10.7530
   15.210   11.2586
   15.225   10.8162
   15.240   10.5108
   15.255   10.7004
   15.270   10.9953
   15.285   10.7636
   15.300   10.4897
   15.315   10.3318
   15.330   10.5740
   15.345   10.8794
   15.360   10.1422
   15.375   10.3212
   15.390   10.7109
   15.405   10.2791
   15.420   10.8478
   15.435   11.0058
   15.450   10.8057
   15.465   10.9847
   15.480   10.7320
   15.495   11.3112
   15.510   11.0795
   15.525   10.7425
   15.540   10.6056
   15.555   10.7636
   15.570   10.6582
   15.585   10.8057
   15.600   10.9005
   15.615   10.8057
   15.630   10.8373
   15.645   11.2270
   15.660   11.1427
   15.675   11.1532
   15.690   10.7952
   15.705   11.3323
   15.720   11.1006
   15.735   11.8273
   15.750   11.8167
   15.765   11.9221
   15.780   11.8799
   15.795   11.1532
   15.810   11.2164
   15.825   10.9953
   15.840   11.1532
   15.855   11.1427
   15.870   10.8583
   15.885   11.7220
   15.900   10.9110
   15.915   11.5219
   15.930   10.8478
   15.945   11.1848
   15.960   11.1216
   15.975   11.1532
   15.990   11.1532
   16.005   10.8689
   16.020   10.7109
   16.035   10.8583
   16.050   10.6898
   16.065   11.7009
   16.080   11.2164
   16.095   10.6688
   16.110   10.8583
   16.125   11.2796
   16.140   10.4792
   16.155   10.9005
   16.170   10.7320
   16.185   10.7846
   16.200   10.8899
   16.215   10.3739
   16.230   10.5319
   16.245   10.5213
   16.260   10.5951
   16.275   10.7530
   16.290   10.8373
   16.305   10.1316
   16.320   10.3423
   16.335   10.4055
   16.350   10.8899
   16.365   10.8899
   16.380   11.0585
   16.395   10.5003
   16.410   10.5319
   16.425   10.8373
   16.440   10.5213
   16.455   10.6688
   16.470   10.5108
   16.485   10.5951
   16.500   10.7320
   16.515   11.0690
   16.530   10.8583
   16.545   10.4792
   16.560   10.7952
   16.575   10.7636
   16.590   11.2375
   16.605   10.8373
   16.620   10.4055
   16.635   10.2159
   16.650   10.7636
   16.665   11.1532
   16.680   10.7846
   16.695   10.4160
   16.710   10.4476
   16.725   10.8689
   16.740   10.4476
   16.755   10.3633
   16.770   10.2264
   16.785   10.6161
   16.800   10.5740
   16.815   10.4055
   16.830   11.0374
   16.845   10.8162
   16.860   10.9321
   16.875   10.6898
   16.890   10.4792
   16.905   10.4792
   16.920   10.3318
   16.935   10.3318
   16.950   10.3633
   16.965   10.9005
   16.980   10.8899
   16.995   10.2580
   17.010   10.6688
   17.025   10.5108
   17.040   10.8162
   17.055   10.8899
   17.070   10.9742
   17.085   10.9637
   17.100   10.5213
   17.115   10.8689
   17.130   10.2896
   17.145   10.3633
   17.160   10.4687
   17.175   10.8162
   17.190   10.4897
   17.205   10.9637
   17.220   10.9531
   17.235   10.9005
   17.250   10.7214
   17.265   10.7741
   17.280   11.2059
   17.295   11.2164
   17.310   10.9742
   17.325   11.0795
   17.340   10.7004
   17.355   11.3639
   17.370   10.9215
   17.385   11.0058
   17.400   10.8373
   17.415   10.7530
   17.430   10.8057
   17.445   10.5424
   17.460   11.0269
   17.475   11.5534
   17.490   11.4165
   17.505   11.1216
   17.520   10.8373
   17.535   10.8162
   17.550   10.9953
   17.565   10.8478
   17.580   10.3318
   17.595   10.9637
   17.610   10.6372
   17.625   10.7214
   17.640   11.3112
   17.655   10.9426
   17.670   10.6793
   17.685   10.5635
   17.700   10.5845
   17.715   10.5108
   17.730   11.1427
   17.745   11.2375
   17.760   10.9321
   17.775   10.7636
   17.790   11.0163
   17.805   10.8478
   17.820   10.8268
   17.835   10.8373
   17.850   10.8583
   17.865   10.5213
   17.880   11.2691
   17.895   11.1111
   17.910   10.2791
   17.925   10.3212
   17.940   10.8057
   17.955   10.1948
   17.970   10.6056
   17.985   10.5424
   18.000   10.7741
   18.015   10.8794
   18.030   10.5635
   18.045   10.6372
   18.060   11.0269
   18.075   10.5319
   18.090   10.4055
   18.105   10.6793
   18.120   10.7004
   18.135   10.7846
   18.150   10.6477
   18.165   10.6161
   18.180   10.3844
   18.195   10.2159
   18.210   11.1216
   18.225   10.9005
   18.240   10.3949
   18.255   10.0263
   18.270   10.4371
   18.285   10.2686
   18.300   10.0158
   18.315   10.6161
   18.330   10.4265
   18.345   10.3844
   18.360   10.8162
   18.375   10.7425
   18.390   10.5213
   18.405   10.3844
   18.420   10.7846
   18.435   10.3633
   18.450   10.5845
   18.465   10.3318
   18.480   10.1001
   18.495   10.6582
   18.510   11.0900
   18.525   10.3212
   18.540   10.7109
   18.555   10.8268
   18.570   10.4055
   18.585   10.5213
   18.600   10.4371
   18.615   10.8794
   18.630   10.5529
   18.645   10.2054
   18.660   10.8268
   18.675   11.2480
   18.690   11.6061
   18.705   11.0058
   18.720   11.0374
   18.735   10.5740
   18.750   10.7425
   18.765   10.3844
   18.780   11.0269
   18.795   11.1848
   18.810   10.9426
   18.825   10.4792
   18.840   10.6161
   18.855   10.7741
   18.870   10.6688
   18.885   10.7952
   18.900   11.0900
   18.915   10.4265
   18.930   10.4687
   18.945   10.2580
   18.960   10.0053
   18.975   10.5108
   18.990   10.2159
   19.005   10.6372
   19.020   10.3633
   19.035   10.6372
   19.050   10.6898
   19.065   10.6688
   19.080   11.0269
   19.095   10.7320
   19.110   10.7425
   19.125   10.4687
   19.140   10.6898
   19.155   10.8162
   19.170   10.7530
   19.185   10.4371
   19.200   10.4371
   19.215   10.4055
   19.230   10.5424
   19.245   10.5319
   19.260   10.9953
   19.275   10.8478
   19.290   10.7425
   19.305   10.5740
   19.320   11.0585
   19.335   10.7636
   19.350   10.5951
   19.365   10.5003
   19.380   10.7636
   19.395   11.2270
   19.410   10.6372
   19.425   10.9215
   19.440   11.1216
   19.455   11.3323
   19.470   11.1743
   19.485   11.2480
   19.500   10.5213
   19.515   10.5635
   19.530   10.4371
   19.545   11.4165
   19.560   11.4481
   19.575   10.9321
   19.590   10.6582
   19.605   10.8689
   19.620   10.3739
   19.635   10.4581
   19.650   10.2896
   19.665   10.6793
   19.680   10.8899
   19.695   10.5951
   19.710   10.4055
   19.725   10.3107
   19.740   10.5213
   19.755   10.8583
   19.770   10.1316
   19.785   10.7214
   19.800   10.5529
   19.815   10.3739
   19.830   10.6477
   19.845   10.5108
   19.860   10.4476
   19.875   10.2159
   19.890   10.5003
   19.905   10.0579
   19.920   10.1106
   19.935   10.5424
   19.950   10.6793
   19.965   11.2164
   19.980   10.6582
   19.995   10.6582
   20.010   10.7109
   20.025   10.1843
   20.040   10.3949
   20.055   10.6793
   20.070   10.6477
   20.085   10.7214
   20.100   10.6266
   20.115   10.8057
   20.130   10.5529
   20.145   10.6688
   20.160   10.3844
   20.175   10.7741
   20.190   10.9215
   20.205   10.7004
   20.220   11.0058
   20.235   10.7846
   20.250   10.8162
   20.265   10.7425
   20.280   11.0374
   20.295   11.2586
   20.310   11.0374
   20.325   10.3002
   20.340   10.8162
   20.355   10.5003
   20.370   10.7425
   20.385   10.7320
   20.400   10.4897
   20.415   10.6161
   20.430   11.1743
   20.445   10.5635
   20.460   10.6477
   20.475   10.5424
   20.490   10.5424
   20.505   10.5424
   20.520   11.0058
   20.535   11.5640
   20.550   11.2270
   20.565   11.2059
   20.580   11.2164
   20.595   11.0900
   20.610   10.7214
   20.625   10.7741
   20.640   10.6898
   20.655   10.5319
   20.670   10.9426
   20.685   10.8899
   20.700   10.3844
   20.715   10.5635
   20.730   10.6793
   20.745   10.3633
   20.760   10.4687
   20.775   10.2370
   20.790   10.3633
   20.805   10.7109
   20.820   10.5424
   20.835   10.6161
   20.850   10.4476
   20.865   10.2580
   20.880    9.9421
   20.895   10.7636
   20.910   10.6793
   20.925   10.5951
   20.940   10.5003
   20.955   10.4687
   20.970   10.5213
   20.985   10.8689
   21.000   10.6477
   21.015   10.5108
   21.030   10.6898
   21.045   11.1111
   21.060   10.8373
   21.075   10.7846
   21.090   10.3949
   21.105   10.2791
   21.120   10.5213
   21.135   10.9005
   21.150   10.7636
   21.165   10.7530
   21.180   10.2475
   21.195   10.2264
   21.210   10.4160
   21.225   10.8478
   21.240   10.2264
   21.255   10.3318
   21.270   10.9742
   21.285   11.2480
   21.300   10.4581
   21.315   10.5108
   21.330   10.7004
   21.345   10.8899
   21.360   10.7320
   21.375   10.5740
   21.390   10.4160
   21.405   10.7636
   21.420   10.3107
   21.435   10.6056
   21.450   10.5635
   21.465   10.6056
   21.480   10.5213
   21.495   10.7214
   21.510   11.1006
   21.525   10.5003
   21.540   10.6056
   21.555   11.0163
   21.570   11.0690
   21.585   10.8373
   21.600   11.1532
   21.615   11.1532
   21.630   10.9321
   21.645   10.6898
   21.660   10.9531
   21.675   10.6898
   21.690   11.1638
   21.705   10.7846
   21.720   11.1006
   21.735   11.1427
   21.750   11.5324
   21.765   11.0795
   21.780   11.0585
   21.795   10.6898
   21.810   11.1848
   21.825   10.6477
   21.840   10.8162
   21.855   10.6266
   21.870   10.7530
   21.885   11.0374
   21.900   11.0900
   21.915   11.3323
   21.930   10.7425
   21.945   10.4581
   21.960   10.3107
   21.975   11.0479
   21.990   11.1322
   22.005   10.9531
   22.020   11.3744
   22.035   11.3007
   22.050   11.1532
   22.065   11.0690
   22.080   11.2375
   22.095   11.4587
   22.110   11.3849
   22.125   11.1848
   22.140   10.9637
   22.155   11.1427
   22.170   10.7214
   22.185   10.6477
   22.200   11.2796
   22.215   10.8373
   22.230   11.4692
   22.245   11.1322
   22.260   10.7109
   22.275   10.5213
   22.290   11.0690
   22.305   11.0690
   22.320   11.0690
   22.335   10.8689
   22.350   11.0795
   22.365   10.5951
   22.380   11.0269
   22.395   11.6377
   22.410   10.9847
   22.425   10.5108
   22.440   10.6372
   22.455   11.1006
   22.470   10.7109
   22.485   10.7320
   22.500   11.0795
   22.515   10.9742
   22.530   11.5640
   22.545   11.2164
   22.560   11.4797
   22.575   10.8899
   22.590   11.2270
   22.605   11.2691
   22.620   11.3428
   22.635   11.0585
   22.650   10.8373
   22.665   10.9005
   22.680   10.6688
   22.695   11.5324
   22.710   11.5429
   22.725   11.7641
   22.740   11.1006
   22.755   11.2480
   22.770   11.0690
   22.785   11.3849
   22.800   11.6693
   22.815   12.0590
   22.830   10.9215
   22.845   10.9742
   22.860   11.4165
   22.875   11.9115
   22.890   12.0379
   22.905   11.8483
   22.920   11.1638
   22.935   10.9426
   22.950   11.0479
   22.965   11.1427
   22.980   11.3112
   22.995   10.7214
   23.010   11.1427
   23.025   11.5429
   23.040   11.4797
   23.055   11.4165
   23.070   11.1006
   23.085   11.4903
   23.100   11.6272
   23.115   11.2270
   23.130   11.8799
   23.145   11.5850
   23.160   11.5956
   23.175   11.7220
   23.190   11.4165
   23.205   10.9531
   23.220   12.0274
   23.235   11.4797
   23.250   11.1006
   23.265   11.6377
   23.280   11.6272
   23.295   11.4587
   23.310   11.3428
   23.325   11.3007
   23.340   11.0374
   23.355   11.1638
   23.370   11.1638
   23.385   10.9321
   23.400   11.3217
   23.415   10.9321
   23.430   10.9953
   23.445   10.8583
   23.460   10.7846
   23.475   10.9953
   23.490   11.0585
   23.505   10.8057
   23.520   11.5113
   23.535   10.9531
   23.550   11.0163
   23.565   10.9637
   23.580   10.3002
   23.595   10.6688
   23.610   11.0163
   23.625   10.7952
   23.640   10.9215
   23.655   10.8689
   23.670   10.3739
   23.685   10.2580
   23.700   10.8057
   23.715   10.9637
   23.730   10.9321
   23.745   10.4792
   23.760   10.5740
   23.775   10.6898
   23.790   10.9426
   23.805   10.9321
   23.820   10.4055
   23.835   11.1532
   23.850   10.6793
   23.865   10.5951
   23.880   10.6477
   23.895   10.7741
   23.910   11.2270
   23.925   10.7214
   23.940   10.5213
   23.955   11.3744
   23.970   10.9215
   23.985   10.8583
   24.000   11.0585
   24.015   10.6898
   24.030   10.9953
   24.045   11.0585
   24.060   10.9637
   24.075   10.8057
   24.090   10.4792
   24.105   10.7636
   24.120   10.7109
   24.135   11.4376
   24.150   11.3007
   24.165   10.7320
   24.180   11.0479
   24.195   11.0690
   24.210   11.2480
   24.225   11.0795
   24.240   10.5529
   24.255   10.9426
   24.270   10.4792
   24.285   10.7004
   24.300   11.1427
   24.315   11.2375
   24.330   11.5745
   24.345   10.6266
   24.360   10.7636
   24.375   10.6056
   24.390   10.6793
   24.405   11.0163
   24.420   11.0163
   24.435   10.7109
   24.450   11.0058
   24.465   10.5319
   24.480   10.0474
   24.495   10.7004
   24.510   11.0163
   24.525   10.5003
   24.540   10.9005
   24.555   10.9531
   24.570   10.7004
   24.585   11.1111
   24.600   10.5845
   24.615   10.8689
   24.630   11.0900
   24.645   10.7636
   24.660   10.6266
   24.675   10.7214
   24.690   11.0585
   24.705   10.9215
   24.720   10.9321
   24.735   11.2586
   24.750   11.3217
   24.765   10.9742
   24.780   10.8478
   24.795   10.7004
   24.810   10.7004
   24.825   11.1532
   24.840   11.3639
   24.855   11.7536
   24.870   11.7430
   24.885   11.5429
   24.900   11.2796
   24.915   11.6798
   24.930   10.9426
   24.945   10.9110
   24.960   10.6582
   24.975   10.8268
   24.990   10.7636
   25.005   11.1848
   25.020   10.9637
   25.035   11.3007
   25.050   11.1006
   25.065   10.7425
   25.080   10.7425
   25.095   10.6688
   25.110   10.6477
   25.125   10.9531
   25.140   11.1322
   25.155   11.1848
   25.170   11.0795
   25.185   11.2480
   25.200   10.5635
   25.215   10.6266
   25.230   11.2270
   25.245   11.0585
   25.260   11.0269
   25.275   11.0585
   25.290   11.3639
   25.305   11.3849
   25.320   11.1954
   25.335   10.7952
   25.350   11.0795
   25.365   11.2902
   25.380   10.9110
   25.395   10.9110
   25.410   11.2375
   25.425   10.6582
   25.440   10.4687
   25.455   10.6582
   25.470   10.7846
   25.485   11.0795
   25.500   11.3639
   25.515   10.7636
   25.530   11.7220
   25.545   11.5219
   25.560   11.0690
   25.575   11.2902
   25.590   11.0479
   25.605   11.1216
   25.620   10.7846
   25.635   11.1532
   25.650   10.9110
   25.665   11.4271
   25.680   11.0795
   25.695   11.7536
   25.710   10.9321
   25.725   11.2691
   25.740   11.3007
   25.755   10.9742
   25.770   10.9426
   25.785   11.0269
   25.800   10.8689
   25.815   11.3955
   25.830   11.2796
   25.845   11.0269
   25.860   11.4692
   25.875   10.9953
   25.890   11.6904
   25.905   10.9953
   25.920   11.2270
   25.935   11.2902
   25.950   11.3217
   25.965   11.5429
   25.980   11.1111
   25.995   11.8273
   26.010   11.5113
   26.025   11.6588
   26.040   11.2059
   26.055   11.4797
   26.070   11.3955
   26.085   11.7957
   26.100   11.1427
   26.115   11.5008
   26.130   11.4481
   26.145   11.9642
   26.160   12.1538
   26.175   11.4797
   26.190   11.6166
   26.205   12.1538
   26.220   11.8905
   26.235   11.4481
   26.250   11.5008
   26.265   11.9642
   26.280   11.9431
   26.295   11.3744
   26.310   11.0374
   26.325   11.2270
   26.340   11.2586
   26.355   11.3112
   26.370   11.6904
   26.385   11.3744
   26.400   11.6798
   26.415   11.7220
   26.430   12.0063
   26.445   11.4271
   26.460   11.1322
   26.475   11.1954
   26.490   11.4692
   26.505   11.1638
   26.520   10.9531
   26.535   11.3955
   26.550   11.3323
   26.565   11.7852
   26.580   11.2164
   26.595   11.4692
   26.610   11.3849
   26.625   11.2164
   26.640   10.7214
   26.655   11.1532
   26.670   11.3849
   26.685   12.1011
   26.700   11.6904
   26.715   11.8799
   26.730   11.6904
   26.745   11.9115
   26.760   12.0063
   26.775   11.8167
   26.790   11.5640
   26.805   11.3744
   26.820   11.8167
   26.835   11.7220
   26.850   11.6693
   26.865   11.9853
   26.880   11.7746
   26.895   11.4481
   26.910   11.6061
   26.925   12.0800
   26.940   12.0063
   26.955   11.9958
   26.970   11.8483
   26.985   11.7220
   27.000   11.9221
   27.015   11.9221
   27.030   11.9958
   27.045   11.9747
   27.060   11.7325
   27.075   11.8062
   27.090   11.8589
   27.105   11.3955
   27.120   12.0590
   27.135   11.9115
   27.150   11.9326
   27.165   12.2275
   27.180   11.6166
   27.195   12.4065
   27.210   11.5429
   27.225   11.9747
   27.240   11.8378
   27.255   12.0063
   27.270   11.7430
   27.285   11.4587
   27.300   11.5113
   27.315   12.1222
   27.330   11.3323
   27.345   11.3639
   27.360   11.5745
   27.375   11.9326
   27.390   11.7325
   27.405   11.3849
   27.420   11.3955
   27.435   11.2480
   27.450   11.9431
   27.465   11.5219
   27.480   11.4692
   27.495   11.4587
   27.510   11.1954
   27.525   11.4271
   27.540   11.1848
   27.555   11.5534
   27.570   11.6166
   27.585   11.8589
   27.600   11.5850
   27.615   11.1743
   27.630   11.6693
   27.645   11.6377
   27.660   11.6798
   27.675   11.0795
   27.690   11.6904
   27.705   11.5324
   27.720   11.4692
   27.735   11.4587
   27.750   11.6904
   27.765   11.3217
   27.780   11.1111
   27.795   11.1638
   27.810   11.2586
   27.825   11.2059
   27.840   11.2270
   27.855   11.2375
   27.870   11.8483
   27.885   11.3849
   27.900   11.5324
   27.915   11.0585
   27.930   11.1848
   27.945   11.2691
   27.960   11.1954
   27.975   11.2059
   27.990   10.9637
   28.005   11.4165
   28.020   11.1111
   28.035   11.1954
   28.050   11.4060
   28.065   11.4165
   28.080   11.1216
   28.095   10.7109
   28.110   10.5108
   28.125   10.6477
   28.140   11.3323
   28.155   11.1532
   28.170   10.6477
   28.185   11.1532
   28.200   10.4687
   28.215   10.3212
   28.230   10.8478
   28.245   10.1632
   28.260   10.9110
   28.275   10.9426
   28.290   11.6693
   28.305   11.3112
   28.320   11.0690
   28.335   10.4687
   28.350   10.6688
   28.365   10.3844
   28.380   11.0269
   28.395   11.4060
   28.410   10.5213
   28.425   10.7952
   28.440   10.4371
   28.455   10.6372
   28.470   10.6582
   28.485   10.7109
   28.500   10.3002
   28.515   10.7320
   28.530   11.2164
   28.545   10.2791
   28.560   10.8899
   28.575   11.1532
   28.590   10.6266
   28.605   10.2475
   28.620   10.4792
   28.635   10.7214
   28.650   10.6582
   28.665   10.4476
   28.680   11.0269
   28.695   10.4687
   28.710   11.0058
   28.725   10.9742
   28.740   10.4265
   28.755    9.9947
   28.770   10.4371
   28.785   10.5951
   28.800   11.0163
   28.815   11.1111
   28.830   11.1006
   28.845   10.6477
   28.860   10.3739
   28.875   10.5108
   28.890   11.1954
   28.905   11.2586
   28.920   10.7952
   28.935   10.8689
   28.950   10.8583
   28.965   10.6056
   28.980   10.7846
   28.995   10.6793
   29.010   11.0900
   29.025   10.5424
   29.040   10.5213
   29.055   10.7952
   29.070   10.6477
   29.085   10.7636
   29.100   10.4792
   29.115   10.8583
   29.130   10.5108
   29.145   10.3318
   29.160   10.5003
   29.175   10.1632
   29.190   10.5845
   29.205   10.5845
   29.220   10.5845
   29.235   10.4687
   29.250   10.6582
   29.265   10.7952
   29.280   10.7004
   29.295   10.7425
   29.310   10.5003
   29.325   10.6793
   29.340   10.5213
   29.355   10.6793
   29.370   10.2686
   29.385   10.6793
   29.400   11.0163
   29.415   10.6477
   29.430   10.5529
   29.445   10.5319
   29.460   10.3949
   29.475   10.5845
   29.490   10.3949
   29.505   10.2054
   29.520   10.4476
   29.535   10.5003
   29.550   10.8583
   29.565   10.5003
   29.580   10.5635
   29.595   10.5424
   29.610   10.8268
   29.625   10.6898
   29.640   10.4055
   29.655   10.3739
   29.670   10.5108
   29.685   10.5635
   29.700   10.1001
   29.715   10.2896
   29.730   10.1106
   29.745   10.1422
   29.760   10.6582
   29.775   10.7952
   29.790   10.2896
   29.805   10.2370
   29.820   10.0895
   29.835   10.4792
   29.850   10.2791
   29.865   10.3528
   29.880    9.9842
   29.895    9.6156
   29.910   10.3633
   29.925   10.4160
   29.940   10.9637
   29.955   10.6056
   29.970   10.4160
   29.985   10.1316
   30.000   10.2370
   30.015   10.3423
   30.030   10.3107
   30.045   10.3528
   30.060   10.4476
   30.075   10.1843
   30.090   10.3318
   30.105   10.3844
   30.120   10.6372
   30.135   10.4687
   30.150   10.2896
   30.165   10.7530
   30.180   10.0369
   30.195   10.5108
   30.210   10.4055
   30.225   10.3318
   30.240   10.4581
   30.255   10.6793
   30.270   10.5424
   30.285   10.4581
   30.300   10.6266
   30.315   10.4792
   30.330   10.0053
   30.345   10.1948
   30.360   10.6477
   30.375   10.0474
   30.390   10.2791
   30.405   10.2159
   30.420   10.1422
   30.435    9.9105
   30.450   10.0895
   30.465    9.8999
   30.480    9.9315
   30.495   10.3107
   30.510   10.0685
   30.525   10.1843
   30.540   10.0685
   30.555   10.0263
   30.570    9.8684
   30.585   10.4687
   30.600    9.7841
   30.615   10.2054
   30.630   10.3107
   30.645   10.6477
   30.660   10.8794
   30.675   10.7109
   30.690   10.0263
   30.705    9.9737
   30.720   10.2159
   30.735   10.4055
   30.750   10.4476
   30.765   10.2896
   30.780   10.1422
   30.795    9.5840
   30.810   10.5529
   30.825   10.0369
   30.840   10.0579
   30.855   10.2159
   30.870   10.4265
   30.885   10.1632
   30.900   10.3318
   30.915   10.3844
   30.930   10.6793
   30.945   10.0369
   30.960    9.8157
   30.975   10.4581
   30.990   10.6582
   31.005   10.1843
   31.020   10.1948
   31.035   10.1738
   31.050    9.8578
   31.065    9.8473
   31.080   10.6161
   31.095   10.1422
   31.110   10.2370
   31.125   10.0579
   31.140   10.3844
   31.155   10.0263
   31.170   10.1948
   31.185    9.9737
   31.200    9.9421
   31.215   10.0685
   31.230   10.0895
   31.245   10.5845
   31.260    9.9947
   31.275    9.8684
   31.290   10.5003
   31.305   10.0790
   31.320   10.0369
   31.335   10.2475
   31.350   10.3949
   31.365   10.0158
   31.380   10.4160
   31.395    9.9210
   31.410    9.9526
   31.425   10.1211
   31.440   10.4476
   31.455   10.7214
   31.470   10.1422
   31.485   10.3318
   31.500    9.8894
   31.515    9.9737
   31.530    9.9105
   31.545   10.0053
   31.560    9.8999
   31.575    9.8684
   31.590    9.9737
   31.605   10.3633
   31.620   10.3318
   31.635   10.2791
   31.650   10.8478
   31.665   10.3739
   31.680   10.4897
   31.695   10.7320
   31.710   10.1632
   31.725   10.3739
   31.740    9.8473
   31.755    9.4471
   31.770    9.8684
   31.785   10.0474
   31.800   10.0158
   31.815   10.4055
   31.830   10.8899
   31.845   10.2475
   31.860   10.1632
   31.875   10.1422
   31.890   10.0790
   31.905   10.2264
   31.920    9.9842
   31.935   10.0579
   31.950   10.6793
   31.965   10.7636
   31.980   10.2580
   31.995   10.1211
   32.010   10.2791
   32.025   10.8162
   32.040    9.9631
   32.055   10.1738
   32.070    9.8789
   32.085   10.1422
   32.100    9.8789
   32.115   10.1738
   32.130   10.1948
   32.145    9.6472
   32.160    9.8157
   32.175   10.0685
   32.190   10.3212
   32.205    9.6261
   32.220   10.1106
   32.235   10.2370
   32.250   10.4160
   32.265   10.0263
   32.280   10.0474
   32.295   10.1843
   32.310   10.1948
   32.325   10.3528
   32.340   10.7530
   32.355   10.5424
   32.370   10.0895
   32.385   10.1422
   32.400   10.2370
   32.415   10.4265
   32.430    9.9947
   32.445   10.0474
   32.460   10.1527
   32.475   10.2896
   32.490    9.9737
   32.505   10.0895
   32.520   10.3002
   32.535   10.2475
   32.550   10.2054
   32.565    9.9526
   32.580   10.0158
   32.595    9.8368
   32.610   10.4371
   32.625    9.9737
   32.640   10.1001
   32.655   10.2159
   32.670    9.9947
   32.685    9.8684
   32.700    9.8999
   32.715   10.0369
   32.730   10.1738
   32.745   10.3739
   32.760   10.2686
   32.775   10.1738
   32.790    9.7736
   32.805    9.8473
   32.820   10.1001
   32.835   10.6372
   32.850   10.1422
   32.865    9.7841
   32.880    9.8894
   32.895   10.3949
   32.910   10.1211
   32.925   10.1738
   32.940   10.4687
   32.955    9.9421
   32.970   10.3423
   32.985    9.5313
   33.000   10.0158
   33.015   10.2264
   33.030   10.4792
   33.045    9.7841
   33.060   10.0053
   33.075    9.5735
   33.090    9.7314
   33.105   10.2264
   33.120   10.2791
   33.135   10.0579
   33.150    9.7314
   33.165    9.8157
   33.180   10.3212
   33.195    9.8999
   33.210   10.2159
   33.225   10.3002
   33.240   10.2896
   33.255   10.3844
   33.270    9.9526
   33.285   10.2580
   33.300   10.3844
   33.315    9.8368
   33.330    9.6156
   33.345   10.0158
   33.360   10.3318
   33.375    9.7104
   33.390   10.6477
   33.405   10.0369
   33.420    9.9842
   33.435    9.9105
   33.450   10.0263
   33.465   10.2686
   33.480   10.4792
   33.495   10.2475
   33.510    9.6156
   33.525   10.1738
   33.540   10.1422
   33.555   10.0579
   33.570   10.2159
   33.585   10.2054
   33.600   10.1843
   33.615   10.2686
   33.630   10.1106
   33.645   10.3002
   33.660    9.9421
   33.675   10.2159
   33.690   10.1527
   33.705    9.6577
   33.720    9.8578
   33.735    9.5419
   33.750    9.9315
   33.765   10.2580
   33.780    9.6156
   33.795    9.9315
   33.810   10.5635
   33.825   10.1316
   33.840   10.0474
   33.855   10.1106
   33.870    9.9315
   33.885   10.1948
   33.900    9.9631
   33.915    9.7841
   33.930   10.2370
   33.945    9.8894
   33.960   10.6477
   33.975   10.0895
   33.990   10.1948
   34.005    9.8999
   34.020    9.9947
   34.035   10.4160
   34.050    9.8052
   34.065    9.6788
   34.080   10.2475
   34.095   10.0685
   34.110    9.6893
   34.125    9.8368
   34.140    9.5735
   34.155    9.6156
   34.170   10.3528
   34.185   10.1948
   34.200   10.1001
   34.215   10.5740
   34.230   10.3423
   34.245   10.1948
   34.260   10.0474
   34.275   10.1211
   34.290    9.7420
   34.305    9.6682
   34.320    9.6893
   34.335   10.6056
   34.350   10.4160
   34.365   10.1316
   34.380    9.7314
   34.395    9.9210
   34.410    9.9105
   34.425    9.5629
   34.440    9.9315
   34.455    9.4997
   34.470   10.1316
   34.485    9.6472
   34.500   10.4581
   34.515   10.1211
   34.530    9.9947
   34.545    9.5840
   34.560    9.5524
   34.575    9.3944
   34.590   10.1211
   34.605    9.5629
   34.620    9.6156
   34.635    9.8052
   34.650    9.8789
   34.665   10.0053
   34.680   10.0053
   34.695   10.1738
   34.710    9.7525
   34.725    9.6577
   34.740    9.9631
   34.755   10.0158
   34.770    9.9210
   34.785    9.8999
   34.800    9.5629
   34.815    9.8999
   34.830    9.8262
   34.845    9.8368
   34.860   10.5424
   34.875   10.4581
   34.890   10.2475
   34.905    9.9737
   34.920   10.0790
   34.935    9.8052
   34.950   10.1843
   34.965   10.0895
   34.980    9.7630
   34.995   10.3107
   35.010   10.0158
   35.025   10.2264
   35.040    9.8262
   35.055    9.6998
   35.070    9.3628
   35.085    9.7525
   35.100   10.0053
   35.115    9.8157
   35.130    9.5840
   35.145   10.0579
   35.160   10.1001
   35.175    9.7946
   35.190    9.7104
   35.205    9.4260
   35.220    9.5945
   35.235   10.0158
   35.250    9.9421
   35.265   10.0369
   35.280    9.8894
   35.295    9.8052
   35.310    9.6156
   35.325    9.8578
   35.340    9.7420
   35.355    9.8262
   35.370   10.4897
   35.385    9.9210
   35.400    9.9737
   35.415    9.3102
   35.430    9.5208
   35.445   10.2896
   35.460   10.2580
   35.475   10.1527
   35.490    9.4681
   35.505    9.8368
   35.520   10.0474
   35.535    9.7841
   35.550   10.2370
   35.565   10.2159
   35.580   10.1527
   35.595   10.4792
   35.610   10.2475
   35.625   10.5529
   35.640   10.5319
   35.655   10.0685
   35.670    9.6682
   35.685   10.0158
   35.700    9.9631
   35.715    9.7736
   35.730    9.4576
   35.745    9.6682
   35.760   10.2686
   35.775    9.9842
   35.790   10.1316
   35.805    9.8262
   35.820   10.3318
   35.835   10.1316
   35.850   10.1738
   35.865   10.1106
   35.880    9.6788
   35.895    9.4681
   35.910    9.5313
   35.925    9.9421
   35.940   10.3212
   35.955   10.4371
   35.970   10.0263
   35.985    9.9315
   36.000   10.2264
   36.015   10.0158
   36.030    9.7630
   36.045    9.5945
   36.060   10.5845
   36.075   10.3949
   36.090    9.6577
   36.105    9.7314
   36.120    9.9737
   36.135    9.9631
   36.150    9.7946
   36.165   10.1422
   36.180    9.6472
   36.195    9.4997
   36.210    9.9105
   36.225    9.4787
   36.240    9.5313
   36.255    9.8262
   36.270   10.2370
   36.285    9.6577
   36.300    9.4155
   36.315    9.8789
   36.330    9.7209
   36.345    9.7420
   36.360    9.0785
   36.375    9.2048
   36.390    9.6788
   36.405    9.4997
   36.420   10.0053
   36.435    9.5524
   36.450    9.3523
   36.465    9.6682
   36.480   10.1001
   36.495   10.1316
   36.510    9.8052
   36.525    9.9105
   36.540    9.9421
   36.555    9.6156
   36.570    9.9737
   36.585   10.0790
   36.600    9.5840
   36.615   10.0053
   36.630    9.8262
   36.645    9.4471
   36.660   10.3633
   36.675    9.8894
   36.690    9.5840
   36.705    9.8157
   36.720    9.7420
   36.735    9.4681
   36.750    9.6367
   36.765    9.7314
   36.780   10.4160
   36.795   10.0790
   36.810   10.0579
   36.825    9.8684
   36.840    9.8789
   36.855    9.8894
   36.870    9.9842
   36.885    9.8684
   36.900    9.5419
   36.915    9.7420
   36.930    9.5419
   36.945    9.6788
   36.960    9.6156
   36.975    9.8999
   36.990    9.7630
   37.005    9.9842
   37.020   10.0053
   37.035   10.1632
   37.050   10.0263
   37.065    9.9842
   37.080    9.9526
   37.095    9.4365
   37.110    9.9526
   37.125    9.9105
   37.140    9.7209
   37.155   10.1422
   37.170   10.0053
   37.185    9.4997
   37.200    9.7420
   37.215    9.7525
   37.230    9.4260
   37.245    9.0153
   37.260    9.5419
   37.275    9.8789
   37.290    9.6998
   37.305    9.5735
   37.320   10.0263
   37.335    9.9842
   37.350    9.6998
   37.365    9.6051
   37.380    9.8262
   37.395    9.3312
   37.410    9.6998
   37.425    9.8894
   37.440    9.3102
   37.455    9.7525
   37.470    9.8473
   37.485    9.6788
   37.500    9.5735
   37.515    9.8473
   37.530    9.5524
   37.545   10.3212
   37.560    9.8157
   37.575   10.1422
   37.590   10.0474
   37.605    9.7525
   37.620   10.1316
   37.635    9.8684
   37.650    9.9526
   37.665    9.6893
   37.680   10.1843
   37.695    9.8789
   37.710    9.7525
   37.725    9.9842
   37.740    9.8368
   37.755    9.7841
   37.770    9.2680
   37.785    9.8157
   37.800   10.2475
   37.815    9.4365
   37.830    9.8368
   37.845    9.9526
   37.860    9.8368
   37.875    9.8157
   37.890   10.0053
   37.905    9.6998
   37.920    9.5103
   37.935    9.3944
   37.950    9.7630
   37.965    9.2996
   37.980    9.4050
   37.995    9.3734
   38.010    9.3628
   38.025    9.4155
   38.040    9.7946
   38.055    9.5945
   38.070    9.4365
   38.085    9.3312
   38.100    9.3102
   38.115    9.3523
   38.130    9.5208
   38.145    9.9842
   38.160    9.7314
   38.175    9.7630
   38.190    9.7525
   38.205    9.3839
   38.220    9.9210
   38.235    9.7630
   38.250    9.2891
   38.265    9.1943
   38.280   10.1001
   38.295    9.8157
   38.310    9.8262
   38.325    9.9631
   38.340    9.4892
   38.355    9.2996
   38.370    9.8473
   38.385    9.9526
   38.400    9.3418
   38.415    9.6051
   38.430    9.6788
   38.445    9.4892
   38.460    8.9626
   38.475    9.6472
   38.490    9.5208
   38.505    9.9210
   38.520    9.7525
   38.535    9.9631
   38.550    9.5629
   38.565    9.4260
   38.580    9.8894
   38.595    9.9421
   38.610    9.5524
   38.625   10.0685
   38.640    9.4471
   38.655    9.7525
   38.670    9.8473
   38.685    9.6472
   38.700    9.5945
   38.715    9.5313
   38.730    8.9942
   38.745   10.0369
   38.760    9.3207
   38.775    9.3734
   38.790    9.7630
   38.805    9.8052
   38.820    9.6998
   38.835    9.9947
   38.850    9.6998
   38.865    9.4471
   38.880    9.3839
   38.895    9.5840
   38.910    9.5419
   38.925    9.8368
   38.940    9.3628
   38.955    9.6998
   38.970    9.0785
   38.985    9.3207
   39.000    9.4471
   39.015    9.5103
   39.030    9.4050
   39.045    9.8473
   39.060    9.4050
   39.075    9.9947
   39.090    9.4260
   39.105    9.9105
   39.120    9.9105
   39.135    9.7104
   39.150    9.7736
   39.165   10.0685
   39.180    9.8473
   39.195    9.6577
   39.210    9.7630
   39.225   10.1001
   39.240    9.6261
   39.255    9.4997
   39.270    9.5313
   39.285    9.6577
   39.300    9.6788
   39.315    9.6682
   39.330    9.6998
   39.345    9.9315
   39.360    9.1627
   39.375    9.5524
   39.390    9.4681
   39.405    8.8362
   39.420    9.3839
   39.435    9.5208
   39.450    9.5103
   39.465    9.6367
   39.480    9.3418
   39.495    9.7104
   39.510    9.1417
   39.525    9.7841
   39.540    9.5629
   39.555    9.7314
   39.570    9.4892
   39.585    9.4365
   39.600    9.7736
   39.615    9.4260
   39.630    9.0785
   39.645    9.3312
   39.660    9.3523
   39.675    9.4892
   39.690    9.7841
   39.705    9.8473
   39.720    9.7209
   39.735    9.9210
   39.750    9.5103
   39.765    9.8157
   39.780    9.6261
   39.795    9.5103
   39.810    9.7104
   39.825    9.9737
   39.840    9.9947
   39.855    9.8262
   39.870    9.4260
   39.885    9.6682
   39.900    9.3523
   39.915    9.4471
   39.930    9.4260
   39.945    9.6051
   39.960    9.6577
   39.975    9.3839
   39.990    9.7420
