    1.500   14.2426
    1.515   14.2189
    1.530   14.2672
    1.545   14.0802
    1.560   14.2145
    1.575   14.1250
    1.590   14.0311
    1.605   14.0214
    1.620   14.1294
    1.635   14.0442
    1.650   14.1390
    1.665   13.8564
    1.680   13.9837
    1.695   14.0741
    1.710   14.0671
    1.725   14.1759
    1.740   14.1057
    1.755   14.1636
    1.770   14.1934
    1.785   14.2663
    1.800   14.2970
    1.815   14.1987
    1.830   14.2979
    1.845   14.3918
    1.860   14.4927
    1.875   14.5305
    1.890   14.6551
    1.905   14.6533
    1.920   14.7762
    1.935   14.8552
    1.950   14.8877
    1.965   15.0412
    1.980   15.1141
    1.995   15.2677
    2.010   15.2194
    2.025   15.2563
    2.040   15.3835
    2.055   15.4230
    2.070   15.5801
    2.085   15.8224
    2.100   15.9531
    2.115   16.1234
    2.130   16.2533
    2.145   16.4078
    2.160   16.6570
    2.175   16.6447
    2.190   16.7834
    2.205   16.9194
    2.220   17.1941
    2.235   17.4241
    2.250   17.5619
    2.265   17.9121
    2.280   18.0042
    2.295   18.0893
    2.310   18.1789
    2.325   18.5343
    2.340   18.7923
    2.355   19.0074
    2.370   19.2812
    2.385   19.8297
    2.400   19.7253
    2.415   20.2010
    2.430   20.4915
    2.445   20.7197
    2.460   20.9654
    2.475   21.3990
    2.490   21.7764
    2.505   22.0906
    2.520   22.4293
    2.535   23.0577
    2.550   23.2464
    2.565   23.3720
    2.580   23.9582
    2.595   24.4673
    2.610   24.9096
    2.625   25.6170
    2.640   25.9909
    2.655   26.5675
    2.670   27.0572
    2.685   27.5320
    2.700   27.9331
    2.715   28.7116
    2.730   29.2338
    2.745   29.8201
    2.760   30.8425
    2.775   31.2296
    2.790   31.8878
    2.805   32.8655
    2.820   33.5089
    2.835   34.2610
    2.850   35.1334
    2.865   36.3402
    2.880   37.2345
    2.895   38.1271
    2.910   39.1803
    2.925   40.4871
    2.940   41.4955
    2.955   42.7909
    2.970   43.9872
    2.985   44.9368
    3.000   46.5578
    3.015   48.0937
    3.030   49.4286
    3.045   51.3209
    3.060   52.7918
    3.075   54.6990
    3.090   56.2779
    3.105   58.3044
    3.120   60.3116
    3.135   62.8840
    3.150   65.2299
    3.165   67.7286
    3.180   70.6837
    3.195   73.7142
    3.210   76.7579
    3.225   80.1158
    3.240   83.8432
    3.255   87.7014
    3.270   91.9028
    3.285   96.8957
    3.300  101.6816
    3.315  107.1564
    3.330  113.7432
    3.345  120.6100
    3.360  127.9612
    3.375  135.8618
    3.390  143.8424
    3.405  150.6293
    3.420  157.5303
    3.435  160.9373
    3.450  159.4365
    3.465  154.1645
    3.480  144.3681
    3.495  131.4429
    3.510  116.8527
    3.525  103.9231
    3.540   91.8650
    3.555   82.6549
    3.570   76.1892
    3.585   71.7184
    3.600   68.9161
    3.615   67.6216
    3.630   67.0757
    3.645   67.1941
    3.660   68.2149
    3.675   70.1676
    3.690   71.3586
    3.705   74.0679
    3.720   76.4551
    3.735   80.0957
    3.750   82.9603
    3.765   86.4850
    3.780   89.8973
    3.795   93.0384
    3.810   95.4300
    3.825   98.0112
    3.840   99.7490
    3.855  100.0544
    3.870   98.6115
    3.885   95.3791
    3.900   91.2831
    3.915   85.4485
    3.930   78.6388
    3.945   71.8255
    3.960   64.4023
    3.975   57.3249
    3.990   51.0541
    4.005   44.8174
    4.020   39.2531
    4.035   34.8956
    4.050   30.8654
    4.065   27.5391
    4.080   24.7156
    4.095   22.3863
    4.110   20.4195
    4.125   18.6423
    4.140   17.2503
    4.155   16.0514
    4.170   15.0105
    4.185   14.0574
    4.200   13.3746
    4.215   12.6470
    4.230   12.1371
    4.245   11.5341
    4.260   11.0532
    4.275   10.6302
    4.290   10.1299
    4.305    9.9114
    4.320    9.5384
    4.335    9.3637
    4.350    9.1548
    4.365    8.9222
    4.380    8.7037
    4.395    8.5659
    4.410    8.3175
    4.425    8.2973
    4.440    8.1446
    4.455    7.7830
    4.470    7.7093
    4.485    7.6944
    4.500    7.5943
    4.515    7.6084
    4.530    7.3881
    4.545    7.2213
    4.560    7.1827
    4.575    7.1274
    4.590    7.0888
    4.605    7.0502
    4.620    6.9747
    4.635    6.9107
    4.650    6.8317
    4.665    6.7518
    4.680    6.6877
    4.695    6.7184
    4.710    6.6131
    4.725    6.6447
    4.740    6.5903
    4.755    6.5420
    4.770    6.4437
    4.785    6.5719
    4.800    6.4639
    4.815    6.5377
    4.830    6.3946
    4.845    6.4446
    4.860    6.3700
    4.875    6.3683
    4.890    6.4236
    4.905    6.4394
    4.920    6.4183
    4.935    6.4007
    4.950    6.3305
    4.965    6.4411
    4.980    6.4288
    4.995    6.3709
    5.010    6.2761
    5.025    6.4315
    5.040    6.4964
    5.055    6.5148
    5.070    6.4867
    5.085    6.4657
    5.100    6.4200
    5.115    6.4938
    5.130    6.5166
    5.145    6.5508
    5.160    6.4973
    5.175    6.4516
    5.190    6.5543
    5.205    6.4560
    5.220    6.5324
    5.235    6.6649
    5.250    6.4095
    5.265    6.4209
    5.280    6.4613
    5.295    6.4157
    5.310    6.3533
    5.325    6.2796
    5.340    6.2261
    5.355    6.2296
    5.370    6.2217
    5.385    6.1541
    5.400    5.9909
    5.415    5.9619
    5.430    6.0585
    5.445    5.9207
    5.460    5.8882
    5.475    5.8891
    5.490    5.9417
    5.505    5.8926
    5.520    5.7943
    5.535    5.7320
    5.550    5.7811
    5.565    5.7767
    5.580    5.8004
    5.595    5.6688
    5.610    5.7293
    5.625    5.7065
    5.640    5.7688
    5.655    5.6688
    5.670    5.6135
    5.685    5.5907
    5.700    5.6179
    5.715    5.6591
    5.730    5.7223
    5.745    5.6995
    5.760    5.5854
    5.775    5.5336
    5.790    5.4783
    5.805    5.6679
    5.820    5.6837
    5.835    5.6618
    5.850    5.6512
    5.865    5.7232
    5.880    5.7355
    5.895    5.7399
    5.910    5.5915
    5.925    5.6679
    5.940    5.6732
    5.955    5.5872
    5.970    5.5994
    5.985    5.6389
    6.000    5.7364
    6.015    5.6591
    6.030    5.7671
    6.045    5.8285
    6.060    5.8636
    6.075    5.8083
    6.090    5.7741
    6.105    5.7328
    6.120    5.8970
    6.135    6.0470
    6.150    5.9681
    6.165    5.9628
    6.180    6.0927
    6.195    6.0927
    6.210    6.0848
    6.225    6.1094
    6.240    6.1032
    6.255    6.2103
    6.270    6.2471
    6.285    6.4753
    6.300    6.3472
    6.315    6.5965
    6.330    6.6974
    6.345    6.8211
    6.360    6.9115
    6.375    6.9203
    6.390    6.9265
    6.405    7.0704
    6.420    7.2766
    6.435    7.4100
    6.450    7.4355
    6.465    7.6321
    6.480    7.7181
    6.495    8.0814
    6.510    8.2377
    6.525    8.4536
    6.540    8.6115
    6.555    8.8994
    6.570    8.9415
    6.585    9.2400
    6.600    9.4708
    6.615    9.8464
    6.630   10.4081
    6.645   10.4924
    6.660   10.9136
    6.675   11.4288
    6.690   11.9826
    6.705   12.5303
    6.720   12.8910
    6.735   13.7283
    6.750   14.4014
    6.765   15.0421
    6.780   16.0541
    6.795   16.8527
    6.810   18.0762
    6.825   18.9916
    6.840   20.2414
    6.855   21.6693
    6.870   23.3017
    6.885   24.5761
    6.900   25.7214
    6.915   26.8782
    6.930   27.2152
    6.945   27.1915
    6.960   26.2015
    6.975   24.7938
    6.990   22.7883
    7.005   20.4406
    7.020   17.9366
    7.035   15.8750
    7.050   13.9521
    7.065   12.3995
    7.080   11.1445
    7.095   10.3142
    7.110    9.7244
    7.125    9.1926
    7.140    8.7529
    7.155    8.4422
    7.170    8.2780
    7.185    8.0867
    7.200    7.8980
    7.215    7.9384
    7.230    7.8559
    7.245    7.7839
    7.260    7.8050
    7.275    7.9963
    7.290    8.0095
    7.305    7.9647
    7.320    8.0174
    7.335    8.2517
    7.350    8.3553
    7.365    8.5545
    7.380    8.4588
    7.395    8.7888
    7.410    9.0153
    7.425    9.2636
    7.440    9.3119
    7.455    9.6507
    7.470    9.8701
    7.485   10.4415
    7.500   10.7065
    7.515   10.8627
    7.530   11.4025
    7.545   11.9800
    7.560   12.2371
    7.575   12.7137
    7.590   13.4360
    7.605   13.9108
    7.620   14.5673
    7.635   15.4230
    7.650   16.0576
    7.665   16.8519
    7.680   17.4074
    7.695   18.1815
    7.710   18.8985
    7.725   19.3312
    7.740   19.9816
    7.755   20.3616
    7.770   20.9198
    7.785   21.1840
    7.800   20.9663
    7.815   20.8066
    7.830   20.3625
    7.845   19.6296
    7.860   18.9082
    7.875   18.3377
    7.890   17.3591
    7.905   16.4385
    7.920   15.5705
    7.935   14.5454
    7.950   13.5826
    7.965   12.8506
    7.980   12.1266
    7.995   11.4315
    8.010   10.7600
    8.025   10.2598
    8.040    9.6261
    8.055    9.2619
    8.070    8.7915
    8.085    8.4071
    8.100    7.9910
    8.115    7.8445
    8.130    7.5092
    8.145    7.2863
    8.160    7.1230
    8.175    7.0309
    8.190    6.9449
    8.205    6.7632
    8.220    6.4929
    8.235    6.5201
    8.250    6.3375
    8.265    6.3639
    8.280    6.1980
    8.295    6.1155
    8.310    5.9593
    8.325    5.9628
    8.340    5.9751
    8.355    5.9259
    8.370    5.9338
    8.385    5.8382
    8.400    5.8276
    8.415    5.7311
    8.430    5.7232
    8.445    5.5547
    8.460    5.6117
    8.475    5.5248
    8.490    5.5073
    8.505    5.4379
    8.520    5.4169
    8.535    5.4362
    8.550    5.3555
    8.565    5.3633
    8.580    5.3800
    8.595    5.2914
    8.610    5.3107
    8.625    5.2879
    8.640    5.2598
    8.655    5.2291
    8.670    5.2572
    8.685    5.1632
    8.700    5.1431
    8.715    5.1220
    8.730    5.1501
    8.745    5.1940
    8.760    5.1352
    8.775    5.0579
    8.790    5.0412
    8.805    5.0781
    8.820    5.1027
    8.835    5.0764
    8.850    5.1641
    8.865    5.1826
    8.880    5.0079
    8.895    4.9710
    8.910    5.0553
    8.925    4.9228
    8.940    4.9421
    8.955    4.9895
    8.970    5.0395
    8.985    4.9974
    9.000    4.9842
    9.015    5.0202
    9.030    5.0386
    9.045    5.0395
    9.060    4.9754
    9.075    4.8341
    9.090    4.8526
    9.105    4.9219
    9.120    5.0035
    9.135    5.0360
    9.150    4.8403
    9.165    4.8578
    9.180    4.9561
    9.195    4.8438
    9.210    4.9017
    9.225    4.8868
    9.240    4.9596
    9.255    4.8684
    9.270    4.8666
    9.285    4.8008
    9.300    4.8403
    9.315    4.8912
    9.330    4.9087
    9.345    4.8964
    9.360    4.9324
    9.375    5.0255
    9.390    5.0088
    9.405    4.9105
    9.420    4.9289
    9.435    4.8692
    9.450    4.8596
    9.465    4.8587
    9.480    4.7815
    9.495    4.8587
    9.510    4.8815
    9.525    4.8043
    9.540    4.8227
    9.555    4.8806
    9.570    4.7981
    9.585    4.8411
    9.600    4.9386
    9.615    4.9588
    9.630    4.8938
    9.645    4.8341
    9.660    4.8771
    9.675    4.8017
    9.690    4.9087
    9.705    4.8403
    9.720    4.8060
    9.735    4.8060
    9.750    4.8236
    9.765    4.8403
    9.780    4.7920
    9.795    4.7955
    9.810    4.8306
    9.825    4.7613
    9.840    4.8780
    9.855    4.9280
    9.870    4.8438
    9.885    4.8122
    9.900    4.8771
    9.915    4.8929
    9.930    4.8315
    9.945    4.7999
    9.960    4.8605
    9.975    4.8297
    9.990    4.8297
   10.005    4.9307
   10.020    4.9509
   10.035    4.9280
   10.050    4.8640
   10.065    4.8648
   10.080    4.8885
   10.095    4.8920
   10.110    5.0097
   10.125    5.0509
   10.140    4.9184
   10.155    4.9333
   10.170    4.9210
   10.185    4.9491
   10.200    4.9482
   10.215    4.9816
   10.230    5.0255
   10.245    5.0746
   10.260    5.0105
   10.275    5.0781
   10.290    5.2001
   10.305    5.2528
   10.320    5.2124
   10.335    5.2343
   10.350    5.2264
   10.365    5.3853
   10.380    5.3879
   10.395    5.3835
   10.410    5.4353
   10.425    5.3862
   10.440    5.4836
   10.455    5.4801
   10.470    5.4687
   10.485    5.2747
   10.500    5.2765
   10.515    5.2335
   10.530    5.0641
   10.545    5.0509
   10.560    5.1018
   10.575    4.9544
   10.590    5.0097
   10.605    4.9614
   10.620    5.0386
   10.635    4.9561
   10.650    4.8745
   10.665    4.9833
   10.680    4.9763
   10.695    4.9070
   10.710    4.9368
   10.725    4.9324
   10.740    4.7507
   10.755    4.8499
   10.770    4.8850
   10.785    4.9157
   10.800    5.0342
   10.815    4.9333
   10.830    4.8912
   10.845    4.9008
   10.860    4.9017
   10.875    4.8806
   10.890    5.0070
   10.905    5.0149
   10.920    4.9061
   10.935    4.9631
   10.950    4.9860
   10.965    4.9544
   10.980    5.0342
   10.995    5.0570
   11.010    5.0334
   11.025    4.9333
   11.040    4.9008
   11.055    5.0527
   11.070    4.9877
   11.085    5.0386
   11.100    5.0518
   11.115    5.0325
   11.130    5.0799
   11.145    5.1685
   11.160    5.0676
   11.175    4.9710
   11.190    5.1843
   11.205    5.1553
   11.220    5.1483
   11.235    5.1378
   11.250    5.1799
   11.265    5.1738
   11.280    5.2361
   11.295    5.2484
   11.310    5.3168
   11.325    5.2545
   11.340    5.3546
   11.355    5.3862
   11.370    5.4125
   11.385    5.4406
   11.400    5.5082
   11.415    5.4634
   11.430    5.5608
   11.445    5.6705
   11.460    5.5819
   11.475    5.7750
   11.490    5.7934
   11.505    5.7618
   11.520    5.8074
   11.535    5.8329
   11.550    5.9180
   11.565    6.0093
   11.580    6.1339
   11.595    6.2147
   11.610    6.2823
   11.625    6.3498
   11.640    6.4394
   11.655    6.3340
   11.670    6.5561
   11.685    6.6675
   11.700    6.6052
   11.715    6.5306
   11.730    6.6474
   11.745    6.5289
   11.760    6.5815
   11.775    6.6096
   11.790    6.5192
   11.805    6.5148
   11.820    6.4244
   11.835    6.4148
   11.850    6.3963
   11.865    6.2577
   11.880    6.1778
   11.895    6.0628
   11.910    6.0409
   11.925    6.0119
   11.940    5.9294
   11.955    5.8294
   11.970    5.7443
   11.985    5.6811
   12.000    5.5591
   12.015    5.5362
   12.030    5.6249
   12.045    5.6284
   12.060    5.4125
   12.075    5.4020
   12.090    5.4766
   12.105    5.4037
   12.120    5.3765
   12.135    5.3423
   12.150    5.2282
   12.165    5.2589
   12.180    5.3116
   12.195    5.2958
   12.210    5.3309
   12.225    5.2993
   12.240    5.3019
   12.255    5.2879
   12.270    5.1975
   12.285    5.1913
   12.300    5.2765
   12.315    5.3037
   12.330    5.1343
   12.345    5.2027
   12.360    5.1290
   12.375    5.1799
   12.390    5.1597
   12.405    5.1220
   12.420    5.1983
   12.435    5.1808
   12.450    5.1466
   12.465    5.1624
   12.480    5.2598
   12.495    5.1220
   12.510    5.1352
   12.525    5.1571
   12.540    5.1843
   12.555    5.0957
   12.570    5.0992
   12.585    5.2484
   12.600    5.2422
   12.615    5.2115
   12.630    5.0676
   12.645    5.1395
   12.660    5.1764
   12.675    5.1817
   12.690    5.2835
   12.705    5.2027
   12.720    5.2080
   12.735    5.2493
   12.750    5.2229
   12.765    5.2958
   12.780    5.2299
   12.795    5.2203
   12.810    5.2589
   12.825    5.2800
   12.840    5.3045
   12.855    5.2133
   12.870    5.2326
   12.885    5.3590
   12.900    5.3695
   12.915    5.3555
   12.930    5.3344
   12.945    5.2414
   12.960    5.3449
   12.975    5.3344
   12.990    5.3423
   13.005    5.3160
   13.020    5.3835
   13.035    5.3151
   13.050    5.3467
   13.065    5.4099
   13.080    5.3002
   13.095    5.4564
   13.110    5.4344
   13.125    5.4011
   13.140    5.3563
   13.155    5.3511
   13.170    5.4520
   13.185    5.4362
   13.200    5.4695
   13.215    5.4573
   13.230    5.3414
   13.245    5.3300
   13.260    5.3730
   13.275    5.4081
   13.290    5.4581
   13.305    5.3160
   13.320    5.3361
   13.335    5.3476
   13.350    5.2791
   13.365    5.2949
   13.380    5.3344
   13.395    5.3195
   13.410    5.2361
   13.425    5.2879
   13.440    5.2808
   13.455    5.2282
   13.470    5.1290
   13.485    5.1290
   13.500    5.0307
   13.515    5.1439
   13.530    5.1676
   13.545    5.1729
   13.560    5.1720
   13.575    5.1352
   13.590    5.1334
   13.605    5.1431
   13.620    5.1080
   13.635    5.0623
   13.650    5.0369
   13.665    5.0570
   13.680    5.1237
   13.695    5.1001
   13.710    5.0799
   13.725    5.1580
   13.740    4.9509
   13.755    4.9517
   13.770    5.0061
   13.785    5.0807
   13.800    5.0105
   13.815    4.9772
   13.830    5.0026
   13.845    4.9552
   13.860    4.8763
   13.875    4.9298
   13.890    4.9833
   13.905    4.9096
   13.920    4.9438
   13.935    4.8657
   13.950    4.9412
   13.965    4.9544
   13.980    4.9315
   13.995    4.8745
   14.010    4.9702
   14.025    4.9122
   14.040    4.8929
   14.055    4.9473
   14.070    4.9930
   14.085    4.9315
   14.100    4.9438
   14.115    4.8666
   14.130    4.9465
   14.145    4.9903
   14.160    4.8569
   14.175    4.9684
   14.190    4.9588
   14.205    5.0044
   14.220    4.8929
   14.235    4.9201
   14.250    4.9105
   14.265    4.9245
   14.280    4.8306
   14.295    4.8991
   14.310    4.9210
   14.325    4.9754
   14.340    4.9096
   14.355    4.9043
   14.370    4.8043
   14.385    4.8973
   14.400    5.0079
   14.415    4.9456
   14.430    4.8956
   14.445    4.9614
   14.460    4.8780
   14.475    4.9061
   14.490    4.9017
   14.505    4.8912
   14.520    4.9280
   14.535    5.0386
   14.550    4.9675
   14.565    4.9570
   14.580    4.8789
   14.595    4.8394
   14.610    4.8929
   14.625    4.9359
   14.640    4.9974
   14.655    4.9588
   14.670    4.9921
   14.685    4.9412
   14.700    4.9965
   14.715    4.9877
   14.730    4.9816
   14.745    4.9473
   14.760    5.0061
   14.775    4.9570
   14.790    4.9596
   14.805    5.0518
   14.820    5.0202
   14.835    4.9737
   14.850    4.9789
   14.865    5.0255
   14.880    4.9728
   14.895    5.0439
   14.910    5.0360
   14.925    5.0755
   14.940    4.9824
   14.955    4.9860
   14.970    5.1246
   14.985    5.1896
   15.000    5.0790
   15.015    5.1422
   15.030    5.1562
   15.045    5.1799
   15.060    5.1352
   15.075    5.1992
   15.090    5.2580
   15.105    5.2352
   15.120    5.1395
   15.135    5.1843
   15.150    5.1431
   15.165    5.0913
   15.180    5.2817
   15.195    5.3353
   15.210    5.3326
   15.225    5.2598
   15.240    5.2651
   15.255    5.2317
   15.270    5.2466
   15.285    5.2914
   15.300    5.2019
   15.315    5.2598
   15.330    5.2519
   15.345    5.3081
   15.360    5.2370
   15.375    5.2291
   15.390    5.2791
   15.405    5.3405
   15.420    5.2124
   15.435    5.2808
   15.450    5.4020
   15.465    5.3177
   15.480    5.3730
   15.495    5.2756
   15.510    5.4081
   15.525    5.3598
   15.540    5.3423
   15.555    5.3598
   15.570    5.3967
   15.585    5.3291
   15.600    5.3660
   15.615    5.3598
   15.630    5.3993
   15.645    5.4880
   15.660    5.3528
   15.675    5.3695
   15.690    5.3765
   15.705    5.4081
   15.720    5.3519
   15.735    5.3633
   15.750    5.3633
   15.765    5.3186
   15.780    5.3318
   15.795    5.1589
   15.810    5.1457
   15.825    5.2045
   15.840    5.2624
   15.855    5.1913
   15.870    5.1861
   15.885    5.2159
   15.900    5.1887
   15.915    5.1360
   15.930    5.1896
   15.945    5.1194
   15.960    5.0895
   15.975    5.0430
   15.990    5.0281
   16.005    5.0430
   16.020    4.9465
   16.035    5.0562
   16.050    5.0149
   16.065    4.9640
   16.080    4.9807
   16.095    4.9342
   16.110    4.9570
   16.125    4.9245
   16.140    5.0474
   16.155    5.0105
   16.170    4.9140
   16.185    4.8455
   16.200    4.8956
   16.215    4.8859
   16.230    4.8806
   16.245    4.8657
   16.260    4.8368
   16.275    4.7551
   16.290    4.9096
   16.305    4.8104
   16.320    4.8806
   16.335    4.8148
   16.350    4.8640
   16.365    4.8473
   16.380    4.8201
   16.395    4.8745
   16.410    4.8271
   16.425    4.7771
   16.440    4.7665
   16.455    4.7455
   16.470    4.7885
   16.485    4.7341
   16.500    4.7885
   16.515    4.7235
   16.530    4.7806
   16.545    4.9026
   16.560    4.8894
   16.575    4.8289
   16.590    4.7569
   16.605    4.7859
   16.620    4.8078
   16.635    4.7595
   16.650    4.8508
   16.665    4.7981
   16.680    4.7534
   16.695    4.8262
   16.710    4.8262
   16.725    4.7885
   16.740    4.8148
   16.755    4.7744
   16.770    4.7841
   16.785    4.8297
   16.800    4.7955
   16.815    4.9245
   16.830    4.7859
   16.845    4.8078
   16.860    4.8999
   16.875    4.8719
   16.890    4.8745
   16.905    4.8376
   16.920    4.9517
   16.935    4.8780
   16.950    4.8841
   16.965    4.8727
   16.980    4.7604
   16.995    4.8253
   17.010    4.7973
   17.025    4.9517
   17.040    4.8964
   17.055    4.9631
   17.070    4.9447
   17.085    4.9157
   17.100    4.9842
   17.115    4.9078
   17.130    4.8166
   17.145    4.9210
   17.160    4.9789
   17.175    4.9245
   17.190    4.9087
   17.205    4.9772
   17.220    4.9096
   17.235    4.9921
   17.250    4.9368
   17.265    5.0009
   17.280    4.9939
   17.295    5.0544
   17.310    5.0334
   17.325    4.9579
   17.340    5.0500
   17.355    5.1237
   17.370    5.1264
   17.385    5.2475
   17.400    5.2045
   17.415    5.2642
   17.430    5.1659
   17.445    5.2835
   17.460    5.2993
   17.475    5.3203
   17.490    5.3291
   17.505    5.3423
   17.520    5.2931
   17.535    5.2352
   17.550    5.2045
   17.565    5.1764
   17.580    5.2589
   17.595    5.2282
   17.610    5.2923
   17.625    5.2089
   17.640    5.1694
   17.655    5.1606
   17.670    5.2291
   17.685    5.2835
   17.700    5.2080
   17.715    5.1738
   17.730    5.2062
   17.745    5.1545
   17.760    5.1992
   17.775    5.1948
   17.790    5.1782
   17.805    5.3221
   17.820    5.2457
   17.835    5.3502
   17.850    5.2256
   17.865    5.2931
   17.880    5.3256
   17.895    5.2554
   17.910    5.2598
   17.925    5.2238
   17.940    5.1580
   17.955    5.1940
   17.970    5.1264
   17.985    5.2370
   18.000    5.2001
   18.015    5.1676
   18.030    5.1299
   18.045    5.1360
   18.060    5.2730
   18.075    5.2264
   18.090    5.3019
   18.105    5.2256
   18.120    5.1992
   18.135    5.1782
   18.150    5.1036
   18.165    5.1343
   18.180    5.2168
   18.195    5.1729
   18.210    5.1992
   18.225    5.1237
   18.240    5.1290
   18.255    5.1729
   18.270    5.1053
   18.285    5.0623
   18.300    5.0904
   18.315    5.1852
   18.330    5.1808
   18.345    5.0913
   18.360    5.0544
   18.375    5.1474
   18.390    5.0957
   18.405    5.0544
   18.420    5.0878
   18.435    5.1018
   18.450    5.0948
   18.465    5.1325
   18.480    5.1246
   18.495    5.0843
   18.510    5.0000
   18.525    5.1053
   18.540    5.0518
   18.555    4.9324
   18.570    4.9631
   18.585    4.9280
   18.600    5.0140
   18.615    4.9623
   18.630    4.9816
   18.645    5.0412
   18.660    5.1527
   18.675    5.0965
   18.690    5.1176
   18.705    5.0342
   18.720    4.9974
   18.735    5.1062
   18.750    5.0448
   18.765    5.0518
   18.780    4.9763
   18.795    4.9368
   18.810    5.0685
   18.825    5.0799
   18.840    5.0448
   18.855    5.0957
   18.870    4.9860
   18.885    5.1150
   18.900    5.0465
   18.915    4.9921
   18.930    5.0527
   18.945    5.0342
   18.960    5.0588
   18.975    5.1044
   18.990    5.0755
   19.005    5.1738
   19.020    5.1036
   19.035    5.1413
   19.050    5.1018
   19.065    5.0728
   19.080    5.1281
   19.095    5.2317
   19.110    4.9868
   19.125    5.1141
   19.140    5.1957
   19.155    5.3160
   19.170    5.2001
   19.185    5.1632
   19.200    5.1527
   19.215    5.1668
   19.230    5.2124
   19.245    5.2405
   19.260    5.1255
   19.275    5.1088
   19.290    5.0992
   19.305    5.0570
   19.320    5.1869
   19.335    5.2519
   19.350    5.2256
   19.365    5.3072
   19.380    5.2826
   19.395    5.2887
   19.410    5.2738
   19.425    5.2264
   19.440    5.2124
   19.455    5.3458
   19.470    5.4222
   19.485    5.2352
   19.500    5.2536
   19.515    5.4344
   19.530    5.3888
   19.545    5.2133
   19.560    5.4204
   19.575    5.4731
   19.590    5.4248
   19.605    5.3414
   19.620    5.4608
   19.635    5.5275
   19.650    5.5222
   19.665    5.5582
   19.680    5.5020
   19.695    5.5705
   19.710    5.5292
   19.725    5.6029
   19.740    5.5082
   19.755    5.5126
   19.770    5.6302
   19.785    5.6310
   19.800    5.6468
   19.815    5.5845
   19.830    5.6003
   19.845    5.7039
   19.860    5.7469
   19.875    5.7943
   19.890    5.7688
   19.905    5.6969
   19.920    5.7302
   19.935    5.7618
   19.950    5.7091
   19.965    5.7469
   19.980    5.7328
   19.995    5.5986
   20.010    5.7785
   20.025    5.7750
   20.040    5.7302
   20.055    5.8373
   20.070    5.7925
   20.085    5.8390
   20.100    5.9031
   20.115    5.7767
   20.130    5.7074
   20.145    5.7662
   20.160    5.8153
   20.175    5.8838
   20.190    5.9716
   20.205    5.7952
   20.220    5.9426
   20.235    5.9119
   20.250    5.8478
   20.265    5.8768
   20.280    5.9014
   20.295    5.9022
   20.310    5.9839
   20.325    5.8759
   20.340    5.8548
   20.355    5.8724
   20.370    5.9145
   20.385    5.8329
   20.400    5.7846
   20.415    5.7346
   20.430    5.7460
   20.445    5.8180
   20.460    5.8724
   20.475    5.8039
   20.490    5.8522
   20.505    5.8943
   20.520    5.8399
   20.535    5.8066
   20.550    5.8285
   20.565    5.7451
   20.580    5.7916
   20.595    5.8364
   20.610    5.7644
   20.625    5.8531
   20.640    5.9022
   20.655    5.7513
   20.670    5.8513
   20.685    5.8978
   20.700    5.8013
   20.715    5.9163
   20.730    5.8224
   20.745    5.7723
   20.760    5.8513
   20.775    5.8346
   20.790    5.9935
   20.805    5.9180
   20.820    5.8478
   20.835    5.9391
   20.850    5.9768
   20.865    5.9163
   20.880    5.9487
   20.895    6.1041
   20.910    6.1603
   20.925    6.1313
   20.940    6.2050
   20.955    6.1638
   20.970    6.2726
   20.985    6.2182
   21.000    6.2498
   21.015    6.1831
   21.030    6.2217
   21.045    6.2208
   21.060    6.3095
   21.075    6.3156
   21.090    6.1497
   21.105    6.0830
   21.120    6.1910
   21.135    6.0391
   21.150    6.0497
   21.165    6.0312
   21.180    6.0277
   21.195    6.0374
   21.210    6.0277
   21.225    5.9733
   21.240    6.0225
   21.255    6.0664
   21.270    6.0181
   21.285    6.0330
   21.300    5.9180
   21.315    5.9268
   21.330    5.9768
   21.345    6.0005
   21.360    5.9365
   21.375    5.9057
   21.390    5.8917
   21.405    5.9049
   21.420    5.9303
   21.435    5.8926
   21.450    5.8987
   21.465    5.8803
   21.480    5.8645
   21.495    5.9093
   21.510    5.9005
   21.525    5.9084
   21.540    5.8048
   21.555    5.6784
   21.570    5.7056
   21.585    5.7969
   21.600    5.7969
   21.615    5.8399
   21.630    5.8110
   21.645    5.7820
   21.660    5.7522
   21.675    5.8074
   21.690    5.6354
   21.705    5.7337
   21.720    5.8285
   21.735    5.7460
   21.750    5.7548
   21.765    5.7960
   21.780    5.7539
   21.795    5.7750
   21.810    5.7952
   21.825    5.6819
   21.840    5.8215
   21.855    5.8031
   21.870    5.7934
   21.885    5.8399
   21.900    5.7644
   21.915    5.7434
   21.930    5.8346
   21.945    5.7627
   21.960    5.9672
   21.975    5.7829
   21.990    5.7952
   22.005    5.9136
   22.020    5.9514
   22.035    5.8978
   22.050    5.9242
   22.065    5.8276
   22.080    5.7811
   22.095    5.8469
   22.110    5.9426
   22.125    5.9742
   22.140    6.0944
   22.155    6.0032
   22.170    6.0567
   22.185    5.9944
   22.200    6.0435
   22.215    6.0628
   22.230    6.0312
   22.245    6.0979
   22.260    6.0751
   22.275    6.1137
   22.290    6.0681
   22.305    6.0427
   22.320    6.1383
   22.335    6.1331
   22.350    6.1673
   22.365    6.1058
   22.380    6.1094
   22.395    6.2191
   22.410    6.2006
   22.425    6.1559
   22.440    6.1348
   22.455    6.2235
   22.470    6.2085
   22.485    6.1998
   22.500    6.3086
   22.515    6.2691
   22.530    6.1962
   22.545    6.2647
   22.560    6.3121
   22.575    6.3674
   22.590    6.2691
   22.605    6.1848
   22.620    6.3217
   22.635    6.3060
   22.650    6.3077
   22.665    6.2972
   22.680    6.2919
   22.695    6.3086
   22.710    6.3217
   22.725    6.2858
   22.740    6.4034
   22.755    6.3586
   22.770    6.2507
   22.785    6.1962
   22.800    6.1769
   22.815    6.1848
   22.830    6.2375
   22.845    6.2814
   22.860    6.3209
   22.875    6.1761
   22.890    6.1462
   22.905    6.1295
   22.920    6.0646
   22.935    6.0848
   22.950    6.0699
   22.965    6.0479
   22.980    6.1690
   22.995    6.0277
   23.010    5.9277
   23.025    5.9724
   23.040    5.9233
   23.055    6.0102
   23.070    5.9145
   23.085    5.8197
   23.100    5.8522
   23.115    5.8733
   23.130    5.8153
   23.145    5.8698
   23.160    5.7627
   23.175    5.7548
   23.190    5.8066
   23.205    5.7021
   23.220    5.6767
   23.235    5.5950
   23.250    5.6354
   23.265    5.6082
   23.280    5.6319
   23.295    5.6591
   23.310    5.5477
   23.325    5.4818
   23.340    5.5670
   23.355    5.5345
   23.370    5.5301
   23.385    5.5117
   23.400    5.5608
   23.415    5.5714
   23.430    5.4968
   23.445    5.5345
   23.460    5.4599
   23.475    5.5134
   23.490    5.4818
   23.505    5.4494
   23.520    5.5231
   23.535    5.6214
   23.550    5.4836
   23.565    5.4388
   23.580    5.4274
   23.595    5.4959
   23.610    5.4862
   23.625    5.4748
   23.640    5.3739
   23.655    5.4853
   23.670    5.3607
   23.685    5.4897
   23.700    5.5371
   23.715    5.4766
   23.730    5.4669
   23.745    5.4222
   23.760    5.4107
   23.775    5.4932
   23.790    5.4537
   23.805    5.4476
   23.820    5.3906
   23.835    5.4783
   23.850    5.5696
   23.865    5.5907
   23.880    5.4915
   23.895    5.5108
   23.910    5.5082
   23.925    5.4616
   23.940    5.4283
   23.955    5.4625
   23.970    5.5248
   23.985    5.5126
   24.000    5.4801
   24.015    5.4292
   24.030    5.3923
   24.045    5.4704
   24.060    5.4283
   24.075    5.3897
   24.090    5.5213
   24.105    5.5362
   24.120    5.4634
   24.135    5.5301
   24.150    5.4432
   24.165    5.5635
   24.180    5.4151
   24.195    5.4573
   24.210    5.4134
   24.225    5.5468
   24.240    5.4099
   24.255    5.4397
   24.270    5.5187
   24.285    5.4845
   24.300    5.6890
   24.315    5.5345
   24.330    5.4353
   24.345    5.3511
   24.360    5.5828
   24.375    5.5854
   24.390    5.6468
   24.405    5.6705
   24.420    5.5898
   24.435    5.6003
   24.450    5.5556
   24.465    5.6433
   24.480    5.6512
   24.495    5.5863
   24.510    5.6679
   24.525    5.6345
   24.540    5.7486
   24.555    5.8390
   24.570    5.7864
   24.585    5.7732
   24.600    5.6828
   24.615    5.7425
   24.630    5.6828
   24.645    5.6907
   24.660    5.7504
   24.675    5.6363
   24.690    5.6881
   24.705    5.6152
   24.720    5.5696
   24.735    5.8224
   24.750    5.5213
   24.765    5.5670
   24.780    5.4213
   24.795    5.5714
   24.810    5.5433
   24.825    5.5441
   24.840    5.4766
   24.855    5.4239
   24.870    5.3923
   24.885    5.4932
   24.900    5.4520
   24.915    5.4028
   24.930    5.3440
   24.945    5.3625
   24.960    5.3809
   24.975    5.4125
   24.990    5.3397
   25.005    5.3590
   25.020    5.3976
   25.035    5.3739
   25.050    5.3151
   25.065    5.2185
   25.080    5.3124
   25.095    5.2659
   25.110    5.2975
   25.125    5.2773
   25.140    5.2449
   25.155    5.2484
   25.170    5.3239
   25.185    5.1983
   25.200    5.1536
   25.215    5.1571
   25.230    5.1422
   25.245    5.1641
   25.260    5.0395
   25.275    5.1457
   25.290    5.2071
   25.305    5.1141
   25.320    5.0930
   25.335    5.1115
   25.350    5.0869
   25.365    5.0193
   25.380    5.1220
   25.395    5.0895
   25.410    5.0360
   25.425    5.0737
   25.440    5.0562
   25.455    5.0474
   25.470    5.0140
   25.485    5.0290
   25.500    4.9956
   25.515    5.0149
   25.530    4.9491
   25.545    5.0202
   25.560    5.0807
   25.575    5.0202
   25.590    4.9991
   25.605    4.9465
   25.620    5.0097
   25.635    5.0290
   25.650    5.0579
   25.665    5.0342
   25.680    4.9623
   25.695    4.8877
   25.710    5.0377
   25.725    4.9763
   25.740    4.9482
   25.755    5.0843
   25.770    4.9438
   25.785    4.9535
   25.800    4.9710
   25.815    4.8780
   25.830    4.9447
   25.845    5.0088
   25.860    4.8973
   25.875    4.9114
   25.890    4.9386
   25.905    4.9588
   25.920    4.9236
   25.935    4.9930
   25.950    4.9289
   25.965    4.8824
   25.980    4.9517
   25.995    4.8262
   26.010    4.9061
   26.025    4.9623
   26.040    4.9833
   26.055    4.8403
   26.070    4.8991
   26.085    4.9210
   26.100    4.9342
   26.115    4.9447
   26.130    5.0088
   26.145    5.0562
   26.160    4.9315
   26.175    5.0439
   26.190    5.0290
   26.205    4.9781
   26.220    4.9447
   26.235    4.9579
   26.250    4.9754
   26.265    4.9745
   26.280    5.0281
   26.295    4.8596
   26.310    4.9631
   26.325    5.0386
   26.340    5.0228
   26.355    4.9509
   26.370    4.9860
   26.385    4.9289
   26.400    4.9982
   26.415    4.9570
   26.430    4.9719
   26.445    4.9737
   26.460    4.9324
   26.475    4.9517
   26.490    5.0325
   26.505    4.9535
   26.520    4.9491
   26.535    4.9509
   26.550    4.8929
   26.565    5.0474
   26.580    4.9272
   26.595    4.9982
   26.610    4.9307
   26.625    4.8798
   26.640    4.8885
   26.655    4.9623
   26.670    4.9623
   26.685    4.8912
   26.700    4.9886
   26.715    4.9280
   26.730    4.8964
   26.745    4.9219
   26.760    4.9131
   26.775    4.8657
   26.790    4.9588
   26.805    4.8350
   26.820    4.8455
   26.835    4.9140
   26.850    4.9122
   26.865    4.8999
   26.880    4.8640
   26.895    4.9763
   26.910    4.8798
   26.925    4.9570
   26.940    4.8271
   26.955    4.8297
   26.970    4.8245
   26.985    4.8569
   27.000    4.9175
   27.015    4.8569
   27.030    4.8850
   27.045    4.8587
   27.060    4.8210
   27.075    4.8262
   27.090    4.7859
   27.105    4.8324
   27.120    4.7595
   27.135    4.8297
   27.150    4.7999
   27.165    4.9114
   27.180    4.8754
   27.195    4.8833
   27.210    4.8473
   27.225    4.8745
   27.240    4.8771
   27.255    4.9781
   27.270    4.8710
   27.285    4.9491
   27.300    4.9035
   27.315    4.8157
   27.330    4.9114
   27.345    4.8447
   27.360    4.8455
   27.375    4.9833
   27.390    4.8192
   27.405    4.7744
   27.420    4.9184
   27.435    4.8657
   27.450    4.8622
   27.465    4.8666
   27.480    4.9149
   27.495    4.8183
   27.510    4.8543
   27.525    4.8675
   27.540    4.8517
   27.555    4.8368
   27.570    4.8894
   27.585    4.7165
   27.600    4.7622
   27.615    4.8368
   27.630    4.8350
   27.645    4.8131
   27.660    4.8201
   27.675    4.7771
   27.690    4.7859
   27.705    4.7174
   27.720    4.8218
   27.735    4.8113
   27.750    4.7534
   27.765    4.7025
   27.780    4.7437
   27.795    4.8113
   27.810    4.6507
   27.825    4.7156
   27.840    4.7753
   27.855    4.7007
   27.870    4.6489
   27.885    4.7578
   27.900    4.6919
   27.915    4.7639
   27.930    4.7525
   27.945    4.7683
   27.960    4.7516
   27.975    4.7297
   27.990    4.8017
   28.005    4.8543
   28.020    4.8464
   28.035    4.7718
   28.050    4.7990
   28.065    4.8017
   28.080    4.8350
   28.095    4.8078
   28.110    4.9745
   28.125    4.8947
   28.140    4.8815
   28.155    4.9289
   28.170    4.9280
   28.185    4.8956
   28.200    4.8973
   28.215    4.8473
   28.230    4.7806
   28.245    4.7780
   28.260    4.7648
   28.275    4.8078
   28.290    4.8754
   28.305    4.8973
   28.320    4.7411
   28.335    4.6911
   28.350    4.7218
   28.365    4.6419
   28.380    4.7077
   28.395    4.6955
   28.410    4.6305
   28.425    4.7279
   28.440    4.6551
   28.455    4.5778
   28.470    4.6270
   28.485    4.6121
   28.500    4.5910
   28.515    4.5717
   28.530    4.6481
   28.545    4.6647
   28.560    4.6524
   28.575    4.6419
   28.590    4.6612
   28.605    4.6094
   28.620    4.6911
   28.635    4.5463
   28.650    4.5489
   28.665    4.5708
   28.680    4.6086
   28.695    4.6007
   28.710    4.5857
   28.725    4.4523
   28.740    4.6147
   28.755    4.5103
   28.770    4.5296
   28.785    4.5410
   28.800    4.5620
   28.815    4.5620
   28.830    4.6103
   28.845    4.5770
   28.860    4.4910
   28.875    4.5673
   28.890    4.6498
   28.905    4.5612
   28.920    4.5348
   28.935    4.6542
   28.950    4.6323
   28.965    4.5147
   28.980    4.5910
   28.995    4.5068
   29.010    4.5647
   29.025    4.5287
   29.040    4.5910
   29.055    4.6437
   29.070    4.6226
   29.085    4.6779
   29.100    4.6691
   29.115    4.5787
   29.130    4.5682
   29.145    4.6147
   29.160    4.5989
   29.175    4.5366
   29.190    4.5542
   29.205    4.5305
   29.220    4.5032
   29.235    4.5893
   29.250    4.5840
   29.265    4.5234
   29.280    4.5884
   29.295    4.6498
   29.310    4.7323
   29.325    4.5875
   29.340    4.6639
   29.355    4.6156
   29.370    4.5182
   29.385    4.5506
   29.400    4.6138
   29.415    4.5577
   29.430    4.5234
   29.445    4.6024
   29.460    4.4918
   29.475    4.4717
   29.490    4.5261
   29.505    4.6507
   29.520    4.5980
   29.535    4.5006
   29.550    4.5243
   29.565    4.5103
   29.580    4.5331
   29.595    4.5629
   29.610    4.5568
   29.625    4.4769
   29.640    4.4778
   29.655    4.4857
   29.670    4.4480
   29.685    4.4401
   29.700    4.5524
   29.715    4.4295
   29.730    4.3865
   29.745    4.5568
   29.760    4.4857
   29.775    4.4260
   29.790    4.4190
   29.805    4.4699
   29.820    4.4997
   29.835    4.4813
   29.850    4.4796
   29.865    4.5936
   29.880    4.4690
   29.895    4.4708
   29.910    4.4585
   29.925    4.4269
   29.940    4.3900
   29.955    4.4585
   29.970    4.4831
   29.985    4.4576
   30.000    4.4488
   30.015    4.4322
   30.030    4.3181
   30.045    4.3997
   30.060    4.4243
   30.075    4.4567
   30.090    4.5375
   30.105    4.4831
   30.120    4.4392
   30.135    4.3084
   30.150    4.3909
   30.165    4.4436
   30.180    4.4058
   30.195    4.4330
   30.210    4.4734
   30.225    4.4339
   30.240    4.3576
   30.255    4.5366
   30.270    4.4681
   30.285    4.4199
   30.300    4.4190
   30.315    4.3997
   30.330    4.3716
   30.345    4.4330
   30.360    4.4269
   30.375    4.3742
   30.390    4.4093
   30.405    4.4690
   30.420    4.3979
   30.435    4.4120
   30.450    4.3777
   30.465    4.3742
   30.480    4.3663
   30.495    4.4067
   30.510    4.5103
   30.525    4.4102
   30.540    4.5182
   30.555    4.4304
   30.570    4.3839
   30.585    4.3005
   30.600    4.3426
   30.615    4.3734
   30.630    4.3382
   30.645    4.3663
   30.660    4.3865
   30.675    4.2803
   30.690    4.3435
   30.705    4.3663
   30.720    4.3330
   30.735    4.3909
   30.750    4.3558
   30.765    4.3225
   30.780    4.3593
   30.795    4.3971
   30.810    4.4734
   30.825    4.3189
   30.840    4.3540
   30.855    4.3119
   30.870    4.3356
   30.885    4.3277
   30.900    4.3312
   30.915    4.3216
   30.930    4.2593
   30.945    4.3848
   30.960    4.3312
   30.975    4.3277
   30.990    4.3049
   31.005    4.2873
   31.020    4.2742
   31.035    4.3821
   31.050    4.3935
   31.065    4.3382
   31.080    4.3260
   31.095    4.4085
   31.110    4.3321
   31.125    4.3558
   31.140    4.3997
   31.155    4.4128
   31.170    4.2680
   31.185    4.3075
   31.200    4.3646
   31.215    4.3514
   31.230    4.2645
   31.245    4.3426
   31.260    4.2830
   31.275    4.3040
   31.290    4.3470
   31.305    4.3075
   31.320    4.3189
   31.335    4.3075
   31.350    4.2830
   31.365    4.2645
   31.380    4.2557
   31.395    4.3698
   31.410    4.2873
   31.425    4.3453
   31.440    4.3225
   31.455    4.3181
   31.470    4.3874
   31.485    4.2496
   31.500    4.3716
   31.515    4.3277
   31.530    4.3277
   31.545    4.3295
   31.560    4.3576
   31.575    4.4067
   31.590    4.3295
   31.605    4.3233
   31.620    4.4067
   31.635    4.3883
   31.650    4.4330
   31.665    4.4067
   31.680    4.3225
   31.695    4.3479
   31.710    4.4260
   31.725    4.4664
   31.740    4.3795
   31.755    4.3988
   31.770    4.4278
   31.785    4.3558
   31.800    4.3672
   31.815    4.3953
   31.830    4.3830
   31.845    4.2926
   31.860    4.3251
   31.875    4.3734
   31.890    4.3128
   31.905    4.2838
   31.920    4.2803
   31.935    4.2303
   31.950    4.2909
   31.965    4.3014
   31.980    4.3330
   31.995    4.2794
   32.010    4.2865
   32.025    4.3058
   32.040    4.3365
   32.055    4.2865
   32.070    4.3049
   32.085    4.3005
   32.100    4.4049
   32.115    4.2680
   32.130    4.2075
   32.145    4.2408
   32.160    4.3514
   32.175    4.3540
   32.190    4.2830
   32.205    4.2531
   32.220    4.2259
   32.235    4.2979
   32.250    4.2786
   32.265    4.3707
   32.280    4.2566
   32.295    4.2136
   32.310    4.2742
   32.325    4.2909
   32.340    4.2952
   32.355    4.2277
   32.370    4.2189
   32.385    4.2242
   32.400    4.3198
   32.415    4.2057
   32.430    4.2154
   32.445    4.2338
   32.460    4.2215
   32.475    4.1671
   32.490    4.1715
   32.505    4.1583
   32.520    4.2426
   32.535    4.1065
   32.550    4.1680
   32.565    4.1180
   32.580    4.1636
   32.595    4.1048
   32.610    4.1504
   32.625    4.1013
   32.640    4.1364
   32.655    4.1355
   32.670    4.1496
   32.685    4.1478
   32.700    4.0644
   32.715    4.1206
   32.730    4.0811
   32.745    4.0855
   32.760    4.0600
   32.775    4.0583
   32.790    4.1689
   32.805    4.0723
   32.820    4.0644
   32.835    4.0276
   32.850    4.0574
   32.865    4.0785
   32.880    4.0697
   32.895    3.9714
   32.910    3.9898
   32.925    4.0556
   32.940    4.0337
   32.955    3.9810
   32.970    4.0513
   32.985    4.0030
   33.000    4.0600
   33.015    3.9170
   33.030    4.0416
   33.045    4.0635
   33.060    4.0872
   33.075    4.0100
   33.090    4.0082
   33.105    3.9749
   33.120    3.9573
   33.135    4.0153
   33.150    4.0609
   33.165    4.0004
   33.180    3.9231
   33.195    3.9521
   33.210    3.9688
   33.225    4.0521
   33.240    4.0039
   33.255    3.9828
   33.270    4.1206
   33.285    4.0451
   33.300    3.9767
   33.315    3.8766
   33.330    3.9784
   33.345    4.0039
   33.360    3.9995
   33.375    3.9398
   33.390    3.8705
   33.405    3.9398
   33.420    4.0223
   33.435    3.9161
   33.450    3.9714
   33.465    3.9889
   33.480    3.9652
   33.495    3.9731
   33.510    3.8933
   33.525    3.8705
   33.540    3.8836
   33.555    3.9275
   33.570    3.8669
   33.585    3.9135
   33.600    4.0407
   33.615    3.9688
   33.630    3.9451
   33.645    3.9310
   33.660    3.8687
   33.675    3.9064
   33.690    3.8731
   33.705    3.8845
   33.720    3.8950
   33.735    3.8283
   33.750    3.9179
   33.765    3.8968
   33.780    3.8547
   33.795    3.8652
   33.810    3.9064
   33.825    3.8494
   33.840    3.8239
   33.855    3.7397
   33.870    3.7792
   33.885    3.8310
   33.900    3.8283
   33.915    3.9363
   33.930    3.8389
   33.945    3.9170
   33.960    3.7388
   33.975    3.7765
   33.990    3.8977
   34.005    3.8520
   34.020    3.7880
   34.035    3.7950
   34.050    3.7897
   34.065    3.8468
   34.080    3.8090
   34.095    3.8547
   34.110    3.7371
   34.125    3.8178
   34.140    3.8582
   34.155    3.8564
   34.170    3.8775
   34.185    3.8196
   34.200    3.7818
   34.215    3.8213
   34.230    3.8617
   34.245    3.7932
   34.260    3.8038
   34.275    3.7844
   34.290    3.8669
   34.305    3.9029
   34.320    3.8310
   34.335    3.7450
   34.350    3.7590
   34.365    3.7941
   34.380    3.7660
   34.395    3.7783
   34.410    3.7722
   34.425    3.7950
   34.440    3.8081
   34.455    3.7160
   34.470    3.7695
   34.485    3.7897
   34.500    3.7651
   34.515    3.7897
   34.530    3.7555
   34.545    3.8722
   34.560    3.7186
   34.575    3.7853
   34.590    3.7318
   34.605    3.7327
   34.620    3.7213
   34.635    3.7660
   34.650    3.7230
   34.665    3.7318
   34.680    3.7283
   34.695    3.7493
   34.710    3.7063
   34.725    3.7169
   34.740    3.7353
   34.755    3.7450
   34.770    3.8020
   34.785    3.7230
   34.800    3.7265
   34.815    3.7300
   34.830    3.7581
   34.845    3.7757
   34.860    3.7055
   34.875    3.6651
   34.890    3.6774
   34.905    3.7239
   34.920    3.6493
   34.935    3.7169
   34.950    3.7634
   34.965    3.6660
   34.980    3.6756
   34.995    3.6098
   35.010    3.6870
   35.025    3.6967
   35.040    3.6151
   35.055    3.6739
   35.070    3.6677
   35.085    3.6502
   35.100    3.7634
   35.115    3.6712
   35.130    3.7204
   35.145    3.6730
   35.160    3.7151
   35.175    3.6414
   35.190    3.6352
   35.205    3.6309
   35.220    3.7511
   35.235    3.7441
   35.250    3.6949
   35.265    3.6256
   35.280    3.6309
   35.295    3.6168
   35.310    3.5571
   35.325    3.6651
   35.340    3.6493
   35.355    3.6888
   35.370    3.6976
   35.385    3.7134
   35.400    3.6458
   35.415    3.6826
   35.430    3.6431
   35.445    3.6967
   35.460    3.6546
   35.475    3.6879
   35.490    3.6405
   35.505    3.6800
   35.520    3.7204
   35.535    3.6712
   35.550    3.6221
   35.565    3.6783
   35.580    3.6493
   35.595    3.6581
   35.610    3.6045
   35.625    3.6563
   35.640    3.5905
   35.655    3.6572
   35.670    3.6572
   35.685    3.5501
   35.700    3.6072
   35.715    3.6502
   35.730    3.6546
   35.745    3.6721
   35.760    3.6677
   35.775    3.6704
   35.790    3.6344
   35.805    3.6080
   35.820    3.6168
   35.835    3.5264
   35.850    3.6686
   35.865    3.5843
   35.880    3.5633
   35.895    3.5624
   35.910    3.6326
   35.925    3.5949
   35.940    3.6616
   35.955    3.5879
   35.970    3.6159
   35.985    3.6625
   36.000    3.6212
   36.015    3.5905
   36.030    3.5782
   36.045    3.5879
   36.060    3.6177
   36.075    3.5519
   36.090    3.5896
   36.105    3.5466
   36.120    3.6080
   36.135    3.6037
   36.150    3.5677
   36.165    3.5896
   36.180    3.5422
   36.195    3.4466
   36.210    3.6151
   36.225    3.6449
   36.240    3.5545
   36.255    3.4606
   36.270    3.6019
   36.285    3.5764
   36.300    3.6115
   36.315    3.5264
   36.330    3.5352
   36.345    3.5624
   36.360    3.4825
   36.375    3.5062
   36.390    3.5413
   36.405    3.4659
   36.420    3.4799
   36.435    3.4957
   36.450    3.4606
   36.465    3.5115
   36.480    3.5668
   36.495    3.5299
   36.510    3.4711
   36.525    3.5405
   36.540    3.6730
   36.555    3.5299
   36.570    3.5317
   36.585    3.5054
   36.600    3.4869
   36.615    3.3816
   36.630    3.5571
   36.645    3.5273
   36.660    3.5466
   36.675    3.5045
   36.690    3.4667
   36.705    3.4667
   36.720    3.4404
   36.735    3.4975
   36.750    3.5343
   36.765    3.6238
   36.780    3.4720
   36.795    3.5773
   36.810    3.5650
   36.825    3.4536
   36.840    3.4518
   36.855    3.5229
   36.870    3.5212
   36.885    3.4966
   36.900    3.4799
   36.915    3.5282
   36.930    3.4983
   36.945    3.5159
   36.960    3.5124
   36.975    3.4527
   36.990    3.4904
   37.005    3.4746
   37.020    3.4685
   37.035    3.4325
   37.050    3.4281
   37.065    3.5062
   37.080    3.4501
   37.095    3.4536
   37.110    3.4202
   37.125    3.4413
   37.140    3.4351
   37.155    3.4167
   37.170    3.4035
   37.185    3.4711
   37.200    3.4220
   37.215    3.5001
   37.230    3.3948
   37.245    3.4667
   37.260    3.4738
   37.275    3.4825
   37.290    3.4176
   37.305    3.3834
   37.320    3.4694
   37.335    3.4852
   37.350    3.4685
   37.365    3.4387
   37.380    3.5571
   37.395    3.4141
   37.410    3.4413
   37.425    3.5255
   37.440    3.4852
   37.455    3.4738
   37.470    3.4457
   37.485    3.4711
   37.500    3.4843
   37.515    3.4781
   37.530    3.3614
   37.545    3.4395
   37.560    3.4290
   37.575    3.3649
   37.590    3.4334
   37.605    3.4562
   37.620    3.3676
   37.635    3.4474
   37.650    3.4290
   37.665    3.4308
   37.680    3.4044
   37.695    3.4062
   37.710    3.4281
   37.725    3.4246
   37.740    3.3965
   37.755    3.3860
   37.770    3.3430
   37.785    3.4071
   37.800    3.3842
   37.815    3.4167
   37.830    3.4492
   37.845    3.4501
   37.860    3.4387
   37.875    3.3772
   37.890    3.4027
   37.905    3.4334
   37.920    3.3333
   37.935    3.4615
   37.950    3.3702
   37.965    3.3483
   37.980    3.3439
   37.995    3.3711
   38.010    3.4088
   38.025    3.3316
   38.040    3.3877
   38.055    3.4334
   38.070    3.4167
   38.085    3.3948
   38.100    3.3772
   38.115    3.3483
   38.130    3.3386
   38.145    3.4334
   38.160    3.4544
   38.175    3.3386
   38.190    3.3272
   38.205    3.3500
   38.220    3.3123
   38.235    3.3649
   38.250    3.3368
   38.265    3.3360
   38.280    3.3992
   38.295    3.3737
   38.310    3.4378
   38.325    3.3597
   38.340    3.2938
   38.355    3.3158
   38.370    3.2982
   38.385    3.3684
   38.400    3.3886
   38.415    3.4141
   38.430    3.3351
   38.445    3.3772
   38.460    3.3632
   38.475    3.2710
   38.490    3.2693
   38.505    3.2982
   38.520    3.3649
   38.535    3.3702
   38.550    3.2973
   38.565    3.3544
   38.580    3.3676
   38.595    3.4000
   38.610    3.3140
   38.625    3.2895
   38.640    3.4422
   38.655    3.3877
   38.670    3.3518
   38.685    3.4106
   38.700    3.3895
   38.715    3.3316
   38.730    3.4185
   38.745    3.4000
   38.760    3.3921
   38.775    3.4114
   38.790    3.2877
   38.805    3.3781
   38.820    3.3746
   38.835    3.3544
   38.850    3.3869
   38.865    3.4571
   38.880    3.3456
   38.895    3.3834
   38.910    3.3684
   38.925    3.3676
   38.940    3.4053
   38.955    3.3728
   38.970    3.3570
   38.985    3.3614
   39.000    3.3816
   39.015    3.3123
   39.030    3.3123
   39.045    3.3228
   39.060    3.3500
   39.075    3.4009
   39.090    3.4272
   39.105    3.3983
   39.120    3.3474
   39.135    3.3956
   39.150    3.3526
   39.165    3.3553
   39.180    3.3790
   39.195    3.4141
   39.210    3.4000
   39.225    3.3342
   39.240    3.3421
   39.255    3.2868
   39.270    3.3851
   39.285    3.3131
   39.300    3.2930
   39.315    3.3175
   39.330    3.3447
   39.345    3.4229
   39.360    3.3588
   39.375    3.2912
   39.390    3.3131
   39.405    3.3790
   39.420    3.4167
   39.435    3.3535
   39.450    3.3175
   39.465    3.3483
   39.480    3.3447
   39.495    3.3737
   39.510    3.3430
   39.525    3.4123
   39.540    3.3632
   39.555    3.3737
   39.570    3.3825
   39.585    3.3404
   39.600    3.3114
   39.615    3.3790
   39.630    3.3342
   39.645    3.3035
   39.660    3.3614
   39.675    3.3105
   39.690    3.3351
   39.705    3.3026
   39.720    3.2903
   39.735    3.3693
   39.750    3.3123
   39.765    3.2930
   39.780    3.3052
   39.795    3.3570
   39.810    3.3219
   39.825    3.3351
   39.840    3.3193
   39.855    3.3210
   39.870    3.4580
   39.885    3.4281
   39.900    3.3044
   39.915    3.2429
   39.930    3.2579
   39.945    3.2982
   39.960    3.3140
   39.975    3.2693
   39.990    3.3246
