    1.500   21.8431
    1.515   21.9905
    1.530   21.6956
    1.545   22.1906
    1.560   21.0743
    1.575   20.7794
    1.590   20.2633
    1.605   19.3365
    1.620   19.7999
    1.635   19.3997
    1.650   18.5677
    1.665   17.3460
    1.680   18.3254
    1.695   17.8726
    1.710   17.1985
    1.725   16.7351
    1.740   16.2401
    1.755   16.7457
    1.770   16.5561
    1.785   15.5766
    1.800   15.2501
    1.815   15.5766
    1.830   15.1553
    1.845   14.4708
    1.860   14.5761
    1.875   14.2496
    1.890   13.6704
    1.905   13.2175
    1.920   13.8283
    1.935   12.6172
    1.950   12.9858
    1.965   12.6382
    1.980   12.4487
    1.995   12.5961
    2.010   12.3012
    2.025   12.2064
    2.040   11.7114
    2.055   11.8905
    2.070   11.7957
    2.085   11.7536
    2.100   11.5429
    2.115   11.2586
    2.130   10.9215
    2.145   11.0795
    2.160   10.2370
    2.175   10.4055
    2.190   10.1422
    2.205   10.0158
    2.220   10.1738
    2.235   10.0474
    2.250   10.0369
    2.265    9.0363
    2.280    9.6472
    2.295    9.1311
    2.310    9.4471
    2.325    9.3102
    2.340    8.8362
    2.355    8.7309
    2.370    8.7941
    2.385    8.7204
    2.400    9.0890
    2.415    9.1206
    2.430    8.4360
    2.445    8.2359
    2.460    8.2780
    2.475    8.2359
    2.490    7.9516
    2.505    8.1095
    2.520    7.6883
    2.535    7.7199
    2.550    8.0042
    2.565    7.3618
    2.580    7.4882
    2.595    7.6777
    2.610    7.1301
    2.625    7.1090
    2.640    7.4566
    2.655    7.6672
    2.670    7.6567
    2.685    7.4882
    2.700    7.0458
    2.715    7.1090
    2.730    7.1933
    2.745    6.7088
    2.760    6.8246
    2.775    6.9300
    2.790    6.8352
    2.805    6.5824
    2.820    6.7825
    2.835    6.4876
    2.850    6.4982
    2.865    6.7193
    2.880    6.7615
    2.895    6.5508
    2.910    6.0874
    2.925    6.4350
    2.940    6.1085
    2.955    6.1085
    2.970    5.8768
    2.985    6.3086
    3.000    6.2454
    3.015    6.1190
    3.030    6.0032
    3.045    5.6661
    3.060    5.7293
    3.075    5.6029
    3.090    5.7925
    3.105    5.7504
    3.120    5.4344
    3.135    5.5398
    3.150    5.8768
    3.165    5.7609
    3.180    5.6977
    3.195    5.5082
    3.210    5.5398
    3.225    6.0032
    3.240    5.2765
    3.255    4.9184
    3.270    4.9500
    3.285    5.2659
    3.300    5.1922
    3.315    5.0974
    3.330    5.3607
    3.345    5.3712
    3.360    5.0237
    3.375    5.1290
    3.390    5.5503
    3.405    5.2238
    3.420    5.2554
    3.435    5.1080
    3.450    5.1711
    3.465    5.0974
    3.480    5.2870
    3.495    4.9289
    3.510    5.0869
    3.525    5.0869
    3.540    4.8341
    3.555    5.0237
    3.570    5.0658
    3.585    4.7920
    3.600    5.0026
    3.615    4.8131
    3.630    4.9289
    3.645    5.0237
    3.660    4.7183
    3.675    4.8131
    3.690    4.9921
    3.705    4.6551
    3.720    4.8657
    3.735    4.5182
    3.750    4.5708
    3.765    5.0553
    3.780    4.7815
    3.795    4.8868
    3.810    4.8868
    3.825    4.9500
    3.840    4.9394
    3.855    4.6761
    3.870    4.6340
    3.885    4.4760
    3.900    4.4760
    3.915    4.7709
    3.930    4.6867
    3.945    4.6235
    3.960    4.7288
    3.975    4.6130
    3.990    4.9605
    4.005    4.6235
    4.020    4.3813
    4.035    4.6656
    4.050    4.6235
    4.065    4.5498
    4.080    4.6024
    4.095    4.9710
    4.110    4.4866
    4.125    4.5182
    4.140    4.4655
    4.155    4.6235
    4.170    4.2127
    4.185    3.9389
    4.200    4.1811
    4.215    4.4339
    4.230    4.2970
    4.245    4.6024
    4.260    4.3602
    4.275    4.3286
    4.290    4.4234
    4.305    4.4023
    4.320    3.8441
    4.335    4.2233
    4.350    4.2549
    4.365    4.0442
    4.380    4.1811
    4.395    4.3707
    4.410    3.9916
    4.425    4.3286
    4.440    4.1706
    4.455    4.2865
    4.470    3.9284
    4.485    4.2233
    4.500    4.4023
    4.515    4.2233
    4.530    4.2233
    4.545    4.4971
    4.560    4.1917
    4.575    4.1496
    4.590    4.2654
    4.605    4.1496
    4.620    4.1390
    4.635    4.0021
    4.650    4.1811
    4.665    3.9073
    4.680    3.9389
    4.695    3.8441
    4.710    3.5598
    4.725    3.6546
    4.740    3.8652
    4.755    4.2127
    4.770    3.9179
    4.785    4.0758
    4.800    3.8968
    4.815    4.1180
    4.830    3.9179
    4.845    4.1390
    4.860    3.9179
    4.875    3.9073
    4.890    3.8125
    4.905    3.7599
    4.920    3.7704
    4.935    3.9073
    4.950    3.7599
    4.965    3.6862
    4.980    3.9600
    4.995    3.9705
    5.010    3.8231
    5.025    3.6967
    5.040    3.7915
    5.055    3.7388
    5.070    3.9916
    5.085    3.8652
    5.100    3.8968
    5.115    3.5387
    5.130    3.8757
    5.145    3.7915
    5.160    3.7283
    5.175    3.4860
    5.190    3.5492
    5.205    3.9073
    5.220    3.6862
    5.235    3.4755
    5.250    3.9389
    5.265    3.7388
    5.280    3.5914
    5.295    3.8020
    5.310    3.6862
    5.325    3.6967
    5.340    3.6230
    5.355    3.4966
    5.370    3.4334
    5.385    3.6335
    5.400    3.4755
    5.415    3.8652
    5.430    3.4544
    5.445    3.4544
    5.460    3.6862
    5.475    3.5914
    5.490    3.5914
    5.505    3.4544
    5.520    3.4755
    5.535    3.4966
    5.550    3.4650
    5.565    3.5176
    5.580    3.4860
    5.595    3.4650
    5.610    3.3702
    5.625    3.6756
    5.640    3.6230
    5.655    3.1280
    5.670    3.4544
    5.685    3.3491
    5.700    3.2227
    5.715    3.0437
    5.730    3.3175
    5.745    3.5492
    5.760    3.5703
    5.775    3.5387
    5.790    3.5387
    5.805    3.2859
    5.820    3.4018
    5.835    3.3386
    5.850    3.3702
    5.865    3.4018
    5.880    3.2649
    5.895    3.5071
    5.910    3.2965
    5.925    3.1701
    5.940    3.3491
    5.955    3.2859
    5.970    3.1280
    5.985    3.2438
    6.000    3.5914
    6.015    3.2754
    6.030    2.8963
    6.045    3.0226
    6.060    3.1596
    6.075    3.3491
    6.090    3.1385
    6.105    3.2122
    6.120    3.5282
    6.135    3.4123
    6.150    3.1385
    6.165    3.4439
    6.180    3.2859
    6.195    3.2754
    6.210    3.3702
    6.225    3.4755
    6.240    3.3070
    6.255    3.3702
    6.270    3.3702
    6.285    3.5176
    6.300    3.4123
    6.315    3.1174
    6.330    3.4860
    6.345    3.2122
    6.360    3.1280
    6.375    3.3913
    6.390    3.2754
    6.405    3.2438
    6.420    3.4229
    6.435    3.2122
    6.450    3.4123
    6.465    3.3491
    6.480    3.1069
    6.495    2.8225
    6.510    3.3597
    6.525    3.5914
    6.540    3.5176
    6.555    3.5071
    6.570    3.5071
    6.585    3.4334
    6.600    3.7072
    6.615    3.6756
    6.630    3.2965
    6.645    3.4018
    6.660    3.3913
    6.675    3.3913
    6.690    3.3913
    6.705    3.1280
    6.720    3.4123
    6.735    3.5914
    6.750    3.2965
    6.765    3.3807
    6.780    3.3175
    6.795    3.3597
    6.810    3.4334
    6.825    3.2859
    6.840    3.4018
    6.855    3.2965
    6.870    3.2965
    6.885    3.3491
    6.900    3.3913
    6.915    3.1069
    6.930    3.0648
    6.945    3.1280
    6.960    3.2543
    6.975    3.5282
    6.990    3.3597
    7.005    3.4650
    7.020    3.3070
    7.035    3.1069
    7.050    3.4018
    7.065    3.1701
    7.080    3.2122
    7.095    3.1385
    7.110    3.2333
    7.125    3.2227
    7.140    3.3070
    7.155    3.1174
    7.170    3.4334
    7.185    3.1806
    7.200    3.2438
    7.215    3.2017
    7.230    3.3702
    7.245    3.4123
    7.260    3.4123
    7.275    3.0648
    7.290    3.2227
    7.305    3.3386
    7.320    3.4334
    7.335    3.3807
    7.350    3.1174
    7.365    3.3807
    7.380    3.3597
    7.395    3.1385
    7.410    3.1385
    7.425    3.2965
    7.440    3.3597
    7.455    3.2438
    7.470    3.5176
    7.485    3.1596
    7.500    3.1701
    7.515    3.2122
    7.530    3.2438
    7.545    3.0648
    7.560    3.2333
    7.575    3.2438
    7.590    3.1596
    7.605    3.2122
    7.620    3.1490
    7.635    3.5703
    7.650    3.4544
    7.665    3.2965
    7.680    3.0226
    7.695    3.2017
    7.710    3.1912
    7.725    3.2859
    7.740    3.1385
    7.755    3.1806
    7.770    3.2965
    7.785    3.1806
    7.800    3.2543
    7.815    3.2333
    7.830    3.2649
    7.845    3.4123
    7.860    3.4755
    7.875    3.2227
    7.890    3.4966
    7.905    3.4544
    7.920    3.3807
    7.935    3.2122
    7.950    3.2543
    7.965    3.4123
    7.980    3.0121
    7.995    3.1490
    8.010    3.2649
    8.025    3.1280
    8.040    3.0964
    8.055    2.8541
    8.070    3.2543
    8.085    3.2965
    8.100    3.5176
    8.115    3.3386
    8.130    3.3913
    8.145    3.2543
    8.160    3.1280
    8.175    3.1596
    8.190    3.2859
    8.205    3.0437
    8.220    2.8436
    8.235    3.2227
    8.250    2.9595
    8.265    3.2754
    8.280    3.1490
    8.295    3.1596
    8.310    3.2017
    8.325    3.0648
    8.340    3.2965
    8.355    3.2649
    8.370    3.2965
    8.385    3.5492
    8.400    3.5282
    8.415    3.2649
    8.430    3.0964
    8.445    3.2965
    8.460    2.9805
    8.475    3.2333
    8.490    3.3807
    8.505    3.4123
    8.520    3.2754
    8.535    3.2543
    8.550    3.3597
    8.565    3.4755
    8.580    3.1490
    8.595    3.1912
    8.610    3.0542
    8.625    3.0648
    8.640    3.0437
    8.655    3.0437
    8.670    3.0437
    8.685    3.2122
    8.700    3.2543
    8.715    3.3070
    8.730    3.0226
    8.745    3.1069
    8.760    3.4018
    8.775    3.0332
    8.790    3.0964
    8.805    3.1701
    8.820    3.0121
    8.835    3.3281
    8.850    3.1490
    8.865    2.8541
    8.880    3.0121
    8.895    3.0542
    8.910    2.9279
    8.925    3.0542
    8.940    3.2017
    8.955    3.2017
    8.970    3.0542
    8.985    3.0121
    9.000    3.1596
    9.015    3.1069
    9.030    2.7593
    9.045    3.0753
    9.060    3.0858
    9.075    3.0542
    9.090    3.2754
    9.105    3.1490
    9.120    3.3070
    9.135    3.0121
    9.150    3.1490
    9.165    3.3070
    9.180    3.0964
    9.195    3.2333
    9.210    3.1701
    9.225    3.0753
    9.240    3.0016
    9.255    3.0332
    9.270    3.0332
    9.285    3.0437
    9.300    3.0332
    9.315    3.0332
    9.330    3.0964
    9.345    3.1174
    9.360    3.0542
    9.375    3.2754
    9.390    3.0016
    9.405    2.8647
    9.420    2.7278
    9.435    2.9910
    9.450    2.8857
    9.465    3.2227
    9.480    3.1280
    9.495    2.9279
    9.510    3.0542
    9.525    3.1806
    9.540    3.0858
    9.555    3.0964
    9.570    3.1280
    9.585    3.0121
    9.600    3.0648
    9.615    3.4018
    9.630    3.2649
    9.645    3.0964
    9.660    2.9910
    9.675    3.2543
    9.690    2.9910
    9.705    3.0437
    9.720    3.0542
    9.735    3.0648
    9.750    2.9173
    9.765    2.8963
    9.780    2.9910
    9.795    3.1069
    9.810    2.9384
    9.825    2.9805
    9.840    3.1174
    9.855    3.2754
    9.870    3.1806
    9.885    3.2017
    9.900    3.0964
    9.915    2.9910
    9.930    3.2649
    9.945    3.2438
    9.960    3.1280
    9.975    3.2122
    9.990    3.0332
   10.005    2.9384
   10.020    2.9384
   10.035    2.7383
   10.050    3.0648
   10.065    3.0542
   10.080    2.9173
   10.095    3.1806
   10.110    3.0648
   10.125    3.1806
   10.140    3.2227
   10.155    3.1490
   10.170    3.2438
   10.185    3.0121
   10.200    2.9384
   10.215    2.8963
   10.230    2.7383
   10.245    2.9279
   10.260    2.9489
   10.275    2.8963
   10.290    3.0016
   10.305    2.7699
   10.320    2.8225
   10.335    3.0753
   10.350    3.0858
   10.365    2.9489
   10.380    3.0542
   10.395    3.0226
   10.410    2.8015
   10.425    3.0016
   10.440    2.9805
   10.455    2.6540
   10.470    2.8331
   10.485    3.0858
   10.500    3.0858
   10.515    2.9805
   10.530    3.0753
   10.545    2.9068
   10.560    3.3386
   10.575    3.2438
   10.590    3.0542
   10.605    2.9595
   10.620    2.7488
   10.635    2.9595
   10.650    3.0332
   10.665    2.9489
   10.680    2.8015
   10.695    2.8647
   10.710    2.9910
   10.725    3.2017
   10.740    3.3386
   10.755    3.0016
   10.770    3.1912
   10.785    2.8647
   10.800    2.8436
   10.815    3.0332
   10.830    3.1806
   10.845    3.2017
   10.860    2.9805
   10.875    3.0542
   10.890    2.7804
   10.905    3.1385
   10.920    2.9173
   10.935    2.8331
   10.950    3.2017
   10.965    3.1701
   10.980    3.1490
   10.995    3.0753
   11.010    3.0332
   11.025    2.9068
   11.040    2.8752
   11.055    3.0542
   11.070    2.8541
   11.085    2.8541
   11.100    2.9805
   11.115    3.1596
   11.130    3.1912
   11.145    3.2017
   11.160    3.0858
   11.175    2.9489
   11.190    3.0226
   11.205    2.9489
   11.220    2.6856
   11.235    3.0542
   11.250    2.8541
   11.265    3.0858
   11.280    3.2543
   11.295    3.1490
   11.310    3.1912
   11.325    2.9384
   11.340    2.8857
   11.355    2.6962
   11.370    2.7067
   11.385    3.0858
   11.400    3.1596
   11.415    3.0226
   11.430    2.9279
   11.445    3.1385
   11.460    3.1385
   11.475    2.8647
   11.490    2.7172
   11.505    3.0332
   11.520    2.5487
   11.535    2.9805
   11.550    3.0753
   11.565    2.8963
   11.580    2.8331
   11.595    2.8015
   11.610    2.8436
   11.625    2.9279
   11.640    3.0542
   11.655    2.6751
   11.670    2.7067
   11.685    2.9700
   11.700    2.9595
   11.715    2.7804
   11.730    2.9489
   11.745    2.9805
   11.760    2.9805
   11.775    2.8015
   11.790    2.9805
   11.805    3.1490
   11.820    3.0016
   11.835    2.8436
   11.850    3.0753
   11.865    3.1596
   11.880    2.8120
   11.895    2.6435
   11.910    2.8120
   11.925    2.9700
   11.940    2.8436
   11.955    2.7909
   11.970    2.8015
   11.985    2.8331
   12.000    2.6962
   12.015    2.7383
   12.030    2.7278
   12.045    2.7804
   12.060    2.8225
   12.075    2.8331
   12.090    3.1069
   12.105    2.9700
   12.120    2.7172
   12.135    2.7804
   12.150    2.8436
   12.165    2.9700
   12.180    2.8857
   12.195    2.7488
   12.210    2.7909
   12.225    2.6224
   12.240    2.7488
   12.255    2.7278
   12.270    2.8647
   12.285    2.7804
   12.300    2.4855
   12.315    2.6330
   12.330    2.7067
   12.345    2.8120
   12.360    2.8647
   12.375    2.7488
   12.390    3.0121
   12.405    3.0016
   12.420    2.9068
   12.435    2.7699
   12.450    3.0648
   12.465    2.8857
   12.480    2.9805
   12.495    2.8436
   12.510    2.5382
   12.525    2.6119
   12.540    2.9910
   12.555    2.6751
   12.570    2.7593
   12.585    2.7699
   12.600    2.7804
   12.615    2.8436
   12.630    3.1280
   12.645    3.0542
   12.660    2.7699
   12.675    2.7909
   12.690    2.7699
   12.705    2.7278
   12.720    2.7804
   12.735    2.8120
   12.750    2.7278
   12.765    3.0437
   12.780    2.8225
   12.795    2.6540
   12.810    2.8436
   12.825    2.8436
   12.840    2.9700
   12.855    2.7067
   12.870    2.6751
   12.885    2.6962
   12.900    2.9068
   12.915    2.7278
   12.930    2.7699
   12.945    2.8541
   12.960    2.8647
   12.975    2.8647
   12.990    2.7909
   13.005    2.7067
   13.020    2.8752
   13.035    2.8436
   13.050    2.8436
   13.065    3.0858
   13.080    3.0858
   13.095    2.8331
   13.110    2.9700
   13.125    2.7278
   13.140    2.6540
   13.155    2.8647
   13.170    2.8120
   13.185    3.0121
   13.200    2.8015
   13.215    2.8120
   13.230    2.9384
   13.245    2.9700
   13.260    2.8752
   13.275    2.7909
   13.290    2.4750
   13.305    2.6856
   13.320    2.9173
   13.335    2.6751
   13.350    2.6330
   13.365    2.6119
   13.380    2.4223
   13.395    2.7383
   13.410    2.8015
   13.425    2.6751
   13.440    2.8225
   13.455    2.7383
   13.470    2.6119
   13.485    2.6224
   13.500    2.8120
   13.515    2.7278
   13.530    2.6119
   13.545    2.7488
   13.560    2.8331
   13.575    2.8857
   13.590    2.7488
   13.605    2.3697
   13.620    2.6014
   13.635    2.7383
   13.650    2.6435
   13.665    2.8647
   13.680    2.9805
   13.695    2.7699
   13.710    2.6014
   13.725    2.7909
   13.740    2.7909
   13.755    2.8752
   13.770    2.8541
   13.785    2.8436
   13.800    2.8120
   13.815    2.6751
   13.830    2.7593
   13.845    2.6435
   13.860    2.4855
   13.875    2.6540
   13.890    2.6435
   13.905    2.8225
   13.920    2.6119
   13.935    2.7383
   13.950    2.7699
   13.965    2.7067
   13.980    2.8120
   13.995    2.6224
   14.010    2.8541
   14.025    2.7172
   14.040    2.7172
   14.055    2.6330
   14.070    2.8752
   14.085    2.6856
   14.100    2.8225
   14.115    2.7593
   14.130    2.4855
   14.145    2.5592
   14.160    2.7593
   14.175    2.6856
   14.190    2.6330
   14.205    2.6751
   14.220    2.5803
   14.235    2.6330
   14.250    2.6751
   14.265    2.6646
   14.280    2.7909
   14.295    2.9173
   14.310    2.8436
   14.325    2.8752
   14.340    2.5171
   14.355    2.5698
   14.370    2.5803
   14.385    2.4434
   14.400    2.5803
   14.415    2.7593
   14.430    2.8541
   14.445    2.7593
   14.460    2.6330
   14.475    2.5276
   14.490    2.8436
   14.505    2.8225
   14.520    2.7699
   14.535    2.9700
   14.550    2.7699
   14.565    2.6540
   14.580    2.7067
   14.595    2.4750
   14.610    2.6540
   14.625    2.6540
   14.640    2.6224
   14.655    2.6646
   14.670    2.6751
   14.685    2.7067
   14.700    2.6751
   14.715    2.6330
   14.730    2.7909
   14.745    2.6856
   14.760    2.6435
   14.775    2.5276
   14.790    2.7488
   14.805    2.5487
   14.820    2.6435
   14.835    2.6014
   14.850    2.7383
   14.865    2.8015
   14.880    2.5382
   14.895    2.7593
   14.910    2.6330
   14.925    2.6014
   14.940    2.6540
   14.955    2.4855
   14.970    2.7909
   14.985    2.8857
   15.000    2.5698
   15.015    2.7804
   15.030    2.7067
   15.045    2.9173
   15.060    2.8752
   15.075    2.7804
   15.090    3.0016
   15.105    2.8225
   15.120    2.7172
   15.135    2.5908
   15.150    2.6962
   15.165    2.3802
   15.180    2.7488
   15.195    2.8752
   15.210    2.7909
   15.225    2.7488
   15.240    2.5908
   15.255    2.6540
   15.270    2.8541
   15.285    2.6962
   15.300    2.6540
   15.315    2.6751
   15.330    3.1069
   15.345    2.7593
   15.360    2.7278
   15.375    2.5803
   15.390    2.7593
   15.405    2.7278
   15.420    2.8120
   15.435    2.7383
   15.450    2.5066
   15.465    2.4961
   15.480    2.7699
   15.495    2.5382
   15.510    2.4961
   15.525    2.7699
   15.540    2.9910
   15.555    2.7593
   15.570    2.9279
   15.585    2.7278
   15.600    2.4961
   15.615    2.7383
   15.630    2.5382
   15.645    2.5276
   15.660    2.4961
   15.675    2.6435
   15.690    2.8120
   15.705    3.0121
   15.720    2.8857
   15.735    2.5803
   15.750    2.5382
   15.765    2.8331
   15.780    2.7699
   15.795    2.6856
   15.810    2.6119
   15.825    2.6119
   15.840    2.7067
   15.855    2.5382
   15.870    2.6224
   15.885    2.7488
   15.900    2.6646
   15.915    2.6014
   15.930    2.5908
   15.945    2.8015
   15.960    2.7067
   15.975    2.8436
   15.990    2.7804
   16.005    2.6856
   16.020    2.8120
   16.035    2.6962
   16.050    2.5908
   16.065    2.6330
   16.080    2.5908
   16.095    2.6751
   16.110    2.8647
   16.125    2.7488
   16.140    2.5276
   16.155    2.5276
   16.170    2.8436
   16.185    2.5592
   16.200    2.9279
   16.215    2.6646
   16.230    2.7909
   16.245    2.9279
   16.260    2.9489
   16.275    2.8015
   16.290    2.4329
   16.305    2.4645
   16.320    2.5382
   16.335    2.4855
   16.350    2.7909
   16.365    2.6330
   16.380    2.5803
   16.395    2.5803
   16.410    2.6751
   16.425    2.8857
   16.440    2.9595
   16.455    2.9384
   16.470    2.8436
   16.485    2.8015
   16.500    2.6962
   16.515    2.3486
   16.530    2.4645
   16.545    2.7383
   16.560    2.7593
   16.575    2.8963
   16.590    2.8963
   16.605    2.6224
   16.620    2.3381
   16.635    2.7067
   16.650    2.9173
   16.665    2.8857
   16.680    2.8331
   16.695    2.8225
   16.710    2.6856
   16.725    2.8015
   16.740    2.7383
   16.755    2.6646
   16.770    2.6751
   16.785    2.7804
   16.800    2.7699
   16.815    2.9279
   16.830    2.8647
   16.845    2.7172
   16.860    2.8752
   16.875    2.7383
   16.890    2.6646
   16.905    2.6330
   16.920    2.4645
   16.935    2.7593
   16.950    2.5276
   16.965    2.8120
   16.980    2.4539
   16.995    2.5276
   17.010    2.7593
   17.025    2.7593
   17.040    2.7699
   17.055    2.7067
   17.070    2.6962
   17.085    2.6646
   17.100    2.7383
   17.115    2.7909
   17.130    2.6014
   17.145    2.5382
   17.160    2.6540
   17.175    2.6119
   17.190    2.6540
   17.205    2.7172
   17.220    2.5276
   17.235    2.6435
   17.250    2.8120
   17.265    2.7488
   17.280    2.7593
   17.295    2.7804
   17.310    2.8963
   17.325    2.8015
   17.340    2.9910
   17.355    2.9910
   17.370    2.7278
   17.385    2.5908
   17.400    2.6435
   17.415    2.6751
   17.430    2.8963
   17.445    2.6540
   17.460    2.5171
   17.475    2.6856
   17.490    2.6646
   17.505    2.8857
   17.520    2.5066
   17.535    2.8963
   17.550    2.9595
   17.565    2.5382
   17.580    2.7804
   17.595    2.8015
   17.610    2.9700
   17.625    2.9489
   17.640    2.6856
   17.655    2.5908
   17.670    2.6962
   17.685    2.6540
   17.700    2.6751
   17.715    2.8120
   17.730    2.6014
   17.745    2.8752
   17.760    2.6224
   17.775    2.5908
   17.790    2.6856
   17.805    2.7699
   17.820    2.5276
   17.835    2.6646
   17.850    2.8015
   17.865    2.5803
   17.880    2.5382
   17.895    2.5803
   17.910    2.9068
   17.925    2.7172
   17.940    2.5487
   17.955    2.8120
   17.970    2.8752
   17.985    2.8120
   18.000    2.7383
   18.015    2.7488
   18.030    2.5698
   18.045    2.5066
   18.060    2.5908
   18.075    2.4855
   18.090    2.4329
   18.105    2.7383
   18.120    2.5487
   18.135    2.4223
   18.150    2.5803
   18.165    2.5066
   18.180    2.7067
   18.195    2.8857
   18.210    2.8647
   18.225    2.7383
   18.240    2.6119
   18.255    2.6224
   18.270    2.6224
   18.285    2.7909
   18.300    2.7172
   18.315    2.6540
   18.330    2.8436
   18.345    2.7278
   18.360    2.6962
   18.375    2.7383
   18.390    2.6646
   18.405    2.6119
   18.420    2.6962
   18.435    2.7278
   18.450    2.6751
   18.465    2.7488
   18.480    2.9279
   18.495    2.6224
   18.510    2.7278
   18.525    2.7383
   18.540    2.6014
   18.555    2.8647
   18.570    2.8647
   18.585    2.8647
   18.600    2.6856
   18.615    2.5908
   18.630    2.6646
   18.645    2.5592
   18.660    2.5276
   18.675    2.6330
   18.690    2.5171
   18.705    2.4645
   18.720    2.8120
   18.735    2.6962
   18.750    2.7699
   18.765    2.7593
   18.780    2.6646
   18.795    2.8541
   18.810    2.8541
   18.825    2.7278
   18.840    2.8120
   18.855    2.6856
   18.870    2.9279
   18.885    2.6224
   18.900    2.7699
   18.915    2.8541
   18.930    2.7383
   18.945    2.8331
   18.960    2.7593
   18.975    2.7804
   18.990    2.6330
   19.005    2.9489
   19.020    2.9910
   19.035    3.0332
   19.050    2.7909
   19.065    2.4961
   19.080    2.7593
   19.095    2.8331
   19.110    3.1806
   19.125    2.8752
   19.140    2.5803
   19.155    2.6330
   19.170    2.8436
   19.185    2.6540
   19.200    2.7909
   19.215    2.6014
   19.230    2.6435
   19.245    2.8331
   19.260    3.1280
   19.275    2.7067
   19.290    2.7909
   19.305    2.9595
   19.320    2.5803
   19.335    2.8331
   19.350    2.8963
   19.365    2.6014
   19.380    2.6962
   19.395    2.8331
   19.410    2.6856
   19.425    2.6856
   19.440    2.7278
   19.455    2.9489
   19.470    2.6646
   19.485    2.6330
   19.500    2.9595
   19.515    3.0858
   19.530    2.8963
   19.545    2.5908
   19.560    2.4329
   19.575    2.6751
   19.590    2.7804
   19.605    2.3697
   19.620    2.7804
   19.635    2.7593
   19.650    2.6119
   19.665    2.8225
   19.680    2.8120
   19.695    2.7909
   19.710    2.5276
   19.725    2.6540
   19.740    2.8225
   19.755    2.6962
   19.770    2.6646
   19.785    2.9489
   19.800    2.8436
   19.815    2.8331
   19.830    2.9279
   19.845    2.6751
   19.860    2.9173
   19.875    2.8963
   19.890    2.9595
   19.905    2.8857
   19.920    2.5592
   19.935    2.7383
   19.950    2.6962
   19.965    2.8436
   19.980    2.7909
   19.995    2.7909
   20.010    2.8541
   20.025    2.5908
   20.040    2.7909
   20.055    2.7278
   20.070    2.4539
   20.085    2.7909
   20.100    2.8331
   20.115    2.8857
   20.130    3.0437
   20.145    2.8225
   20.160    2.8120
   20.175    2.7383
   20.190    2.7699
   20.205    2.9068
   20.220    2.8752
   20.235    2.7699
   20.250    2.8857
   20.265    2.9384
   20.280    2.6751
   20.295    2.9700
   20.310    3.1174
   20.325    2.7488
   20.340    2.7699
   20.355    2.8436
   20.370    2.7488
   20.385    3.0016
   20.400    2.7488
   20.415    2.7699
   20.430    2.6646
   20.445    2.5066
   20.460    2.5592
   20.475    2.8120
   20.490    2.7067
   20.505    2.7909
   20.520    2.6014
   20.535    2.6330
   20.550    2.6540
   20.565    2.7488
   20.580    2.5803
   20.595    2.5382
   20.610    3.0753
   20.625    2.7699
   20.640    2.6962
   20.655    2.8015
   20.670    3.1174
   20.685    2.7804
   20.700    2.6646
   20.715    2.7488
   20.730    2.8752
   20.745    2.8331
   20.760    2.8857
   20.775    2.6856
   20.790    2.8541
   20.805    2.8752
   20.820    2.7909
   20.835    2.7383
   20.850    2.8857
   20.865    2.5803
   20.880    2.5908
   20.895    2.9173
   20.910    2.7172
   20.925    2.7699
   20.940    2.8436
   20.955    2.7593
   20.970    2.7699
   20.985    2.6646
   21.000    2.7804
   21.015    2.7804
   21.030    3.0121
   21.045    3.0648
   21.060    3.0858
   21.075    2.8541
   21.090    2.6856
   21.105    2.5487
   21.120    2.7278
   21.135    2.5592
   21.150    2.7804
   21.165    3.0648
   21.180    2.7804
   21.195    2.7909
   21.210    2.6751
   21.225    3.0121
   21.240    2.6435
   21.255    2.6330
   21.270    2.8752
   21.285    2.7804
   21.300    2.7172
   21.315    2.8120
   21.330    2.6751
   21.345    2.7699
   21.360    2.8436
   21.375    2.6856
   21.390    2.6540
   21.405    2.7909
   21.420    2.7278
   21.435    2.8015
   21.450    3.0542
   21.465    2.7804
   21.480    2.7593
   21.495    3.0332
   21.510    2.7488
   21.525    3.0437
   21.540    3.0648
   21.555    2.9805
   21.570    2.7067
   21.585    2.5592
   21.600    2.6751
   21.615    2.7278
   21.630    2.6014
   21.645    2.6435
   21.660    2.6856
   21.675    2.7067
   21.690    2.7067
   21.705    2.9384
   21.720    2.6224
   21.735    2.6646
   21.750    2.7383
   21.765    2.8436
   21.780    2.6540
   21.795    2.7804
   21.810    2.6646
   21.825    2.6330
   21.840    2.8331
   21.855    2.5276
   21.870    2.8541
   21.885    2.9595
   21.900    2.7067
   21.915    2.6224
   21.930    2.9805
   21.945    2.7488
   21.960    2.8752
   21.975    2.6646
   21.990    2.6751
   22.005    2.6962
   22.020    2.7067
   22.035    2.5487
   22.050    2.6962
   22.065    2.9384
   22.080    2.7172
   22.095    2.5698
   22.110    2.6856
   22.125    2.7067
   22.140    2.8225
   22.155    2.8963
   22.170    2.9173
   22.185    3.0542
   22.200    2.7172
   22.215    2.7278
   22.230    2.8541
   22.245    2.8963
   22.260    2.8857
   22.275    3.0226
   22.290    2.8225
   22.305    2.8225
   22.320    2.5382
   22.335    2.9595
   22.350    2.6014
   22.365    2.6014
   22.380    2.6119
   22.395    2.6962
   22.410    2.6119
   22.425    2.7593
   22.440    2.8331
   22.455    2.5066
   22.470    2.6435
   22.485    2.6119
   22.500    2.7593
   22.515    2.7172
   22.530    2.8436
   22.545    2.7172
   22.560    2.6646
   22.575    2.6646
   22.590    2.7909
   22.605    2.8963
   22.620    2.6540
   22.635    2.7804
   22.650    2.7383
   22.665    2.6646
   22.680    2.6224
   22.695    2.7172
   22.710    2.6224
   22.725    2.8963
   22.740    2.8225
   22.755    2.7172
   22.770    2.7699
   22.785    2.6646
   22.800    2.6014
   22.815    2.8120
   22.830    2.9489
   22.845    2.7699
   22.860    2.8436
   22.875    2.7909
   22.890    2.8436
   22.905    2.7488
   22.920    2.4961
   22.935    2.5487
   22.950    2.6646
   22.965    2.8752
   22.980    2.6856
   22.995    2.6962
   23.010    2.4645
   23.025    2.8857
   23.040    2.7172
   23.055    2.6646
   23.070    2.5276
   23.085    2.7593
   23.100    2.6962
   23.115    2.5908
   23.130    2.5276
   23.145    2.7804
   23.160    2.6540
   23.175    2.6646
   23.190    2.7699
   23.205    2.7909
   23.220    2.7067
   23.235    2.5382
   23.250    2.8436
   23.265    2.9173
   23.280    2.8331
   23.295    2.6014
   23.310    2.6119
   23.325    2.6646
   23.340    2.8436
   23.355    2.5066
   23.370    2.6856
   23.385    2.4329
   23.400    2.4855
   23.415    2.7067
   23.430    2.7278
   23.445    2.6751
   23.460    2.5803
   23.475    3.0332
   23.490    2.8331
   23.505    2.6435
   23.520    2.8120
   23.535    2.4329
   23.550    2.8015
   23.565    2.6646
   23.580    2.7488
   23.595    2.7593
   23.610    2.5803
   23.625    2.9279
   23.640    2.7383
   23.655    2.7383
   23.670    2.5066
   23.685    2.8963
   23.700    2.7383
   23.715    2.5487
   23.730    2.7593
   23.745    2.7804
   23.760    2.7278
   23.775    2.5382
   23.790    2.7593
   23.805    2.8963
   23.820    2.7593
   23.835    3.1174
   23.850    2.5698
   23.865    2.4645
   23.880    2.4750
   23.895    2.6540
   23.910    2.7593
   23.925    2.6962
   23.940    2.7488
   23.955    2.6856
   23.970    2.6435
   23.985    2.6856
   24.000    2.7488
   24.015    2.8752
   24.030    2.7699
   24.045    3.0121
   24.060    2.7278
   24.075    2.7909
   24.090    2.7699
   24.105    2.6962
   24.120    2.7593
   24.135    2.6330
   24.150    2.8015
   24.165    2.7699
   24.180    2.8647
   24.195    2.6751
   24.210    2.6014
   24.225    2.5908
   24.240    2.6856
   24.255    2.5803
   24.270    2.6540
   24.285    2.8225
   24.300    2.8647
   24.315    2.8541
   24.330    2.7383
   24.345    2.6014
   24.360    2.4223
   24.375    2.6540
   24.390    2.7172
   24.405    2.5171
   24.420    2.5698
   24.435    2.5276
   24.450    2.4223
   24.465    2.5066
   24.480    2.4013
   24.495    2.3065
   24.510    2.4645
   24.525    2.5698
   24.540    2.4539
   24.555    2.5487
   24.570    2.5908
   24.585    2.6962
   24.600    2.5276
   24.615    2.3907
   24.630    2.3381
   24.645    2.4329
   24.660    3.0121
   24.675    2.8963
   24.690    2.7383
   24.705    2.6119
   24.720    2.6751
   24.735    2.7383
   24.750    2.5171
   24.765    2.6856
   24.780    2.5276
   24.795    2.6014
   24.810    2.5382
   24.825    2.6330
   24.840    2.6119
   24.855    2.5276
   24.870    2.4855
   24.885    2.4539
   24.900    2.7067
   24.915    2.6330
   24.930    2.7067
   24.945    2.4855
   24.960    2.7488
   24.975    2.7593
   24.990    2.7909
   25.005    2.6435
   25.020    2.4750
   25.035    2.5803
   25.050    2.6646
   25.065    2.8015
   25.080    2.6751
   25.095    2.6435
   25.110    2.6119
   25.125    2.4434
   25.140    2.6014
   25.155    2.4434
   25.170    2.5908
   25.185    2.8331
   25.200    2.6540
   25.215    2.5276
   25.230    2.5487
   25.245    2.5487
   25.260    2.2959
   25.275    2.3486
   25.290    2.6751
   25.305    2.6119
   25.320    2.4855
   25.335    2.6751
   25.350    2.5908
   25.365    2.6119
   25.380    2.5171
   25.395    2.6014
   25.410    2.4645
   25.425    2.3907
   25.440    2.2854
   25.455    2.5487
   25.470    2.6330
   25.485    2.7909
   25.500    2.8857
   25.515    2.9700
   25.530    2.6962
   25.545    2.4223
   25.560    2.3170
   25.575    2.5803
   25.590    2.4855
   25.605    2.4539
   25.620    2.5066
   25.635    2.4961
   25.650    2.5803
   25.665    2.4539
   25.680    2.5698
   25.695    2.2749
   25.710    2.3275
   25.725    2.4329
   25.740    2.4750
   25.755    2.6330
   25.770    2.5698
   25.785    2.6435
   25.800    2.8541
   25.815    2.7278
   25.830    2.6330
   25.845    2.4855
   25.860    2.5487
   25.875    2.3591
   25.890    2.4750
   25.905    2.4329
   25.920    2.4855
   25.935    2.6856
   25.950    2.4539
   25.965    2.4539
   25.980    2.4539
   25.995    2.6540
   26.010    2.8225
   26.025    2.6962
   26.040    2.3907
   26.055    2.6751
   26.070    2.5698
   26.085    2.7488
   26.100    2.6540
   26.115    2.4750
   26.130    2.5382
   26.145    2.7593
   26.160    2.3697
   26.175    2.5171
   26.190    2.5487
   26.205    2.4645
   26.220    2.4434
   26.235    2.5276
   26.250    2.6856
   26.265    2.6224
   26.280    2.5487
   26.295    2.4118
   26.310    2.3065
   26.325    2.4118
   26.340    2.6224
   26.355    2.4645
   26.370    2.5592
   26.385    2.5908
   26.400    2.3381
   26.415    2.4645
   26.430    2.2749
   26.445    2.2643
   26.460    2.5066
   26.475    2.4013
   26.490    2.4855
   26.505    2.6014
   26.520    2.6435
   26.535    2.4539
   26.550    2.3381
   26.565    2.2959
   26.580    2.4961
   26.595    2.5592
   26.610    2.3275
   26.625    2.4223
   26.640    2.4223
   26.655    2.5592
   26.670    2.6435
   26.685    2.5382
   26.700    2.4539
   26.715    2.3697
   26.730    2.3907
   26.745    2.4013
   26.760    2.7172
   26.775    2.4434
   26.790    2.4645
   26.805    2.3275
   26.820    2.4329
   26.835    2.4750
   26.850    2.2959
   26.865    2.3697
   26.880    2.6119
   26.895    2.4855
   26.910    2.2854
   26.925    2.4434
   26.940    2.5592
   26.955    2.4855
   26.970    2.3591
   26.985    2.2959
   27.000    2.2538
   27.015    2.4961
   27.030    2.5382
   27.045    2.4645
   27.060    2.5487
   27.075    2.3275
   27.090    2.3275
   27.105    2.4223
   27.120    2.3907
   27.135    2.2959
   27.150    2.3486
   27.165    2.3486
   27.180    2.4645
   27.195    2.5171
   27.210    2.7488
   27.225    2.4645
   27.240    2.3907
   27.255    2.7383
   27.270    2.5698
   27.285    2.3275
   27.300    2.3802
   27.315    2.2538
   27.330    2.4539
   27.345    2.3697
   27.360    2.1906
   27.375    2.4434
   27.390    2.3697
   27.405    2.3802
   27.420    2.4645
   27.435    2.3381
   27.450    2.2222
   27.465    2.6224
   27.480    2.8225
   27.495    2.5066
   27.510    2.5066
   27.525    2.2328
   27.540    2.4329
   27.555    2.5908
   27.570    2.4223
   27.585    2.4750
   27.600    2.4855
   27.615    2.5171
   27.630    2.4118
   27.645    2.3802
   27.660    2.4645
   27.675    2.6014
   27.690    2.3697
   27.705    2.4329
   27.720    2.5066
   27.735    2.3697
   27.750    2.5487
   27.765    2.6435
   27.780    2.6224
   27.795    2.3275
   27.810    2.4961
   27.825    2.4539
   27.840    2.4013
   27.855    2.4750
   27.870    2.4013
   27.885    2.4223
   27.900    2.3381
   27.915    2.2433
   27.930    2.2117
   27.945    2.2749
   27.960    2.4223
   27.975    2.5382
   27.990    2.6119
   28.005    2.4434
   28.020    2.5276
   28.035    2.3907
   28.050    2.2012
   28.065    2.0432
   28.080    2.2643
   28.095    2.3802
   28.110    2.3170
   28.125    2.6014
   28.140    2.3907
   28.155    2.1169
   28.170    2.1169
   28.185    2.2959
   28.200    2.2959
   28.215    2.2538
   28.230    1.9800
   28.245    2.1906
   28.260    2.4961
   28.275    2.5803
   28.290    2.3591
   28.305    2.3907
   28.320    2.2749
   28.335    2.4645
   28.350    2.4539
   28.365    2.3486
   28.380    2.6856
   28.395    2.4223
   28.410    2.4434
   28.425    2.3275
   28.440    2.2854
   28.455    2.4118
   28.470    2.2643
   28.485    2.3697
   28.500    2.4539
   28.515    2.2222
   28.530    2.3170
   28.545    2.4750
   28.560    2.2749
   28.575    2.2117
   28.590    2.0958
   28.605    2.1696
   28.620    2.3697
   28.635    2.2538
   28.650    2.1801
   28.665    2.3381
   28.680    2.3381
   28.695    2.4329
   28.710    2.3381
   28.725    2.2959
   28.740    2.6014
   28.755    2.1274
   28.770    1.9905
   28.785    2.1590
   28.800    2.2643
   28.815    2.3907
   28.830    2.3907
   28.845    2.3697
   28.860    2.4434
   28.875    2.3907
   28.890    2.2117
   28.905    2.1064
   28.920    2.0958
   28.935    2.3486
   28.950    2.3486
   28.965    2.2643
   28.980    2.2959
   28.995    2.0432
   29.010    2.2012
   29.025    2.3802
   29.040    2.3065
   29.055    2.2538
   29.070    2.2433
   29.085    2.4434
   29.100    2.4645
   29.115    2.4539
   29.130    2.3697
   29.145    2.1906
   29.160    2.4855
   29.175    2.6224
   29.190    2.1485
   29.205    2.3591
   29.220    2.2222
   29.235    2.2328
   29.250    2.2854
   29.265    2.2959
   29.280    2.3065
   29.295    2.2959
   29.310    2.1906
   29.325    2.1696
   29.340    2.4434
   29.355    2.3381
   29.370    2.0958
   29.385    2.4013
   29.400    2.1696
   29.415    2.2222
   29.430    2.2538
   29.445    2.1274
   29.460    2.0748
   29.475    2.0748
   29.490    2.1906
   29.505    2.4961
   29.520    2.5592
   29.535    2.3591
   29.550    2.1485
   29.565    2.1380
   29.580    2.3802
   29.595    2.3697
   29.610    2.3065
   29.625    2.3381
   29.640    2.3381
   29.655    2.3275
   29.670    2.3486
   29.685    2.2959
   29.700    2.1696
   29.715    2.1696
   29.730    2.0221
   29.745    2.2012
   29.760    2.2959
   29.775    2.3591
   29.790    2.2643
   29.805    2.2117
   29.820    2.2538
   29.835    2.1590
   29.850    2.2222
   29.865    2.1274
   29.880    2.2959
   29.895    2.4329
   29.910    2.3697
   29.925    2.2117
   29.940    2.1801
   29.955    2.0642
   29.970    2.0326
   29.985    2.5171
   30.000    2.3697
   30.015    2.2538
   30.030    2.2117
   30.045    2.0221
   30.060    2.1801
   30.075    2.1169
   30.090    2.0958
   30.105    2.2328
   30.120    2.2538
   30.135    2.2222
   30.150    2.2643
   30.165    2.2959
   30.180    2.1485
   30.195    2.2328
   30.210    2.3802
   30.225    2.2538
   30.240    2.2854
   30.255    2.0642
   30.270    2.3170
   30.285    2.3065
   30.300    2.1380
   30.315    2.0432
   30.330    2.0642
   30.345    2.1590
   30.360    2.3170
   30.375    2.0748
   30.390    2.1696
   30.405    1.9800
   30.420    2.0958
   30.435    2.0642
   30.450    2.1696
   30.465    2.2433
   30.480    2.1485
   30.495    2.2433
   30.510    2.3697
   30.525    2.4750
   30.540    2.1485
   30.555    1.9484
   30.570    2.2222
   30.585    2.0958
   30.600    1.9800
   30.615    2.1696
   30.630    2.1485
   30.645    2.1906
   30.660    2.1380
   30.675    1.9800
   30.690    2.1169
   30.705    2.2433
   30.720    2.2643
   30.735    2.2222
   30.750    2.3275
   30.765    2.3170
   30.780    2.1590
   30.795    2.2538
   30.810    2.1906
   30.825    1.9379
   30.840    2.0958
   30.855    2.0432
   30.870    1.9063
   30.885    2.1274
   30.900    1.9695
   30.915    2.0432
   30.930    2.1485
   30.945    2.0853
   30.960    2.0432
   30.975    2.0537
   30.990    2.0958
   31.005    2.0537
   31.020    2.2117
   31.035    1.9484
   31.050    1.9589
   31.065    2.1801
   31.080    2.1064
   31.095    2.1485
   31.110    2.1590
   31.125    2.1590
   31.140    1.9905
   31.155    1.9379
   31.170    2.0221
   31.185    2.1485
   31.200    2.1274
   31.215    2.2538
   31.230    2.1485
   31.245    2.2328
   31.260    2.1169
   31.275    2.0116
   31.290    2.1485
   31.305    2.1064
   31.320    2.3486
   31.335    2.2117
   31.350    2.1274
   31.365    1.9800
   31.380    1.9695
   31.395    1.8325
   31.410    2.0537
   31.425    2.0958
   31.440    2.0748
   31.455    2.0116
   31.470    1.8536
   31.485    2.0537
   31.500    2.2538
   31.515    1.9484
   31.530    2.3381
   31.545    2.1169
   31.560    2.1169
   31.575    2.1380
   31.590    2.0011
   31.605    2.2433
   31.620    2.2222
   31.635    1.9273
   31.650    2.1590
   31.665    2.1169
   31.680    2.1696
   31.695    2.0748
   31.710    2.1906
   31.725    1.9800
   31.740    1.9905
   31.755    2.0748
   31.770    2.1906
   31.785    2.1696
   31.800    1.8852
   31.815    2.1380
   31.830    1.9800
   31.845    2.0432
   31.860    1.9589
   31.875    1.9168
   31.890    2.1696
   31.905    2.2012
   31.920    1.8957
   31.935    2.0326
   31.950    1.9484
   31.965    2.0116
   31.980    2.0116
   31.995    1.9168
   32.010    1.8641
   32.025    2.0326
   32.040    2.2222
   32.055    2.0958
   32.070    1.9379
   32.085    2.0642
   32.100    2.2749
   32.115    2.0537
   32.130    2.0011
   32.145    2.0537
   32.160    1.7904
   32.175    1.8115
   32.190    2.0537
   32.205    2.2328
   32.220    2.1169
   32.235    2.1485
   32.250    2.0853
   32.265    1.8957
   32.280    1.9273
   32.295    2.0221
   32.310    2.0537
   32.325    2.0748
   32.340    1.8747
   32.355    2.1169
   32.370    2.2538
   32.385    1.9695
   32.400    1.8747
   32.415    1.9379
   32.430    2.1169
   32.445    2.1274
   32.460    2.3381
   32.475    2.0116
   32.490    2.1064
   32.505    2.2538
   32.520    1.9168
   32.535    1.9905
   32.550    1.9168
   32.565    2.1064
   32.580    2.2012
   32.595    2.0958
   32.610    2.0011
   32.625    1.8536
   32.640    2.1380
   32.655    2.0116
   32.670    2.0432
   32.685    2.0432
   32.700    2.0116
   32.715    2.1485
   32.730    1.7588
   32.745    1.8009
   32.760    1.9800
   32.775    1.7483
   32.790    1.7694
   32.805    1.8009
   32.820    1.8536
   32.835    1.6535
   32.850    1.6956
   32.865    1.7694
   32.880    1.8325
   32.895    1.7588
   32.910    1.9589
   32.925    2.2012
   32.940    2.0221
   32.955    2.0748
   32.970    1.9273
   32.985    2.1274
   33.000    1.8536
   33.015    1.7904
   33.030    1.9589
   33.045    2.1696
   33.060    1.9800
   33.075    2.1169
   33.090    1.7483
   33.105    2.0221
   33.120    1.8115
   33.135    1.7483
   33.150    1.8325
   33.165    2.1485
   33.180    2.0537
   33.195    1.9905
   33.210    2.0642
   33.225    1.8641
   33.240    1.9800
   33.255    2.0853
   33.270    2.2222
   33.285    2.0116
   33.300    1.9168
   33.315    1.6746
   33.330    1.9273
   33.345    1.9168
   33.360    1.9905
   33.375    2.0432
   33.390    1.9695
   33.405    1.8852
   33.420    1.9168
   33.435    1.9695
   33.450    1.9379
   33.465    1.9589
   33.480    1.7378
   33.495    1.9168
   33.510    2.0011
   33.525    2.0116
   33.540    2.0116
   33.555    1.8852
   33.570    1.8747
   33.585    2.0116
   33.600    2.0116
   33.615    1.7167
   33.630    1.8009
   33.645    1.8009
   33.660    1.9063
   33.675    2.1274
   33.690    1.9695
   33.705    1.9695
   33.720    1.9168
   33.735    2.0116
   33.750    1.7272
   33.765    1.9168
   33.780    1.9800
   33.795    2.0748
   33.810    2.0326
   33.825    1.8536
   33.840    1.9589
   33.855    1.9695
   33.870    1.8325
   33.885    1.7483
   33.900    1.9168
   33.915    1.9484
   33.930    2.0853
   33.945    1.9063
   33.960    1.9168
   33.975    1.9063
   33.990    1.8641
   34.005    1.9273
   34.020    1.7483
   34.035    1.9063
   34.050    2.0011
   34.065    1.6640
   34.080    1.7904
   34.095    1.7588
   34.110    1.7799
   34.125    1.8641
   34.140    1.7904
   34.155    1.6956
   34.170    1.9695
   34.185    1.9695
   34.200    1.9589
   34.215    2.0011
   34.230    2.0011
   34.245    1.9695
   34.260    1.9063
   34.275    1.8009
   34.290    1.8220
   34.305    1.7588
   34.320    2.1169
   34.335    1.9589
   34.350    1.6324
   34.365    1.7378
   34.380    1.8852
   34.395    2.0958
   34.410    1.8325
   34.425    1.7904
   34.440    1.7799
   34.455    2.0116
   34.470    1.8220
   34.485    1.7378
   34.500    1.9168
   34.515    1.7904
   34.530    2.0116
   34.545    1.8852
   34.560    1.9273
   34.575    1.8431
   34.590    1.8641
   34.605    1.7378
   34.620    1.8747
   34.635    1.9063
   34.650    1.7483
   34.665    1.9168
   34.680    1.7167
   34.695    2.0748
   34.710    1.8957
   34.725    1.7378
   34.740    1.8641
   34.755    1.8641
   34.770    1.8747
   34.785    1.7588
   34.800    1.7483
   34.815    1.9168
   34.830    1.8115
   34.845    1.9063
   34.860    1.9063
   34.875    1.9800
   34.890    1.8115
   34.905    1.8325
   34.920    1.8325
   34.935    1.8852
   34.950    1.8115
   34.965    1.7694
   34.980    1.8325
   34.995    1.8115
   35.010    1.9695
   35.025    1.7378
   35.040    1.8957
   35.055    1.8852
   35.070    1.7588
   35.085    2.0642
   35.100    1.9484
   35.115    1.6324
   35.130    1.6746
   35.145    1.7272
   35.160    1.9695
   35.175    1.6430
   35.190    1.6640
   35.205    1.7483
   35.220    1.9273
   35.235    1.7694
   35.250    1.6746
   35.265    1.9063
   35.280    1.7588
   35.295    1.9905
   35.310    1.8009
   35.325    1.7694
   35.340    1.7272
   35.355    1.8957
   35.370    2.0116
   35.385    1.8220
   35.400    1.6640
   35.415    1.9589
   35.430    1.9273
   35.445    1.6430
   35.460    1.8220
   35.475    1.6219
   35.490    1.7167
   35.505    1.8325
   35.520    1.8536
   35.535    1.9168
   35.550    1.5482
   35.565    1.8431
   35.580    1.7483
   35.595    1.8747
   35.610    1.6219
   35.625    1.6430
   35.640    1.7799
   35.655    1.7167
   35.670    1.8747
   35.685    1.9379
   35.700    1.6219
   35.715    1.8431
   35.730    1.9273
   35.745    1.8747
   35.760    1.7904
   35.775    1.6219
   35.790    1.6746
   35.805    1.9905
   35.820    1.8431
   35.835    1.8115
   35.850    1.6640
   35.865    1.5587
   35.880    1.9168
   35.895    1.8957
   35.910    1.6324
   35.925    1.7167
   35.940    1.7904
   35.955    1.7167
   35.970    1.7378
   35.985    1.5377
   36.000    1.6324
   36.015    1.9168
   36.030    1.7483
   36.045    1.7904
   36.060    1.8747
   36.075    1.6535
   36.090    1.5798
   36.105    1.8325
   36.120    1.7483
   36.135    1.6114
   36.150    1.7167
   36.165    1.5061
   36.180    1.7167
   36.195    1.7799
   36.210    1.7272
   36.225    1.6324
   36.240    1.6746
   36.255    1.8641
   36.270    1.7167
   36.285    1.5798
   36.300    1.7167
   36.315    1.7483
   36.330    1.9063
   36.345    1.8536
   36.360    1.8747
   36.375    1.5798
   36.390    1.5903
   36.405    1.8641
   36.420    1.9379
   36.435    1.5587
   36.450    1.6535
   36.465    1.6956
   36.480    1.8009
   36.495    1.6430
   36.510    1.8115
   36.525    1.6640
   36.540    1.6851
   36.555    1.6535
   36.570    1.5692
   36.585    1.6746
   36.600    1.4429
   36.615    1.6956
   36.630    1.7799
   36.645    1.9273
   36.660    1.8431
   36.675    1.5798
   36.690    1.5692
   36.705    1.6324
   36.720    1.6746
   36.735    1.5903
   36.750    1.4323
   36.765    1.5271
   36.780    1.6851
   36.795    1.5061
   36.810    1.7378
   36.825    1.8220
   36.840    1.7062
   36.855    1.6746
   36.870    1.6219
   36.885    1.6535
   36.900    1.6324
   36.915    1.7799
   36.930    1.8325
   36.945    1.6324
   36.960    1.6430
   36.975    1.5061
   36.990    1.5166
   37.005    1.5482
   37.020    1.5798
   37.035    1.7167
   37.050    1.7167
   37.065    1.7167
   37.080    1.7483
   37.095    1.7062
   37.110    1.5587
   37.125    1.4639
   37.140    1.6535
   37.155    1.7694
   37.170    1.8325
   37.185    1.8220
   37.200    1.7378
   37.215    1.6219
   37.230    1.4534
   37.245    1.7062
   37.260    1.4955
   37.275    1.6324
   37.290    1.6430
   37.305    1.6430
   37.320    1.7272
   37.335    1.8431
   37.350    1.9273
   37.365    1.8009
   37.380    1.6008
   37.395    1.8325
   37.410    1.8009
   37.425    1.6640
   37.440    1.4429
   37.455    1.6114
   37.470    1.6535
   37.485    1.4639
   37.500    1.7694
   37.515    1.6851
   37.530    1.5692
   37.545    1.6851
   37.560    1.7483
   37.575    1.7167
   37.590    1.6956
   37.605    1.6430
   37.620    1.5692
   37.635    1.5903
   37.650    1.7483
   37.665    1.6324
   37.680    1.5587
   37.695    1.5692
   37.710    1.6746
   37.725    1.6640
   37.740    1.6746
   37.755    1.5692
   37.770    1.5798
   37.785    1.7904
   37.800    1.9063
   37.815    1.8009
   37.830    1.7694
   37.845    1.6535
   37.860    1.6535
   37.875    1.8009
   37.890    1.6851
   37.905    1.4323
   37.920    1.5903
   37.935    1.8536
   37.950    1.6535
   37.965    1.6324
   37.980    1.6430
   37.995    1.6008
   38.010    1.7062
   38.025    1.6324
   38.040    1.9168
   38.055    1.7588
   38.070    1.5587
   38.085    1.5482
   38.100    1.5692
   38.115    1.5271
   38.130    1.6324
   38.145    1.8009
   38.160    1.4323
   38.175    1.4534
   38.190    1.4745
   38.205    1.4955
   38.220    1.7272
   38.235    1.5482
   38.250    1.5692
   38.265    1.7062
   38.280    1.6324
   38.295    1.4745
   38.310    1.5903
   38.325    1.6640
   38.340    1.6430
   38.355    1.6219
   38.370    1.8115
   38.385    1.6219
   38.400    1.6008
   38.415    1.8325
   38.430    1.7588
   38.445    1.8431
   38.460    1.6219
   38.475    1.6008
   38.490    1.7378
   38.505    1.5903
   38.520    1.5692
   38.535    1.5798
   38.550    1.6219
   38.565    1.8115
   38.580    1.8220
   38.595    1.6956
   38.610    1.6324
   38.625    1.6956
   38.640    1.4850
   38.655    1.6640
   38.670    1.6535
   38.685    1.7378
   38.700    1.6008
   38.715    1.6746
   38.730    1.8009
   38.745    1.6535
   38.760    1.6851
   38.775    1.5482
   38.790    1.7167
   38.805    1.6746
   38.820    1.7272
   38.835    1.6746
   38.850    1.6324
   38.865    1.6535
   38.880    1.7062
   38.895    1.5903
   38.910    1.6746
   38.925    1.6430
   38.940    1.7483
   38.955    1.6535
   38.970    1.6535
   38.985    1.8325
   39.000    1.7167
   39.015    1.6114
   39.030    2.0432
   39.045    1.6851
   39.060    1.5587
   39.075    1.7167
   39.090    1.7062
   39.105    1.7272
   39.120    1.7062
   39.135    1.6535
   39.150    1.4955
   39.165    1.4955
   39.180    1.6851
   39.195    1.5377
   39.210    1.6324
   39.225    1.7167
   39.240    1.6535
   39.255    1.5903
   39.270    1.6746
   39.285    1.5482
   39.300    1.6008
   39.315    1.6640
   39.330    1.8220
   39.345    1.6535
   39.360    1.7588
   39.375    1.6640
   39.390    1.5798
   39.405    1.6430
   39.420    1.7799
   39.435    1.5587
   39.450    1.8220
   39.465    1.7062
   39.480    1.6746
   39.495    1.6746
   39.510    1.6851
   39.525    1.7272
   39.540    1.7062
   39.555    1.7167
   39.570    1.5482
   39.585    1.5587
   39.600    1.6219
   39.615    1.6851
   39.630    1.7272
   39.645    1.5692
   39.660    1.5377
   39.675    1.5377
   39.690    1.4955
   39.705    1.6430
   39.720    1.5587
   39.735    1.6746
   39.750    1.5061
   39.765    1.5692
   39.780    1.5166
   39.795    1.6640
   39.810    1.6430
   39.825    1.4955
   39.840    1.4534
   39.855    1.6956
   39.870    1.5271
   39.885    1.6956
   39.900    1.8431
   39.915    1.6956
   39.930    1.6535
   39.945    1.7167
   39.960    1.6114
   39.975    1.6219
   39.990    1.5692
