    1.500   11.6202
    1.515   11.5850
    1.530   11.6728
    1.545   11.8659
    1.560   11.9712
    1.575   12.0590
    1.590   11.6553
    1.605   11.5148
    1.620   11.3393
    1.635   11.3217
    1.650   11.0760
    1.665   10.7425
    1.680   10.8478
    1.695   11.5499
    1.710   11.3393
    1.725   10.7952
    1.740   10.8303
    1.755   10.5845
    1.770   10.5494
    1.785   10.1632
    1.800   10.4792
    1.815   10.9356
    1.830   10.2159
    1.845   10.2335
    1.860   10.6372
    1.875   10.2686
    1.890    9.6718
    1.905    9.7244
    1.920   10.1983
    1.935    9.9702
    1.950    9.8473
    1.965   10.1281
    1.980    9.4962
    1.995    9.4787
    2.010   10.1808
    2.025   10.0404
    2.040    9.5313
    2.055    9.8473
    2.070   10.0053
    2.085    9.8473
    2.100    9.7244
    2.115   10.2510
    2.130   10.0930
    2.145   10.3388
    2.160    9.7771
    2.175    9.3909
    2.190    9.9702
    2.205    9.6893
    2.220   10.0404
    2.235   10.2686
    2.250    9.3382
    2.265    9.3909
    2.280    9.5664
    2.295    9.9526
    2.310    9.7595
    2.325    9.8473
    2.340    9.8824
    2.355   10.1983
    2.370    9.3031
    2.385    9.7069
    2.400   10.5845
    2.415   10.6898
    2.430   10.3563
    2.445   10.3739
    2.460   10.6196
    2.475   11.1638
    2.490   10.9882
    2.505   10.8127
    2.520   10.6723
    2.535   11.2691
    2.550   10.7600
    2.565   11.2340
    2.580   11.1462
    2.595   11.1813
    2.610   11.3920
    2.625   11.3393
    2.640   11.4095
    2.655   11.7781
    2.670   11.6728
    2.685   12.1994
    2.700   11.9010
    2.715   12.2696
    2.730   12.0239
    2.745   12.2696
    2.760   12.1994
    2.775   12.8489
    2.790   12.6733
    2.805   12.6558
    2.820   12.7787
    2.835   13.4632
    2.850   13.9898
    2.865   12.9893
    2.880   12.9191
    2.895   14.7270
    2.910   14.2882
    2.925   14.1829
    2.940   15.4116
    2.955   14.8675
    2.970   15.3590
    2.985   15.2887
    3.000   15.1308
    3.015   16.5701
    3.030   16.5701
    3.045   16.7457
    3.060   16.1840
    3.075   17.0090
    3.090   17.6233
    3.105   19.4137
    3.120   18.1324
    3.135   18.2201
    3.150   18.5361
    3.165   20.0456
    3.180   19.9228
    3.195   20.1334
    3.210   20.5898
    3.225   21.4674
    3.240   22.2222
    3.255   22.6084
    3.270   23.7493
    3.285   24.1355
    3.300   24.7499
    3.315   25.0658
    3.330   26.0488
    3.345   26.0488
    3.360   27.4355
    3.375   28.2429
    3.390   30.0334
    3.405   29.9807
    3.420   31.2972
    3.435   32.9296
    3.450   34.0179
    3.465   36.1243
    3.480   36.2471
    3.495   37.7918
    3.510   39.7578
    3.525   39.7227
    3.540   43.3386
    3.555   45.7258
    3.570   46.6386
    3.585   49.5524
    3.600   51.1146
    3.615   54.2742
    3.630   57.9603
    3.645   62.3486
    3.660   65.0693
    3.675   68.0534
    3.690   73.4597
    3.705   79.3049
    3.720   83.2192
    3.735   90.6266
    3.750   99.4734
    3.765  109.5313
    3.780  123.9249
    3.795  142.2503
    3.810  167.1582
    3.825  191.6623
    3.840  195.9277
    3.855  169.3523
    3.870  128.3307
    3.885   88.5729
    3.900   53.7476
    3.915   30.1036
    3.930   16.5877
    3.945   11.2691
    3.960    9.5313
    3.975    7.8989
    3.990    7.8989
    4.005    7.4601
    4.020    6.7404
    4.035    6.3542
    4.050    6.1436
    4.065    6.0734
    4.080    5.9154
    4.095    5.7223
    4.110    5.7750
    4.125    5.7048
    4.140    5.7399
    4.155    5.7399
    4.170    5.4941
    4.185    5.6170
    4.200    5.8276
    4.215    5.5117
    4.230    5.2659
    4.245    5.4415
    4.260    5.3361
    4.275    5.4590
    4.290    5.4239
    4.305    5.6521
    4.320    5.3712
    4.335    5.1782
    4.350    5.6521
    4.365    6.0383
    4.380    5.5643
    4.395    5.8101
    4.410    5.8978
    4.425    6.3718
    4.440    5.8452
    4.455    5.6697
    4.470    6.1260
    4.485    6.1962
    4.500    6.2489
    4.515    5.5643
    4.530    5.8627
    4.545    6.2138
    4.560    6.4420
    4.575    6.1260
    4.590    6.0734
    4.605    6.8457
    4.620    7.3021
    4.635    6.8808
    4.650    6.3016
    4.665    7.0037
    4.680    6.1436
    4.695    6.8984
    4.710    7.0739
    4.725    7.0037
    4.740    6.7579
    4.755    7.4074
    4.770    7.3196
    4.785    7.2670
    4.800    7.2670
    4.815    8.0218
    4.830    7.9516
    4.845    8.1973
    4.860    8.1973
    4.875    8.1095
    4.890    8.2149
    4.905    8.8819
    4.920    8.7941
    4.935    9.5840
    4.950    9.1978
    4.965    9.7069
    4.980    9.9175
    4.995   10.2159
    5.010   10.2510
    5.025   10.5319
    5.040   12.1467
    5.055   11.5324
    5.070   11.8834
    5.085   12.1643
    5.100   13.4632
    5.115   13.5861
    5.130   13.7265
    5.145   14.4111
    5.160   14.7622
    5.175   16.1313
    5.190   17.3425
    5.205   18.0972
    5.220   18.3956
    5.235   19.0802
    5.250   20.6951
    5.265   22.1696
    5.280   23.3632
    5.295   24.2584
    5.310   26.2594
    5.325   27.6988
    5.340   31.0514
    5.355   33.8248
    5.370   36.3876
    5.385   39.8982
    5.400   45.3045
    5.415   53.4316
    5.430   63.4193
    5.445   70.3528
    5.460   69.0714
    5.475   62.7348
    5.490   48.6572
    5.505   34.1408
    5.520   22.0994
    5.535   13.2526
    5.550    8.9872
    5.565    6.9861
    5.580    5.8276
    5.595    5.5117
    5.610    5.1255
    5.625    5.0202
    5.640    4.7920
    5.655    4.7920
    5.670    4.7218
    5.685    4.7218
    5.700    4.8095
    5.715    4.9149
    5.730    4.5463
    5.745    4.9324
    5.760    4.3707
    5.775    4.6516
    5.790    4.6340
    5.805    5.0377
    5.820    4.7569
    5.835    4.6516
    5.850    4.5814
    5.865    4.7744
    5.880    4.5989
    5.895    4.8271
    5.910    4.8622
    5.925    4.8095
    5.940    4.5111
    5.955    4.8447
    5.970    4.8798
    5.985    4.7569
    6.000    5.0728
    6.015    4.9851
    6.030    4.7744
    6.045    4.9149
    6.060    4.7393
    6.075    4.9500
    6.090    5.0728
    6.105    5.3888
    6.120    4.9149
    6.135    5.2659
    6.150    5.2308
    6.165    4.9500
    6.180    4.9324
    6.195    5.6170
    6.210    5.5292
    6.225    5.4064
    6.240    5.7223
    6.255    5.3712
    6.270    5.8276
    6.285    5.7399
    6.300    5.6170
    6.315    6.2489
    6.330    5.8803
    6.345    6.1787
    6.360    6.1962
    6.375    5.8978
    6.390    6.3367
    6.405    6.2313
    6.420    6.1611
    6.435    6.7228
    6.450    7.1441
    6.465    7.2670
    6.480    8.0744
    6.495    8.3377
    6.510    8.3553
    6.525    8.8643
    6.540    8.9696
    6.555    9.3382
    6.570   10.0053
    6.585    9.9702
    6.600   11.5675
    6.615   13.0946
    6.630   13.7616
    6.645   15.1834
    6.660   16.8685
    6.675   19.8350
    6.690   22.2749
    6.705   21.9414
    6.720   19.7823
    6.735   16.0962
    6.750   12.1819
    6.765    8.3553
    6.780    6.1260
    6.795    5.5117
    6.810    4.3532
    6.825    4.4234
    6.840    4.8447
    6.855    4.5111
    6.870    4.5989
    6.885    5.0377
    6.900    4.7569
    6.915    4.3532
    6.930    4.4234
    6.945    4.0372
    6.960    4.3356
    6.975    4.6516
    6.990    4.3005
    7.005    4.5814
    7.020    4.5287
    7.035    4.1952
    7.050    4.8447
    7.065    4.5989
    7.080    4.4058
    7.095    4.4936
    7.110    4.8447
    7.125    4.8271
    7.140    5.0026
    7.155    4.8271
    7.170    4.6691
    7.185    4.6516
    7.200    5.2484
    7.215    4.9149
    7.230    4.6165
    7.245    4.7042
    7.260    4.6165
    7.275    4.8447
    7.290    4.8095
    7.305    4.8973
    7.320    4.9851
    7.335    4.8622
    7.350    4.9851
    7.365    5.1606
    7.380    5.6170
    7.395    5.8276
    7.410    5.4941
    7.425    5.8627
    7.440    5.9505
    7.455    5.7399
    7.470    6.4069
    7.485    6.0909
    7.500    6.3016
    7.515    6.6175
    7.530    6.5122
    7.545    6.8808
    7.560    7.3899
    7.575    6.9335
    7.590    7.6180
    7.605    7.4601
    7.620    8.5133
    7.635    8.6186
    7.650    9.4787
    7.665   10.7600
    7.680   11.8659
    7.695   12.5329
    7.710   14.2882
    7.725   16.3244
    7.740   17.4653
    7.755   17.5707
    7.770   15.0079
    7.785   12.7084
    7.800   10.4090
    7.815    7.5829
    7.830    6.1260
    7.845    4.9324
    7.860    4.9500
    7.875    4.6165
    7.890    3.9670
    7.905    4.0723
    7.920    4.0723
    7.935    4.1952
    7.950    3.8968
    7.965    3.5633
    7.980    4.3532
    7.995    4.4234
    8.010    4.0548
    8.025    4.4058
    8.040    4.3707
    8.055    4.1601
    8.070    4.3883
    8.085    4.5463
    8.100    4.2830
    8.115    4.3005
    8.130    4.4760
    8.145    4.1952
    8.160    4.2127
    8.175    3.9494
    8.190    4.1776
    8.205    4.2127
    8.220    4.2830
    8.235    3.9670
    8.250    4.1776
    8.265    4.1250
    8.280    4.0723
    8.295    4.2654
    8.310    4.2127
    8.325    4.4234
    8.340    4.1250
    8.355    4.4936
    8.370    4.2303
    8.385    4.4409
    8.400    4.7744
    8.415    4.2127
    8.430    3.7037
    8.445    4.1601
    8.460    4.1425
    8.475    4.5111
    8.490    4.6516
    8.505    4.2830
    8.520    4.2127
    8.535    4.6516
    8.550    5.2308
    8.565    4.7569
    8.580    4.9675
    8.595    4.9851
    8.610    5.0202
    8.625    5.2308
    8.640    5.3186
    8.655    5.8101
    8.670    5.8276
    8.685    5.5819
    8.700    5.1431
    8.715    4.9675
    8.730    4.6867
    8.745    4.1776
    8.760    3.8968
    8.775    3.8968
    8.790    4.1425
    8.805    4.0197
    8.820    4.1601
    8.835    4.5638
    8.850    3.7213
    8.865    3.9846
    8.880    4.0899
    8.895    3.7915
    8.910    4.3532
    8.925    4.1952
    8.940    3.9143
    8.955    4.3707
    8.970    4.1074
    8.985    4.8095
    9.000    4.6691
    9.015    4.6691
    9.030    4.4234
    9.045    4.6340
    9.060    4.7920
    9.075    5.1255
    9.090    4.7218
    9.105    5.2133
    9.120    5.3361
    9.135    5.1606
    9.150    5.1080
    9.165    5.4415
    9.180    5.9505
    9.195    6.1611
    9.210    6.2489
    9.225    6.8633
    9.240    6.8282
    9.255    7.2319
    9.270    7.2319
    9.285    7.4250
    9.300    7.6707
    9.315    8.0218
    9.330    8.7063
    9.345    9.9351
    9.360    9.8999
    9.375   11.4095
    9.390   12.8664
    9.405   13.5685
    9.420   14.6217
    9.435   16.3946
    9.450   18.8169
    9.465   22.7313
    9.480   26.5403
    9.495   29.9105
    9.510   29.7174
    9.525   26.8211
    9.540   22.0642
    9.555   17.2196
    9.570   12.0590
    9.585    8.2851
    9.600    6.4244
    9.615    5.2308
    9.630    4.5638
    9.645    4.1601
    9.660    4.0899
    9.675    4.1776
    9.690    4.0548
    9.705    4.1776
    9.720    4.2654
    9.735    3.8792
    9.750    4.2303
    9.765    4.3883
    9.780    4.1952
    9.795    4.1074
    9.810    3.9319
    9.825    4.0197
    9.840    3.9319
    9.855    3.7388
    9.870    3.9143
    9.885    4.7744
    9.900    4.7920
    9.915    4.0723
    9.930    4.1776
    9.945    4.4409
    9.960    4.3883
    9.975    4.7920
    9.990    4.7393
   10.005    4.9500
   10.020    4.7569
   10.035    5.0202
   10.050    5.3186
   10.065    5.4415
   10.080    5.4590
   10.095    5.5819
   10.110    5.5819
   10.125    5.8627
   10.140    6.4244
   10.155    6.8984
   10.170    7.1968
   10.185    7.3899
   10.200    7.9691
   10.215    8.3553
   10.230    9.5138
   10.245   10.4968
   10.260   11.5148
   10.275   12.3223
   10.290   11.3042
   10.305   10.8303
   10.320    9.5313
   10.335    7.4601
   10.350    6.2138
   10.365    4.9324
   10.380    4.3356
   10.395    4.3707
   10.410    4.0197
   10.425    4.0723
   10.440    3.8968
   10.455    4.2303
   10.470    4.1074
   10.485    4.2830
   10.500    3.7564
   10.515    3.7388
   10.530    3.8968
   10.545    3.7739
   10.560    4.0021
   10.575    4.2127
   10.590    4.4760
   10.605    4.0723
   10.620    3.8968
   10.635    4.1601
   10.650    3.8968
   10.665    4.2127
   10.680    4.1601
   10.695    4.4760
   10.710    4.4058
   10.725    5.0728
   10.740    4.9851
   10.755    5.1782
   10.770    4.7569
   10.785    5.0202
   10.800    5.2659
   10.815    5.8627
   10.830    5.6345
   10.845    5.6170
   10.860    5.7925
   10.875    6.1962
   10.890    6.8457
   10.905    7.3196
   10.920    7.1792
   10.935    8.2500
   10.950    9.4436
   10.965   11.1638
   10.980   11.8308
   10.995   11.6377
   11.010   11.3217
   11.025    9.7771
   11.040    8.2675
   11.055    6.9510
   11.070    5.5117
   11.085    5.0202
   11.100    4.1776
   11.115    4.0548
   11.130    3.9670
   11.145    3.8968
   11.160    3.7388
   11.175    4.0021
   11.190    3.9319
   11.205    3.4229
   11.220    4.0899
   11.235    3.9319
   11.250    4.0723
   11.265    4.1776
   11.280    3.9846
   11.295    3.9319
   11.310    4.3707
   11.325    4.2654
   11.340    4.4585
   11.355    4.1776
   11.370    4.1250
   11.385    4.5463
   11.400    4.5638
   11.415    4.5814
   11.430    5.0553
   11.445    5.4766
   11.460    5.3361
   11.475    5.2659
   11.490    4.7042
   11.505    5.1255
   11.520    5.6697
   11.535    6.0207
   11.550    6.3542
   11.565    6.2489
   11.580    7.3372
   11.595    8.1622
   11.610    9.0398
   11.625    9.8999
   11.640   10.2861
   11.655   12.1994
   11.670   12.5505
   11.685   11.9010
   11.700   10.6898
   11.715    8.8468
   11.730    6.8457
   11.745    5.4239
   11.760    4.6340
   11.775    3.9846
   11.790    4.2654
   11.805    3.8266
   11.820    4.0899
   11.835    3.7915
   11.850    4.0723
   11.865    4.2127
   11.880    4.2830
   11.895    3.9494
   11.910    3.5106
   11.925    3.8792
   11.940    3.7564
   11.955    4.3181
   11.970    4.1074
   11.985    3.7564
   12.000    3.8968
   12.015    3.5984
   12.030    3.8090
   12.045    3.5808
   12.060    3.7739
   12.075    3.8266
   12.090    4.0548
   12.105    3.9846
   12.120    3.7739
   12.135    3.6862
   12.150    3.9143
   12.165    4.1074
   12.180    4.0197
   12.195    3.9670
   12.210    4.4234
   12.225    4.3883
   12.240    4.4585
   12.255    4.1952
   12.270    4.8271
   12.285    5.0377
   12.300    5.0904
   12.315    4.7920
   12.330    5.2835
   12.345    4.8798
   12.360    4.2303
   12.375    4.1074
   12.390    3.8617
   12.405    3.9319
   12.420    3.6862
   12.435    3.6159
   12.450    3.6159
   12.465    3.6862
   12.480    3.5633
   12.495    3.7213
   12.510    3.6335
   12.525    3.4931
   12.540    3.9494
   12.555    4.0021
   12.570    3.9143
   12.585    4.1074
   12.600    4.1952
   12.615    4.1250
   12.630    4.2654
   12.645    4.1776
   12.660    4.3883
   12.675    4.3883
   12.690    3.9143
   12.705    4.3356
   12.720    4.7744
   12.735    4.7569
   12.750    4.8798
   12.765    4.9851
   12.780    4.8798
   12.795    5.8803
   12.810    6.0032
   12.825    5.6170
   12.840    6.6877
   12.855    6.9861
   12.870    7.7936
   12.885    8.4430
   12.900    9.0398
   12.915    9.2329
   12.930    8.5308
   12.945    7.8111
   12.960    7.0037
   12.975    5.7750
   12.990    5.2133
   13.005    4.3532
   13.020    3.7564
   13.035    3.8266
   13.050    3.6862
   13.065    3.8617
   13.080    3.7915
   13.095    3.9319
   13.110    3.8617
   13.125    3.7037
   13.140    3.8090
   13.155    4.2830
   13.170    4.4760
   13.185    4.2654
   13.200    3.6510
   13.215    3.5984
   13.230    3.8266
   13.245    3.6686
   13.260    3.8968
   13.275    3.7388
   13.290    3.8441
   13.305    4.1776
   13.320    4.1952
   13.335    4.2478
   13.350    3.9846
   13.365    4.2830
   13.380    4.9149
   13.395    4.6165
   13.410    4.5111
   13.425    4.6867
   13.440    5.4239
   13.455    6.0734
   13.470    5.8276
   13.485    6.1260
   13.500    6.3718
   13.515    6.4244
   13.530    5.6345
   13.545    4.8271
   13.560    4.4234
   13.575    4.1952
   13.590    3.8968
   13.605    4.1074
   13.620    3.8441
   13.635    3.6686
   13.650    3.9143
   13.665    3.8617
   13.680    3.8090
   13.695    3.6686
   13.710    3.7213
   13.725    3.9846
   13.740    3.9143
   13.755    3.8792
   13.770    3.9143
   13.785    4.5463
   13.800    4.2654
   13.815    3.9143
   13.830    3.9494
   13.845    4.0723
   13.860    4.1074
   13.875    4.0372
   13.890    4.2478
   13.905    4.6867
   13.920    4.5287
   13.935    5.0728
   13.950    5.3537
   13.965    5.7750
   13.980    6.0909
   13.995    6.6702
   14.010    7.1617
   14.025    7.7234
   14.040    8.0218
   14.055    8.8643
   14.070    7.9516
   14.085    6.9861
   14.100    5.7048
   14.115    5.0377
   14.130    4.4760
   14.145    4.0021
   14.160    3.8968
   14.175    3.9494
   14.190    4.0548
   14.205    4.0021
   14.220    3.7915
   14.235    3.7564
   14.250    3.9670
   14.265    3.8792
   14.280    3.8441
   14.295    4.0548
   14.310    4.3181
   14.325    3.9846
   14.340    4.0372
   14.355    3.5106
   14.370    4.3181
   14.385    3.7915
   14.400    3.4580
   14.415    3.6335
   14.430    4.0723
   14.445    4.0548
   14.460    3.8266
   14.475    3.3702
   14.490    3.4931
   14.505    3.6335
   14.520    3.7564
   14.535    3.6862
   14.550    3.5457
   14.565    3.6862
   14.580    3.5106
   14.595    3.6510
   14.610    3.4931
   14.625    3.8266
   14.640    3.3175
   14.655    3.5808
   14.670    3.7915
   14.685    3.7037
   14.700    3.3877
   14.715    3.4053
   14.730    3.4053
   14.745    3.8792
   14.760    3.6335
   14.775    3.7037
   14.790    3.7564
   14.805    3.6335
   14.820    3.9670
   14.835    3.6862
   14.850    3.6862
   14.865    3.3702
   14.880    3.4931
   14.895    3.7915
   14.910    4.0372
   14.925    3.8617
   14.940    4.0899
   14.955    4.1250
   14.970    3.8441
   14.985    4.2127
   15.000    4.4760
   15.015    3.9670
   15.030    3.7915
   15.045    4.4760
   15.060    5.0026
   15.075    4.8622
   15.090    4.8973
   15.105    5.0026
   15.120    4.6691
   15.135    4.1952
   15.150    4.1250
   15.165    4.4760
   15.180    3.7388
   15.195    4.1425
   15.210    3.9319
   15.225    4.0021
   15.240    3.7564
   15.255    3.9319
   15.270    4.2127
   15.285    3.5457
   15.300    3.8792
   15.315    3.9143
   15.330    4.0723
   15.345    3.4755
   15.360    3.3702
   15.375    3.5984
   15.390    3.6862
   15.405    3.9846
   15.420    3.8266
   15.435    3.4755
   15.450    3.4755
   15.465    3.4755
   15.480    3.2122
   15.495    3.4931
   15.510    3.6862
   15.525    3.6159
   15.540    3.6159
   15.555    3.7915
   15.570    3.7739
   15.585    3.9846
   15.600    3.8266
   15.615    3.8441
   15.630    3.7915
   15.645    3.6159
   15.660    3.3526
   15.675    3.1596
   15.690    3.4053
   15.705    3.3351
   15.720    3.4404
   15.735    3.5633
   15.750    3.6686
   15.765    3.7915
   15.780    4.1074
   15.795    3.7739
   15.810    3.8792
   15.825    3.5633
   15.840    3.5457
   15.855    3.5633
   15.870    3.4229
   15.885    4.0548
   15.900    3.9494
   15.915    3.7915
   15.930    3.7213
   15.945    4.1776
   15.960    4.0723
   15.975    3.6510
   15.990    3.6335
   16.005    4.0899
   16.020    4.5989
   16.035    4.5638
   16.050    4.3356
   16.065    4.6165
   16.080    4.9675
   16.095    4.4936
   16.110    4.4409
   16.125    4.3181
   16.140    4.3707
   16.155    3.8441
   16.170    4.0372
   16.185    3.7915
   16.200    3.8968
   16.215    3.6335
   16.230    3.6510
   16.245    3.7915
   16.260    3.6335
   16.275    3.6686
   16.290    3.5984
   16.305    3.3877
   16.320    3.7213
   16.335    3.5808
   16.350    3.6335
   16.365    3.5106
   16.380    3.7564
   16.395    3.5984
   16.410    3.9143
   16.425    4.1776
   16.440    4.3356
   16.455    4.0723
   16.470    4.3883
   16.485    4.3005
   16.500    4.3883
   16.515    4.4058
   16.530    5.2835
   16.545    5.1957
   16.560    5.1255
   16.575    4.9675
   16.590    4.7393
   16.605    4.7393
   16.620    4.4585
   16.635    4.0723
   16.650    4.0021
   16.665    3.9494
   16.680    3.8090
   16.695    3.8090
   16.710    3.7037
   16.725    3.6510
   16.740    3.9143
   16.755    3.9143
   16.770    3.9494
   16.785    4.1250
   16.800    4.1776
   16.815    4.3532
   16.830    4.1776
   16.845    4.2303
   16.860    4.3707
   16.875    4.4585
   16.890    4.3005
   16.905    4.4058
   16.920    4.8798
   16.935    5.4766
   16.950    5.9505
   16.965    6.4771
   16.980    7.4601
   16.995    7.6532
   17.010    7.8813
   17.025    7.9691
   17.040    7.8638
   17.055    6.5649
   17.070    5.5468
   17.085    4.9324
   17.100    4.7393
   17.115    4.2830
   17.130    4.3883
   17.145    3.7915
   17.160    4.2127
   17.175    3.8792
   17.190    3.5808
   17.205    3.7915
   17.220    3.5106
   17.235    3.4755
   17.250    3.6335
   17.265    3.6686
   17.280    3.6159
   17.295    3.9494
   17.310    3.5457
   17.325    3.6862
   17.340    3.3526
   17.355    3.9319
   17.370    4.3005
   17.385    4.2478
   17.400    4.1250
   17.415    4.0548
   17.430    4.6165
   17.445    4.7218
   17.460    4.3707
   17.475    4.1425
   17.490    4.5463
   17.505    4.8271
   17.520    4.4585
   17.535    4.1952
   17.550    3.8441
   17.565    3.8617
   17.580    3.5457
   17.595    3.6335
   17.610    3.9494
   17.625    3.4053
   17.640    3.5457
   17.655    3.3877
   17.670    3.5633
   17.685    3.3526
   17.700    3.6159
   17.715    3.8968
   17.730    3.6335
   17.745    3.5984
   17.760    3.4755
   17.775    3.4931
   17.790    3.7037
   17.805    3.7213
   17.820    3.8441
   17.835    4.0197
   17.850    3.7915
   17.865    4.4585
   17.880    4.2654
   17.895    4.7218
   17.910    4.3005
   17.925    4.0372
   17.940    4.3005
   17.955    3.9494
   17.970    3.9670
   17.985    3.7037
   18.000    3.9494
   18.015    3.7388
   18.030    3.7213
   18.045    3.7564
   18.060    3.6159
   18.075    3.5457
   18.090    3.5457
   18.105    3.6862
   18.120    4.2303
   18.135    4.1074
   18.150    3.8968
   18.165    3.8968
   18.180    3.7739
   18.195    3.8266
   18.210    4.0197
   18.225    4.0372
   18.240    4.1250
   18.255    4.0197
   18.270    4.4234
   18.285    4.2127
   18.300    4.6691
   18.315    4.4058
   18.330    4.4585
   18.345    4.9149
   18.360    4.4760
   18.375    4.5463
   18.390    3.8090
   18.405    3.7739
   18.420    4.3005
   18.435    3.7388
   18.450    3.5106
   18.465    3.4229
   18.480    3.5457
   18.495    3.8266
   18.510    3.7739
   18.525    3.7213
   18.540    3.8441
   18.555    3.9846
   18.570    3.7213
   18.585    3.7739
   18.600    3.5633
   18.615    3.8090
   18.630    3.6159
   18.645    3.8266
   18.660    4.1074
   18.675    3.9319
   18.690    4.0899
   18.705    4.0548
   18.720    4.3181
   18.735    4.3005
   18.750    4.4058
   18.765    4.1952
   18.780    4.4058
   18.795    3.7915
   18.810    3.9846
   18.825    3.5984
   18.840    3.8792
   18.855    3.7388
   18.870    3.3175
   18.885    3.4404
   18.900    3.6335
   18.915    3.4931
   18.930    3.7564
   18.945    3.5808
   18.960    3.6862
   18.975    3.9846
   18.990    3.8792
   19.005    3.7388
   19.020    3.7388
   19.035    3.6510
   19.050    3.7564
   19.065    3.5282
   19.080    3.7915
   19.095    3.8266
   19.110    3.8792
   19.125    3.9670
   19.140    3.8617
   19.155    3.7213
   19.170    3.6335
   19.185    3.7388
   19.200    3.5808
   19.215    3.9143
   19.230    3.8617
   19.245    3.8090
   19.260    3.4404
   19.275    3.8090
   19.290    3.6510
   19.305    3.7037
   19.320    3.7915
   19.335    3.9143
   19.350    3.9670
   19.365    3.8968
   19.380    3.3175
   19.395    3.8617
   19.410    4.0021
   19.425    3.9494
   19.440    4.1601
   19.455    4.0723
   19.470    3.8441
   19.485    4.4058
   19.500    4.3883
   19.515    4.0197
   19.530    4.5989
   19.545    4.9324
   19.560    4.7744
   19.575    4.7744
   19.590    4.5287
   19.605    4.2654
   19.620    4.3883
   19.635    3.8968
   19.650    3.7739
   19.665    3.4931
   19.680    3.8792
   19.695    3.8617
   19.710    3.4580
   19.725    3.6510
   19.740    3.8090
   19.755    4.0197
   19.770    3.7037
   19.785    3.5282
   19.800    3.5808
   19.815    3.8792
   19.830    3.6335
   19.845    3.6510
   19.860    3.5808
   19.875    3.8266
   19.890    3.5106
   19.905    3.2298
   19.920    3.7915
   19.935    3.9319
   19.950    3.6335
   19.965    3.5984
   19.980    3.6335
   19.995    3.7037
   20.010    3.6159
   20.025    3.6510
   20.040    3.2824
   20.055    3.2298
   20.070    3.7213
   20.085    3.7739
   20.100    3.8792
   20.115    3.6862
   20.130    3.6510
   20.145    4.0723
   20.160    4.2127
   20.175    4.7744
   20.190    4.2830
   20.205    4.5463
   20.220    4.7393
   20.235    4.6867
   20.250    4.8973
   20.265    5.0904
   20.280    5.8276
   20.295    6.5649
   20.310    6.4420
   20.325    6.6175
   20.340    6.2313
   20.355    6.3016
   20.370    5.8627
   20.385    5.1431
   20.400    5.0202
   20.415    4.3707
   20.430    4.4585
   20.445    3.6159
   20.460    3.3702
   20.475    3.5808
   20.490    3.8617
   20.505    3.9143
   20.520    3.8266
   20.535    3.9670
   20.550    3.5282
   20.565    3.4053
   20.580    3.4755
   20.595    3.9846
   20.610    3.3175
   20.625    3.6862
   20.640    3.8266
   20.655    3.8090
   20.670    3.5106
   20.685    3.4755
   20.700    3.8792
   20.715    3.6862
   20.730    3.7388
   20.745    3.7388
   20.760    3.6159
   20.775    3.6159
   20.790    3.5106
   20.805    3.5282
   20.820    3.6159
   20.835    3.6335
   20.850    3.8617
   20.865    3.6159
   20.880    3.6686
   20.895    3.7564
   20.910    4.0197
   20.925    3.6510
   20.940    3.8441
   20.955    3.3175
   20.970    3.7213
   20.985    3.6510
   21.000    3.5457
   21.015    3.7037
   21.030    3.7915
   21.045    4.1074
   21.060    3.7388
   21.075    3.9670
   21.090    3.6862
   21.105    3.9319
   21.120    3.4580
   21.135    3.5984
   21.150    3.7037
   21.165    3.5808
   21.180    3.7915
   21.195    3.6862
   21.210    3.7213
   21.225    3.5457
   21.240    3.8617
   21.255    3.5457
   21.270    3.7037
   21.285    3.8090
   21.300    3.8090
   21.315    3.4229
   21.330    3.7213
   21.345    3.6862
   21.360    4.0723
   21.375    3.8617
   21.390    3.9143
   21.405    3.5633
   21.420    3.4931
   21.435    3.6510
   21.450    3.6686
   21.465    3.6335
   21.480    3.5106
   21.495    3.7564
   21.510    3.4404
   21.525    3.6159
   21.540    3.7213
   21.555    3.6335
   21.570    3.4053
   21.585    3.9846
   21.600    3.9670
   21.615    4.0021
   21.630    3.8441
   21.645    3.6159
   21.660    3.7564
   21.675    3.7213
   21.690    4.0899
   21.705    4.1776
   21.720    3.7915
   21.735    4.2478
   21.750    4.0899
   21.765    4.6165
   21.780    4.7569
   21.795    4.8447
   21.810    5.1782
   21.825    4.9851
   21.840    4.9500
   21.855    4.2127
   21.870    4.2654
   21.885    4.1425
   21.900    4.2303
   21.915    3.7915
   21.930    3.8441
   21.945    3.5282
   21.960    3.6510
   21.975    3.7739
   21.990    3.8792
   22.005    3.7564
   22.020    3.7915
   22.035    4.1425
   22.050    4.1425
   22.065    4.4058
   22.080    4.0372
   22.095    3.8617
   22.110    4.0548
   22.125    4.4234
   22.140    4.8622
   22.155    4.6867
   22.170    4.3181
   22.185    4.3532
   22.200    4.3356
   22.215    4.3181
   22.230    4.0899
   22.245    4.1250
   22.260    3.9846
   22.275    3.6686
   22.290    3.6862
   22.305    3.9494
   22.320    3.9846
   22.335    4.0372
   22.350    4.0372
   22.365    4.0197
   22.380    3.8617
   22.395    4.4936
   22.410    5.1080
   22.425    5.5994
   22.440    5.7223
   22.455    5.6697
   22.470    6.3893
   22.485    6.9159
   22.500    7.1266
   22.515    6.7930
   22.530    6.7228
   22.545    6.6000
   22.560    6.1962
   22.575    5.3186
   22.590    5.2308
   22.605    4.3707
   22.620    4.0372
   22.635    4.1952
   22.650    4.5463
   22.665    4.1250
   22.680    4.1601
   22.695    4.0548
   22.710    4.1074
   22.725    4.4058
   22.740    4.3532
   22.755    4.8622
   22.770    5.4941
   22.785    5.4239
   22.800    5.7223
   22.815    6.1962
   22.830    6.2138
   22.845    6.5824
   22.860    7.0388
   22.875    7.0563
   22.890    6.2665
   22.905    5.6170
   22.920    5.4941
   22.935    5.0377
   22.950    4.4936
   22.965    4.2127
   22.980    4.1601
   22.995    3.9670
   23.010    4.0899
   23.025    4.0548
   23.040    3.8266
   23.055    3.8617
   23.070    4.0723
   23.085    4.5111
   23.100    4.1601
   23.115    4.3005
   23.130    4.7218
   23.145    5.0202
   23.160    4.8271
   23.175    4.8271
   23.190    4.8095
   23.205    5.1431
   23.220    4.8447
   23.235    4.4760
   23.250    4.3356
   23.265    3.9846
   23.280    4.1250
   23.295    3.6862
   23.310    3.8090
   23.325    3.5633
   23.340    3.5457
   23.355    3.6686
   23.370    3.4053
   23.385    3.7915
   23.400    3.7915
   23.415    3.4931
   23.430    3.9670
   23.445    3.4580
   23.460    3.6510
   23.475    3.7564
   23.490    3.6159
   23.505    4.1074
   23.520    4.0021
   23.535    3.7739
   23.550    3.6686
   23.565    3.5984
   23.580    3.4229
   23.595    3.7915
   23.610    3.6159
   23.625    3.8266
   23.640    3.5633
   23.655    3.4931
   23.670    3.7564
   23.685    3.6862
   23.700    3.9846
   23.715    3.7564
   23.730    3.7388
   23.745    3.8792
   23.760    4.1425
   23.775    4.2303
   23.790    3.9494
   23.805    4.0899
   23.820    4.1425
   23.835    3.9494
   23.850    4.3532
   23.865    4.4760
   23.880    4.4936
   23.895    4.3005
   23.910    4.0372
   23.925    3.8266
   23.940    3.8266
   23.955    3.3175
   23.970    4.0197
   23.985    3.6335
   24.000    3.7388
   24.015    3.7564
   24.030    3.7213
   24.045    3.3702
   24.060    3.8792
   24.075    3.8090
   24.090    4.1074
   24.105    3.7739
   24.120    4.0021
   24.135    3.4931
   24.150    3.2824
   24.165    3.6335
   24.180    3.7213
   24.195    3.7739
   24.210    3.6686
   24.225    3.6862
   24.240    3.7037
   24.255    4.0723
   24.270    3.8617
   24.285    3.5984
   24.300    3.6510
   24.315    4.0021
   24.330    3.7739
   24.345    3.2473
   24.360    3.3175
   24.375    3.7037
   24.390    3.9319
   24.405    3.7213
   24.420    3.5106
   24.435    3.9143
   24.450    3.9319
   24.465    4.0197
   24.480    4.0021
   24.495    3.8617
   24.510    4.2127
   24.525    4.1425
   24.540    4.0021
   24.555    4.3005
   24.570    3.6159
   24.585    3.8968
   24.600    3.8792
   24.615    3.3526
   24.630    3.7388
   24.645    3.5106
   24.660    3.7915
   24.675    3.3000
   24.690    3.3877
   24.705    3.5282
   24.720    3.7564
   24.735    3.9143
   24.750    3.9494
   24.765    3.8090
   24.780    3.7037
   24.795    3.9670
   24.810    3.5808
   24.825    3.7915
   24.840    3.8968
   24.855    3.5633
   24.870    3.7915
   24.885    4.0197
   24.900    3.7739
   24.915    3.5633
   24.930    3.3000
   24.945    3.7915
   24.960    3.4931
   24.975    3.7213
   24.990    3.9319
   25.005    3.8792
   25.020    3.8090
   25.035    3.9494
   25.050    3.5457
   25.065    3.8090
   25.080    3.6686
   25.095    3.6510
   25.110    3.8266
   25.125    3.7564
   25.140    3.8266
   25.155    3.5633
   25.170    3.8617
   25.185    3.6510
   25.200    3.8968
   25.215    3.5282
   25.230    3.7915
   25.245    3.8266
   25.260    3.5457
   25.275    3.5633
   25.290    3.7388
   25.305    3.5808
   25.320    3.8266
   25.335    3.7037
   25.350    3.7739
   25.365    3.4931
   25.380    3.8266
   25.395    3.5633
   25.410    3.7388
   25.425    4.2127
   25.440    4.0548
   25.455    3.8792
   25.470    4.0021
   25.485    4.0723
   25.500    3.4053
   25.515    3.6335
   25.530    3.4931
   25.545    3.5457
   25.560    3.6862
   25.575    3.8266
   25.590    3.5633
   25.605    3.4229
   25.620    4.0548
   25.635    3.9143
   25.650    4.1601
   25.665    4.3181
   25.680    5.3186
   25.695    4.9324
   25.710    5.3888
   25.725    5.3186
   25.740    5.5468
   25.755    5.8978
   25.770    5.8101
   25.785    5.9154
   25.800    5.1431
   25.815    4.8798
   25.830    4.5989
   25.845    4.7569
   25.860    4.2478
   25.875    3.7739
   25.890    3.6862
   25.905    3.8090
   25.920    3.5457
   25.935    3.6335
   25.950    3.4580
   25.965    3.4404
   25.980    3.5457
   25.995    3.3526
   26.010    3.6335
   26.025    3.4931
   26.040    3.7564
   26.055    3.6159
   26.070    3.6510
   26.085    3.7388
   26.100    3.9319
   26.115    3.4931
   26.130    3.5808
   26.145    3.7564
   26.160    3.4755
   26.175    3.9846
   26.190    3.7388
   26.205    3.6335
   26.220    3.7388
   26.235    3.4931
   26.250    3.5282
   26.265    3.5106
   26.280    4.0197
   26.295    4.1250
   26.310    3.8441
   26.325    4.0548
   26.340    4.0899
   26.355    3.9494
   26.370    4.1250
   26.385    4.2654
   26.400    4.2303
   26.415    4.4058
   26.430    4.0197
   26.445    3.6686
   26.460    3.7564
   26.475    3.5808
   26.490    3.7388
   26.505    3.6510
   26.520    3.8090
   26.535    3.3000
   26.550    3.2298
   26.565    3.3175
   26.580    3.8441
   26.595    3.5282
   26.610    3.0718
   26.625    3.0893
   26.640    3.5457
   26.655    3.4404
   26.670    3.3526
   26.685    3.5808
   26.700    3.2473
   26.715    3.3526
   26.730    3.2824
   26.745    3.5633
   26.760    3.7388
   26.775    3.6686
   26.790    3.2473
   26.805    3.2122
   26.820    3.5808
   26.835    3.5106
   26.850    4.0899
   26.865    3.9670
   26.880    3.9143
   26.895    3.8617
   26.910    3.7388
   26.925    4.0197
   26.940    4.6516
   26.955    4.3532
   26.970    4.3707
   26.985    4.1601
   27.000    4.1601
   27.015    4.0899
   27.030    3.7037
   27.045    3.6159
   27.060    3.4053
   27.075    3.4404
   27.090    3.6159
   27.105    3.2824
   27.120    3.0893
   27.135    3.4580
   27.150    3.1420
   27.165    3.0367
   27.180    3.6159
   27.195    3.6510
   27.210    3.3175
   27.225    3.3175
   27.240    3.2473
   27.255    3.5106
   27.270    3.9670
   27.285    3.5282
   27.300    3.6335
   27.315    3.8266
   27.330    3.6335
   27.345    3.6335
   27.360    3.8617
   27.375    3.4404
   27.390    3.5106
   27.405    3.7915
   27.420    3.8617
   27.435    3.4931
   27.450    3.5633
   27.465    4.0021
   27.480    3.9319
   27.495    3.9143
   27.510    4.3005
   27.525    4.3005
   27.540    4.0548
   27.555    4.1952
   27.570    4.2654
   27.585    3.7037
   27.600    3.4404
   27.615    3.6159
   27.630    3.9319
   27.645    3.4229
   27.660    3.6335
   27.675    3.7037
   27.690    3.3526
   27.705    3.5106
   27.720    3.4931
   27.735    3.5106
   27.750    3.7564
   27.765    3.3877
   27.780    3.4931
   27.795    4.1250
   27.810    3.6335
   27.825    4.1250
   27.840    3.6335
   27.855    3.6862
   27.870    3.5984
   27.885    3.6159
   27.900    3.4053
   27.915    3.7037
   27.930    3.4404
   27.945    3.4404
   27.960    3.5808
   27.975    3.5106
   27.990    3.4053
   28.005    3.7739
   28.020    3.6510
   28.035    4.3356
   28.050    4.5638
   28.065    3.8968
   28.080    3.8441
   28.095    4.1425
   28.110    4.0548
   28.125    4.2303
   28.140    4.0197
   28.155    4.1074
   28.170    3.8441
   28.185    3.9319
   28.200    3.5984
   28.215    3.5633
   28.230    3.5808
   28.245    3.6510
   28.260    3.5808
   28.275    3.4755
   28.290    3.3702
   28.305    3.4755
   28.320    3.7213
   28.335    3.8617
   28.350    4.0372
   28.365    4.0548
   28.380    4.2478
   28.395    4.2127
   28.410    4.0372
   28.425    4.0021
   28.440    3.8266
   28.455    3.8617
   28.470    3.9143
   28.485    3.8968
   28.500    3.8617
   28.515    4.0197
   28.530    3.8617
   28.545    3.5633
   28.560    3.3702
   28.575    3.2473
   28.590    3.4931
   28.605    3.3175
   28.620    3.5808
   28.635    3.5106
   28.650    3.4053
   28.665    3.5282
   28.680    3.2473
   28.695    3.3702
   28.710    3.2649
   28.725    3.5106
   28.740    3.3526
   28.755    3.6159
   28.770    3.8617
   28.785    3.1420
   28.800    2.8260
   28.815    3.0191
   28.830    3.3526
   28.845    3.3526
   28.860    3.7037
   28.875    3.7915
   28.890    3.5457
   28.905    3.4404
   28.920    3.2473
   28.935    3.5457
   28.950    3.5633
   28.965    3.6862
   28.980    3.3175
   28.995    3.7564
   29.010    3.6159
   29.025    3.3000
   29.040    3.5633
   29.055    3.3877
   29.070    3.3175
   29.085    3.1596
   29.100    3.5457
   29.115    3.5633
   29.130    3.6159
   29.145    3.8266
   29.160    3.5282
   29.175    3.7915
   29.190    3.8441
   29.205    3.8792
   29.220    3.6510
   29.235    3.6159
   29.250    3.7037
   29.265    3.9143
   29.280    3.5984
   29.295    3.5282
   29.310    3.6159
   29.325    3.4229
   29.340    3.5282
   29.355    3.2649
   29.370    3.2649
   29.385    2.6681
   29.400    3.2298
   29.415    3.1771
   29.430    3.3526
   29.445    3.4931
   29.460    3.0542
   29.475    3.3351
   29.490    3.3175
   29.505    3.1947
   29.520    3.0191
   29.535    3.0893
   29.550    3.3526
   29.565    3.2473
   29.580    3.6335
   29.595    3.0542
   29.610    3.0893
   29.625    3.6510
   29.640    3.6159
   29.655    3.7388
   29.670    3.6510
   29.685    4.1425
   29.700    3.9319
   29.715    3.7739
   29.730    3.6335
   29.745    3.7037
   29.760    3.8968
   29.775    3.6159
   29.790    3.7564
   29.805    3.3877
   29.820    3.6510
   29.835    3.4931
   29.850    3.3351
   29.865    3.5457
   29.880    3.5633
   29.895    3.3526
   29.910    3.2298
   29.925    3.2473
   29.940    3.5106
   29.955    3.4580
   29.970    3.1947
   29.985    3.3877
   30.000    3.6335
   30.015    3.3351
   30.030    3.7388
   30.045    3.3175
   30.060    3.6159
   30.075    3.3877
   30.090    3.3877
   30.105    3.1947
   30.120    3.3702
   30.135    3.2298
   30.150    3.4931
   30.165    3.3702
   30.180    3.1420
   30.195    2.9840
   30.210    3.3175
   30.225    3.1420
   30.240    3.2824
   30.255    3.1420
   30.270    3.0542
   30.285    3.3351
   30.300    3.5984
   30.315    3.3877
   30.330    3.4931
   30.345    3.9846
   30.360    3.2649
   30.375    3.8266
   30.390    3.2298
   30.405    3.0016
   30.420    3.1420
   30.435    3.2122
   30.450    3.1069
   30.465    3.5808
   30.480    3.8441
   30.495    3.6686
   30.510    3.3526
   30.525    3.4229
   30.540    4.0372
   30.555    3.6510
   30.570    4.0197
   30.585    3.3877
   30.600    3.6159
   30.615    3.3526
   30.630    3.3702
   30.645    3.2824
   30.660    2.9840
   30.675    3.4755
   30.690    3.2122
   30.705    3.3526
   30.720    3.1771
   30.735    2.9138
   30.750    3.5106
   30.765    3.3526
   30.780    3.3351
   30.795    3.2824
   30.810    3.2473
   30.825    3.1069
   30.840    3.5282
   30.855    3.3351
   30.870    3.3526
   30.885    3.3526
   30.900    3.8090
   30.915    3.5106
   30.930    3.5106
   30.945    3.3175
   30.960    3.1069
   30.975    3.1245
   30.990    3.1771
   31.005    2.9840
   31.020    3.0893
   31.035    3.0367
   31.050    3.3351
   31.065    3.2649
   31.080    3.1245
   31.095    3.2298
   31.110    3.1947
   31.125    3.3175
   31.140    3.2824
   31.155    3.1245
   31.170    3.2122
   31.185    3.1947
   31.200    2.9314
   31.215    3.1245
   31.230    3.0893
   31.245    3.0542
   31.260    3.3175
   31.275    4.0197
   31.290    3.6862
   31.305    3.3000
   31.320    3.4404
   31.335    3.4229
   31.350    3.3702
   31.365    3.7213
   31.380    3.4931
   31.395    3.1420
   31.410    3.2649
   31.425    3.1596
   31.440    2.9489
   31.455    3.0191
   31.470    3.0893
   31.485    2.7909
   31.500    3.2649
   31.515    3.3000
   31.530    3.2824
   31.545    3.3351
   31.560    3.2122
   31.575    3.0893
   31.590    3.2298
   31.605    3.6510
   31.620    3.1771
   31.635    3.3175
   31.650    3.2298
   31.665    3.3702
   31.680    3.2298
   31.695    3.4229
   31.710    3.1245
   31.725    3.2473
   31.740    3.6159
   31.755    3.4229
   31.770    3.2473
   31.785    3.5808
   31.800    3.3351
   31.815    3.2298
   31.830    3.3702
   31.845    3.6862
   31.860    3.2473
   31.875    3.5106
   31.890    3.0718
   31.905    3.1771
   31.920    3.1947
   31.935    3.5633
   31.950    3.3175
   31.965    3.1596
   31.980    3.3702
   31.995    3.0191
   32.010    3.0893
   32.025    3.4755
   32.040    3.4580
   32.055    3.4931
   32.070    3.1420
   32.085    3.0367
   32.100    3.3351
   32.115    3.3877
   32.130    3.3175
   32.145    3.3175
   32.160    3.1596
   32.175    3.0893
   32.190    3.3000
   32.205    3.2473
   32.220    3.1947
   32.235    2.8963
   32.250    2.9665
   32.265    3.1771
   32.280    2.8963
   32.295    2.8787
   32.310    3.3877
   32.325    3.4053
   32.340    3.2649
   32.355    3.0191
   32.370    3.5633
   32.385    3.3000
   32.400    2.9138
   32.415    3.3702
   32.430    2.8963
   32.445    2.9489
   32.460    2.9138
   32.475    2.9840
   32.490    3.0016
   32.505    2.9840
   32.520    3.0367
   32.535    3.2473
   32.550    3.3877
   32.565    3.1069
   32.580    3.4229
   32.595    3.1771
   32.610    3.1771
   32.625    3.2298
   32.640    3.2473
   32.655    2.8436
   32.670    3.1420
   32.685    3.2824
   32.700    3.4404
   32.715    3.2649
   32.730    3.2824
   32.745    3.3000
   32.760    3.5106
   32.775    3.4404
   32.790    3.3000
   32.805    3.3000
   32.820    3.0718
   32.835    3.5282
   32.850    3.6686
   32.865    3.2298
   32.880    3.4404
   32.895    3.2122
   32.910    3.0016
   32.925    2.8612
   32.940    3.0542
   32.955    2.9840
   32.970    3.0191
   32.985    2.7207
   33.000    2.9840
   33.015    3.2298
   33.030    2.8260
   33.045    2.7909
   33.060    2.7734
   33.075    3.0191
   33.090    3.0542
   33.105    2.9138
   33.120    3.1596
   33.135    3.1771
   33.150    3.4580
   33.165    2.9665
   33.180    2.8085
   33.195    2.7558
   33.210    3.0542
   33.225    2.7558
   33.240    3.0016
   33.255    3.1771
   33.270    2.9489
   33.285    3.1420
   33.300    3.3526
   33.315    3.1771
   33.330    2.8260
   33.345    3.0367
   33.360    2.5276
   33.375    3.0542
   33.390    3.2649
   33.405    3.2473
   33.420    3.2473
   33.435    3.0718
   33.450    3.2298
   33.465    3.0718
   33.480    3.1245
   33.495    3.1420
   33.510    3.2649
   33.525    3.0893
   33.540    3.0367
   33.555    2.7383
   33.570    2.8787
   33.585    2.7909
   33.600    3.1596
   33.615    2.8612
   33.630    3.1245
   33.645    3.0893
   33.660    3.1420
   33.675    3.1947
   33.690    3.2649
   33.705    2.9138
   33.720    3.1596
   33.735    3.0367
   33.750    3.1069
   33.765    3.0542
   33.780    3.5282
   33.795    3.3877
   33.810    3.5633
   33.825    3.3526
   33.840    3.5633
   33.855    3.5808
   33.870    3.4053
   33.885    3.2824
   33.900    3.0542
   33.915    3.0893
   33.930    3.2298
   33.945    3.0016
   33.960    2.7558
   33.975    2.8963
   33.990    2.7383
   34.005    3.0367
   34.020    3.2473
   34.035    3.4580
   34.050    3.3000
   34.065    2.7909
   34.080    2.9314
   34.095    3.3526
   34.110    3.1596
   34.125    3.0016
   34.140    3.0016
   34.155    2.8963
   34.170    3.1069
   34.185    3.1420
   34.200    3.0542
   34.215    3.2824
   34.230    2.9489
   34.245    3.1245
   34.260    3.4404
   34.275    3.1771
   34.290    2.7558
   34.305    2.7909
   34.320    3.2122
   34.335    3.0893
   34.350    2.8085
   34.365    2.9138
   34.380    3.4580
   34.395    3.2824
   34.410    2.8963
   34.425    2.9489
   34.440    2.8085
   34.455    2.8612
   34.470    3.2298
   34.485    3.0893
   34.500    2.6505
   34.515    2.8436
   34.530    3.1771
   34.545    2.8085
   34.560    2.9314
   34.575    2.9665
   34.590    2.8436
   34.605    3.3000
   34.620    3.2298
   34.635    2.9489
   34.650    2.8612
   34.665    3.1771
   34.680    3.2824
   34.695    2.8787
   34.710    3.0191
   34.725    3.4229
   34.740    3.6159
   34.755    2.6681
   34.770    2.9840
   34.785    3.2298
   34.800    3.0893
   34.815    3.0367
   34.830    2.6856
   34.845    2.9314
   34.860    2.9665
   34.875    2.8963
   34.890    2.8260
   34.905    2.9489
   34.920    2.8612
   34.935    2.9665
   34.950    2.9840
   34.965    2.7734
   34.980    2.9138
   34.995    2.9665
   35.010    2.7558
   35.025    2.9138
   35.040    2.9314
   35.055    2.7383
   35.070    3.0016
   35.085    3.0718
   35.100    2.8436
   35.115    2.8963
   35.130    2.9840
   35.145    3.0367
   35.160    3.0893
   35.175    2.7558
   35.190    2.7558
   35.205    3.0542
   35.220    2.9138
   35.235    3.1069
   35.250    3.2824
   35.265    3.1245
   35.280    3.3000
   35.295    3.0191
   35.310    3.1771
   35.325    3.0016
   35.340    2.6330
   35.355    2.6856
   35.370    2.5452
   35.385    2.9314
   35.400    2.6681
   35.415    2.7207
   35.430    2.6154
   35.445    2.8436
   35.460    2.7207
   35.475    2.8612
   35.490    3.1420
   35.505    3.1245
   35.520    2.8085
   35.535    2.5628
   35.550    3.0367
   35.565    3.2298
   35.580    2.7909
   35.595    2.8787
   35.610    2.9138
   35.625    2.9138
   35.640    2.8436
   35.655    2.8787
   35.670    3.0718
   35.685    2.8260
   35.700    2.8787
   35.715    2.9314
   35.730    3.1069
   35.745    3.0367
   35.760    3.1420
   35.775    3.3351
   35.790    2.9489
   35.805    2.4399
   35.820    2.8787
   35.835    2.8612
   35.850    2.8085
   35.865    2.8963
   35.880    3.1420
   35.895    3.0191
   35.910    2.8085
   35.925    3.0893
   35.940    3.1947
   35.955    3.1771
   35.970    3.1596
   35.985    3.1947
   36.000    2.6330
   36.015    2.4925
   36.030    2.6681
   36.045    2.9489
   36.060    2.8963
   36.075    3.0893
   36.090    3.1245
   36.105    2.8963
   36.120    2.9665
   36.135    3.0367
   36.150    2.8787
   36.165    2.8085
   36.180    2.8963
   36.195    3.1420
   36.210    2.8260
   36.225    3.0367
   36.240    2.8963
   36.255    3.3702
   36.270    2.7558
   36.285    2.8612
   36.300    2.7734
   36.315    2.8085
   36.330    2.5979
   36.345    2.7207
   36.360    2.6154
   36.375    2.7909
   36.390    2.9138
   36.405    2.6505
   36.420    2.8085
   36.435    3.0367
   36.450    3.1596
   36.465    3.0542
   36.480    2.6856
   36.495    2.7734
   36.510    3.1069
   36.525    2.9840
   36.540    2.9314
   36.555    3.3351
   36.570    2.5628
   36.585    2.8085
   36.600    2.7383
   36.615    2.9840
   36.630    2.8085
   36.645    2.8787
   36.660    2.9665
   36.675    2.8963
   36.690    2.8787
   36.705    2.9665
   36.720    2.9138
   36.735    2.7734
   36.750    2.8787
   36.765    2.6681
   36.780    2.8260
   36.795    3.0367
   36.810    2.7558
   36.825    3.0718
   36.840    2.7383
   36.855    2.8436
   36.870    2.8085
   36.885    3.1245
   36.900    3.2824
   36.915    3.0542
   36.930    3.2122
   36.945    3.3877
   36.960    2.7909
   36.975    3.4404
   36.990    3.4053
   37.005    3.4580
   37.020    3.0367
   37.035    3.4053
   37.050    3.3351
   37.065    3.0542
   37.080    2.9489
   37.095    3.2824
   37.110    3.1420
   37.125    2.5803
   37.140    2.7734
   37.155    2.5452
   37.170    2.5979
   37.185    2.7383
   37.200    2.7383
   37.215    2.7383
   37.230    2.7207
   37.245    2.8963
   37.260    2.6154
   37.275    2.4223
   37.290    2.7558
   37.305    2.6154
   37.320    2.5979
   37.335    2.7734
   37.350    2.9665
   37.365    2.9138
   37.380    2.9489
   37.395    2.7383
   37.410    2.8787
   37.425    3.0542
   37.440    2.8436
   37.455    2.8436
   37.470    2.6154
   37.485    2.6681
   37.500    2.9314
   37.515    2.7734
   37.530    2.7909
   37.545    3.1771
   37.560    2.5979
   37.575    2.9489
   37.590    2.9489
   37.605    2.9489
   37.620    2.9314
   37.635    2.8260
   37.650    2.9665
   37.665    2.9840
   37.680    2.6505
   37.695    2.8612
   37.710    2.6154
   37.725    2.6154
   37.740    2.8436
   37.755    2.6681
   37.770    2.6681
   37.785    2.9138
   37.800    2.8612
   37.815    2.8085
   37.830    2.5803
   37.845    2.8787
   37.860    2.7558
   37.875    2.8612
   37.890    2.6681
   37.905    2.6681
   37.920    2.8085
   37.935    2.8787
   37.950    2.6856
   37.965    2.8787
   37.980    2.9489
   37.995    2.9665
   38.010    2.7909
   38.025    2.5452
   38.040    2.5276
   38.055    2.6154
   38.070    2.7032
   38.085    2.9489
   38.100    2.8436
   38.115    2.9138
   38.130    2.7032
   38.145    2.8963
   38.160    2.6154
   38.175    2.8085
   38.190    2.6681
   38.205    2.5803
   38.220    2.7734
   38.235    3.2473
   38.250    2.7383
   38.265    2.7383
   38.280    2.6154
   38.295    3.1069
   38.310    2.7383
   38.325    2.7032
   38.340    2.8436
   38.355    2.8963
   38.370    2.4574
   38.385    2.7558
   38.400    2.9665
   38.415    2.8787
   38.430    2.4223
   38.445    2.7207
   38.460    2.5803
   38.475    2.8260
   38.490    2.6681
   38.505    2.6330
   38.520    2.5979
   38.535    2.4574
   38.550    2.4048
   38.565    2.5276
   38.580    2.8085
   38.595    2.6856
   38.610    2.5101
   38.625    2.7909
   38.640    3.0718
   38.655    2.8612
   38.670    3.0191
   38.685    2.6681
   38.700    2.9314
   38.715    2.9665
   38.730    2.8612
   38.745    2.6856
   38.760    2.5101
   38.775    2.4399
   38.790    3.1596
   38.805    2.9314
   38.820    3.0718
   38.835    2.6330
   38.850    2.4925
   38.865    2.8260
   38.880    2.8787
   38.895    2.8963
   38.910    3.0893
   38.925    2.8963
   38.940    2.7734
   38.955    2.8436
   38.970    2.6856
   38.985    2.8085
   39.000    2.6505
   39.015    2.6681
   39.030    2.7734
   39.045    2.6505
   39.060    2.4574
   39.075    2.5628
   39.090    2.6154
   39.105    3.0367
   39.120    3.0016
   39.135    3.0718
   39.150    3.0016
   39.165    3.0542
   39.180    2.9840
   39.195    2.8787
   39.210    2.6330
   39.225    2.7558
   39.240    3.1069
   39.255    2.7558
   39.270    2.8436
   39.285    2.7032
   39.300    2.7909
   39.315    2.9138
   39.330    2.4925
   39.345    2.6856
   39.360    2.6856
   39.375    2.2995
   39.390    2.4574
   39.405    2.8436
   39.420    2.7734
   39.435    2.9314
   39.450    2.7207
   39.465    2.5628
   39.480    2.8612
   39.495    2.5101
   39.510    2.8612
   39.525    2.7734
   39.540    3.0718
   39.555    2.8612
   39.570    2.8260
   39.585    2.7207
   39.600    2.9840
   39.615    2.8085
   39.630    2.8963
   39.645    2.6330
   39.660    2.2995
   39.675    2.3521
   39.690    2.6505
   39.705    2.8963
   39.720    2.9314
   39.735    2.8436
   39.750    2.6681
   39.765    2.6154
   39.780    2.6681
   39.795    2.9665
   39.810    3.1596
   39.825    2.8436
   39.840    3.1069
   39.855    2.6505
   39.870    2.7383
   39.885    2.6330
   39.900    2.4750
   39.915    3.0718
   39.930    3.2473
   39.945    2.7734
   39.960    2.7207
   39.975    3.0191
   39.990    2.9665
   40.005    2.7558
   40.020    2.4925
   40.035    2.1766
   40.050    2.3346
   40.065    2.6154
   40.080    2.7558
   40.095    2.5979
   40.110    2.8260
   40.125    2.5628
   40.140    3.1245
   40.155    2.8436
   40.170    2.8436
   40.185    2.8260
   40.200    2.8085
   40.215    2.9840
   40.230    2.6856
   40.245    2.8085
   40.260    3.0893
   40.275    3.0191
   40.290    2.6856
   40.305    2.9138
   40.320    2.7734
   40.335    2.8612
   40.350    3.5633
   40.365    3.4755
   40.380    3.1420
   40.395    3.3526
   40.410    3.3702
   40.425    3.0542
   40.440    3.0016
   40.455    3.2824
   40.470    3.0893
   40.485    3.3175
   40.500    3.1596
   40.515    3.0893
   40.530    2.8436
   40.545    2.5803
   40.560    2.5628
   40.575    2.8085
   40.590    2.5979
   40.605    2.6154
   40.620    2.5803
   40.635    2.6330
   40.650    3.0718
   40.665    2.7207
   40.680    2.4750
   40.695    2.6330
   40.710    2.8787
   40.725    2.5452
   40.740    2.8260
   40.755    2.9489
   40.770    3.0191
   40.785    2.8612
   40.800    2.8963
   40.815    2.6505
   40.830    2.4223
   40.845    2.7558
   40.860    2.7383
   40.875    2.5452
   40.890    2.8085
   40.905    2.8085
   40.920    2.6681
   40.935    2.7032
   40.950    2.5628
   40.965    2.4574
   40.980    2.7558
   40.995    3.0542
   41.010    2.7734
   41.025    2.7207
   41.040    2.7383
   41.055    2.5452
   41.070    2.6681
   41.085    2.7909
   41.100    2.5979
   41.115    2.4048
   41.130    2.8612
   41.145    2.8085
   41.160    3.0191
   41.175    3.1245
   41.190    2.8260
   41.205    2.7734
   41.220    3.0191
   41.235    2.8085
   41.250    2.8612
   41.265    2.9489
   41.280    2.7558
   41.295    2.5628
   41.310    3.0893
   41.325    2.8085
   41.340    2.7909
   41.355    2.7207
   41.370    2.9665
   41.385    3.0718
   41.400    2.5803
   41.415    2.6681
   41.430    2.8787
   41.445    2.5803
   41.460    2.6154
   41.475    2.8436
   41.490    3.1420
   41.505    2.5452
   41.520    2.7383
   41.535    2.6505
   41.550    2.8612
   41.565    2.7207
   41.580    2.5803
   41.595    2.3346
   41.610    2.6330
   41.625    2.6856
   41.640    2.8963
   41.655    2.4925
   41.670    2.5979
   41.685    2.4574
   41.700    2.5101
   41.715    2.4048
   41.730    2.8612
   41.745    2.8085
   41.760    2.8963
   41.775    2.7383
   41.790    2.7734
   41.805    2.7558
   41.820    2.5803
   41.835    2.5452
   41.850    2.5101
   41.865    2.6681
   41.880    2.5276
   41.895    2.5979
   41.910    2.5101
   41.925    2.8436
   41.940    2.7909
   41.955    2.6154
   41.970    2.6330
   41.985    3.2298
   42.000    3.0191
   42.015    2.6856
   42.030    2.8612
   42.045    2.7383
   42.060    3.0542
   42.075    3.1771
   42.090    2.6681
   42.105    3.1771
   42.120    2.8436
   42.135    2.8787
   42.150    2.6505
   42.165    2.6154
   42.180    2.8085
   42.195    2.7909
   42.210    2.7909
   42.225    2.7207
   42.240    2.5803
   42.255    2.4925
   42.270    2.8260
   42.285    3.1947
   42.300    2.6681
   42.315    2.4750
   42.330    2.7383
   42.345    2.8260
   42.360    2.6856
   42.375    2.6330
   42.390    2.2468
   42.405    2.6330
   42.420    2.7032
   42.435    2.6154
   42.450    2.5276
   42.465    2.6154
   42.480    2.7032
   42.495    2.9665
   42.510    2.7558
   42.525    2.8260
   42.540    2.5276
   42.555    2.3170
   42.570    2.2468
   42.585    2.4048
   42.600    2.7558
   42.615    2.7558
   42.630    2.5452
   42.645    2.6505
   42.660    2.5979
   42.675    2.7207
   42.690    2.6330
   42.705    2.6505
   42.720    2.5628
   42.735    2.8612
   42.750    3.1069
   42.765    2.7734
   42.780    2.9314
   42.795    3.1245
   42.810    3.0191
   42.825    2.9138
   42.840    2.8085
   42.855    2.8085
   42.870    2.8787
   42.885    2.8436
   42.900    3.0718
   42.915    3.0542
   42.930    2.7383
   42.945    2.5628
   42.960    2.7909
   42.975    3.0367
   42.990    2.7032
   43.005    2.3170
   43.020    2.5979
   43.035    2.6856
   43.050    2.9138
   43.065    2.8612
   43.080    2.8260
   43.095    2.6505
   43.110    2.5979
   43.125    2.8963
   43.140    2.5628
   43.155    2.8085
   43.170    3.1596
   43.185    3.1947
   43.200    2.8612
   43.215    3.1245
   43.230    2.9314
   43.245    3.1596
   43.260    2.7734
   43.275    2.8612
   43.290    2.9314
   43.305    2.7558
   43.320    2.7558
   43.335    3.1069
   43.350    2.8963
   43.365    2.9138
   43.380    2.7909
   43.395    2.4925
   43.410    2.7207
   43.425    2.7558
   43.440    2.8612
   43.455    2.6330
   43.470    2.2819
   43.485    2.7207
   43.500    2.6505
   43.515    2.6681
   43.530    2.5979
   43.545    2.5628
   43.560    2.5452
   43.575    2.9314
   43.590    2.7909
   43.605    2.3346
   43.620    2.3872
   43.635    2.7207
   43.650    2.6681
   43.665    2.9665
   43.680    2.6681
   43.695    2.6856
   43.710    2.9314
   43.725    2.8436
   43.740    2.5452
   43.755    2.9138
   43.770    2.4223
   43.785    2.6505
   43.800    2.5628
   43.815    2.7383
   43.830    2.8085
   43.845    2.9489
   43.860    2.5101
   43.875    2.9314
   43.890    2.9314
   43.905    2.4574
   43.920    2.5276
   43.935    2.9489
   43.950    2.6330
   43.965    2.7909
   43.980    2.7909
   43.995    2.9489
   44.010    3.3000
   44.025    3.0191
   44.040    2.8787
   44.055    2.9489
   44.070    2.8963
   44.085    2.5276
   44.100    2.2292
   44.115    2.7909
   44.130    2.6154
   44.145    2.3872
   44.160    2.6856
   44.175    2.6856
   44.190    2.7383
   44.205    2.6856
   44.220    2.4750
   44.235    2.5276
   44.250    3.0191
   44.265    3.0542
   44.280    2.6505
   44.295    2.5101
   44.310    2.7558
   44.325    2.7032
   44.340    2.5628
   44.355    2.6330
   44.370    2.5276
   44.385    2.7558
   44.400    2.5628
   44.415    2.5276
   44.430    2.2995
   44.445    2.5628
   44.460    2.9489
   44.475    3.2298
   44.490    2.9489
   44.505    2.6505
   44.520    2.8260
   44.535    2.8260
   44.550    2.3346
   44.565    2.4750
   44.580    2.7032
   44.595    2.8260
   44.610    2.7558
   44.625    2.5979
   44.640    2.6856
   44.655    2.8436
   44.670    2.7032
   44.685    2.5276
   44.700    2.7032
   44.715    2.7734
   44.730    2.8612
   44.745    2.7207
   44.760    2.5101
   44.775    2.7909
   44.790    2.8787
   44.805    3.0542
   44.820    2.5452
   44.835    2.7734
   44.850    2.7909
   44.865    2.9138
   44.880    2.7909
   44.895    2.4048
   44.910    2.4048
   44.925    2.5628
   44.940    2.6681
   44.955    2.4223
   44.970    2.4574
   44.985    2.8436
   45.000    2.6681
   45.015    2.4750
   45.030    2.2643
   45.045    2.7734
   45.060    2.9840
   45.075    3.0542
   45.090    2.5101
   45.105    2.9665
   45.120    2.9138
   45.135    2.9314
   45.150    2.8787
   45.165    2.7909
   45.180    2.8260
   45.195    3.0718
   45.210    2.9138
   45.225    2.8963
   45.240    2.8963
   45.255    2.6154
   45.270    2.5452
   45.285    2.8260
   45.300    2.5628
   45.315    2.4399
   45.330    2.8436
   45.345    2.5628
   45.360    2.7032
   45.375    2.5276
   45.390    2.9314
   45.405    2.3697
   45.420    2.7734
   45.435    2.8436
   45.450    2.6681
   45.465    2.9840
   45.480    2.8963
   45.495    2.6330
   45.510    2.2819
   45.525    2.3346
   45.540    2.4399
   45.555    2.5276
   45.570    2.8085
   45.585    2.7207
   45.600    2.5101
   45.615    2.5803
   45.630    2.4048
   45.645    2.6681
   45.660    2.7383
   45.675    2.4223
   45.690    2.8612
   45.705    2.6856
   45.720    2.4925
   45.735    2.8085
   45.750    2.5101
   45.765    2.5979
   45.780    2.8260
   45.795    2.5452
   45.810    2.4048
   45.825    2.5452
   45.840    2.6505
   45.855    2.5628
   45.870    2.1239
   45.885    2.5628
   45.900    2.5276
   45.915    2.2819
   45.930    2.5979
   45.945    2.8787
   45.960    2.7207
   45.975    2.7909
   45.990    2.7032
   46.005    2.6154
   46.020    2.5101
   46.035    2.8963
   46.050    3.1420
   46.065    2.8436
   46.080    2.6330
   46.095    2.3872
   46.110    2.5452
   46.125    2.6505
   46.140    2.6856
   46.155    3.0016
   46.170    2.9314
   46.185    2.7032
   46.200    3.2122
   46.215    2.7734
   46.230    2.9665
   46.245    2.6505
   46.260    2.7909
   46.275    2.6154
   46.290    2.5452
   46.305    2.7383
   46.320    2.8612
   46.335    2.9138
   46.350    2.9138
   46.365    2.8787
   46.380    2.7558
   46.395    2.8963
   46.410    2.7032
   46.425    2.5803
   46.440    2.5101
   46.455    2.7032
   46.470    2.7207
   46.485    2.6505
   46.500    2.6505
   46.515    2.5979
   46.530    2.8085
   46.545    2.6681
   46.560    2.9840
   46.575    2.6856
   46.590    2.7207
   46.605    2.6154
   46.620    2.4925
   46.635    2.4925
   46.650    2.2995
   46.665    2.4574
   46.680    2.6681
   46.695    2.4750
   46.710    2.5276
   46.725    2.5452
   46.740    2.6856
   46.755    2.7207
   46.770    2.7207
   46.785    2.8436
   46.800    2.6856
   46.815    2.5101
   46.830    2.5803
   46.845    2.5803
   46.860    2.0713
   46.875    2.3521
   46.890    2.5101
   46.905    2.2292
   46.920    2.2468
   46.935    2.3697
   46.950    2.2819
   46.965    2.6505
   46.980    2.9314
   46.995    2.6505
   47.010    2.7734
   47.025    2.6330
   47.040    2.6856
   47.055    2.7558
   47.070    2.7558
   47.085    2.5979
   47.100    2.6330
   47.115    2.3170
   47.130    2.7032
   47.145    2.5276
   47.160    2.6505
   47.175    2.4223
   47.190    2.3346
   47.205    2.4925
   47.220    2.6330
   47.235    2.9665
   47.250    2.3872
   47.265    2.5979
   47.280    2.5803
   47.295    2.4048
   47.310    2.6154
   47.325    2.4574
   47.340    2.6505
   47.355    2.7909
   47.370    2.5803
   47.385    2.7558
   47.400    2.4399
   47.415    2.5628
   47.430    2.8612
   47.445    2.5101
   47.460    2.1766
   47.475    2.2819
   47.490    2.1941
   47.505    2.1766
   47.520    2.3697
   47.535    2.6330
   47.550    2.4925
   47.565    2.4925
   47.580    2.4223
   47.595    2.3170
   47.610    2.4925
   47.625    2.6681
   47.640    2.6856
   47.655    2.2819
   47.670    2.5803
   47.685    2.3170
   47.700    2.6330
   47.715    2.8260
   47.730    2.6154
   47.745    2.8787
   47.760    2.8612
   47.775    2.6681
   47.790    2.5803
   47.805    2.6505
   47.820    2.6681
   47.835    2.8612
   47.850    2.1590
   47.865    2.2643
   47.880    2.5452
   47.895    2.6330
   47.910    2.5452
   47.925    2.2468
   47.940    2.4925
   47.955    2.4223
   47.970    2.2468
   47.985    2.8260
   48.000    2.6330
   48.015    2.5803
   48.030    2.6681
   48.045    2.6681
   48.060    2.5803
   48.075    2.8436
   48.090    2.4399
   48.105    2.8085
   48.120    2.5276
   48.135    2.6505
   48.150    2.9138
   48.165    2.3872
   48.180    2.5276
   48.195    2.5979
   48.210    2.6154
   48.225    2.4574
   48.240    2.5276
   48.255    2.4925
   48.270    2.5979
   48.285    2.6154
   48.300    2.5628
   48.315    2.4048
   48.330    2.6505
   48.345    2.4925
   48.360    2.4048
   48.375    2.7383
   48.390    2.6154
   48.405    2.5452
   48.420    2.6681
   48.435    3.0191
   48.450    2.9489
   48.465    2.9138
   48.480    2.8085
   48.495    2.5628
   48.510    2.6330
   48.525    2.5628
   48.540    2.6154
   48.555    2.5276
   48.570    2.5452
   48.585    2.6856
   48.600    2.6505
   48.615    2.8963
   48.630    2.3697
   48.645    2.6856
   48.660    2.4750
   48.675    2.2117
   48.690    2.4574
   48.705    2.4048
   48.720    2.5452
   48.735    2.7909
   48.750    2.7207
   48.765    2.4048
   48.780    2.5452
   48.795    2.6154
   48.810    2.6330
   48.825    2.4750
   48.840    2.2819
   48.855    2.8436
   48.870    2.9138
   48.885    3.0367
   48.900    2.6505
   48.915    2.6681
   48.930    2.5803
   48.945    2.3170
   48.960    2.4574
   48.975    2.4574
   48.990    2.6505
   49.005    2.8436
   49.020    2.6330
   49.035    2.4399
   49.050    2.1941
   49.065    2.5452
   49.080    2.5803
   49.095    2.5803
   49.110    2.5803
   49.125    2.3872
   49.140    2.4223
   49.155    2.4750
   49.170    2.3697
   49.185    2.2995
   49.200    2.1766
   49.215    2.4048
   49.230    2.5979
   49.245    2.4750
   49.260    2.5979
   49.275    2.5803
   49.290    2.4399
   49.305    2.3697
   49.320    2.2995
   49.335    2.4048
   49.350    2.5101
   49.365    2.7383
   49.380    2.4223
   49.395    2.5628
   49.410    2.6330
   49.425    2.3872
   49.440    2.6856
   49.455    2.5979
   49.470    2.5628
   49.485    2.6154
   49.500    2.7032
   49.515    2.4925
   49.530    2.2819
   49.545    2.6330
   49.560    2.4048
   49.575    2.7909
   49.590    2.9489
   49.605    2.8612
   49.620    2.3170
   49.635    2.2468
   49.650    2.2468
   49.665    2.4399
   49.680    2.2819
   49.695    2.2468
   49.710    2.4399
   49.725    2.4048
   49.740    2.4574
   49.755    2.7383
   49.770    2.6505
   49.785    2.7909
   49.800    2.8612
   49.815    2.4223
   49.830    2.4925
   49.845    2.4574
   49.860    2.3521
   49.875    2.1064
   49.890    2.0888
   49.905    2.3170
   49.920    2.5979
   49.935    2.5628
   49.950    2.4223
   49.965    2.6505
   49.980    2.7909
