    1.500   19.9789
    1.515   20.1790
    1.530   19.7788
    1.545   19.6735
    1.560   19.3576
    1.575   18.7151
    1.590   18.0516
    1.605   17.3986
    1.620   17.1564
    1.635   17.2407
    1.650   17.0195
    1.665   16.4402
    1.680   16.2401
    1.695   16.0295
    1.710   16.0927
    1.725   15.3344
    1.740   14.6603
    1.755   14.5340
    1.770   15.2291
    1.785   14.7551
    1.800   14.2075
    1.815   14.6393
    1.830   14.1864
    1.845   13.4597
    1.860   14.1127
    1.875   13.4387
    1.890   13.1227
    1.905   13.0068
    1.920   12.7857
    1.935   12.7751
    1.950   13.4492
    1.965   12.5434
    1.980   12.0274
    1.995   12.6066
    2.010   11.6377
    2.025   11.6904
    2.040   11.9221
    2.055   11.6588
    2.070   11.6693
    2.085   11.3744
    2.100   11.3428
    2.115   11.0479
    2.130   10.8794
    2.145   10.8794
    2.160   10.7109
    2.175   10.5003
    2.190   10.0263
    2.205   10.2054
    2.220   10.0895
    2.235    9.7946
    2.250    9.8578
    2.265   10.5529
    2.280    9.9737
    2.295    9.2048
    2.310    9.9947
    2.325    9.0995
    2.340    9.1838
    2.355    9.2470
    2.370    9.3944
    2.385    9.2996
    2.400    9.1732
    2.415    9.0258
    2.430    8.8678
    2.445    8.8889
    2.460    9.0679
    2.475    9.0890
    2.490    8.6467
    2.505    8.4781
    2.520    8.4255
    2.535    8.7625
    2.550    8.1938
    2.565    8.1938
    2.580    8.2254
    2.595    8.0463
    2.610    8.1938
    2.625    8.2043
    2.640    8.1727
    2.655    8.1622
    2.670    7.9410
    2.685    7.7199
    2.700    8.3623
    2.715    7.9831
    2.730    7.8673
    2.745    8.3834
    2.760    8.2991
    2.775    7.9726
    2.790    8.3939
    2.805    7.8041
    2.820    7.7304
    2.835    7.5935
    2.850    7.6988
    2.865    7.8462
    2.880    8.2886
    2.895    8.4255
    2.910    8.4255
    2.925    8.2886
    2.940    8.1201
    2.955    8.5413
    2.970    8.4992
    2.985    8.6361
    3.000    8.6572
    3.015    8.8889
    3.030    9.0153
    3.045    8.7204
    3.060    9.2364
    3.075    9.6051
    3.090    9.4365
    3.105   10.0263
    3.120    9.9947
    3.135   10.1106
    3.150   10.5635
    3.165   10.4371
    3.180   11.4692
    3.195   11.9537
    3.210   11.9326
    3.225   12.3117
    3.240   12.8278
    3.255   13.4808
    3.270   13.9758
    3.285   15.2923
    3.300   15.9874
    3.315   16.3770
    3.330   17.1669
    3.345   17.6514
    3.360   19.1890
    3.375   20.8426
    3.390   21.8536
    3.405   22.6962
    3.420   24.5076
    3.435   24.8763
    3.450   26.3612
    3.465   28.0042
    3.480   30.0158
    3.495   31.9221
    3.510   34.5550
    3.525   36.7983
    3.540   39.2838
    3.555   42.7593
    3.570   44.7077
    3.585   47.5197
    3.600   51.3112
    3.615   56.1875
    3.630   58.9784
    3.645   62.9279
    3.660   68.2359
    3.675   74.3971
    3.690   79.6419
    3.705   87.1511
    3.720   95.3976
    3.735  106.0980
    3.750  115.5134
    3.765  129.7525
    3.780  142.0432
    3.795  160.2212
    3.810  180.7056
    3.825  208.0674
    3.840  246.1822
    3.855  293.3650
    3.870  335.1027
    3.885  358.1043
    3.900  347.4355
    3.915  305.5714
    3.930  228.0569
    3.945  132.0590
    3.960   59.5998
    3.975   26.4771
    3.990   16.1559
    4.005   13.1332
    4.020   11.0585
    4.035    8.9837
    4.050    8.9205
    4.065    8.0779
    4.080    7.6883
    4.095    7.2143
    4.110    7.0774
    4.125    6.7615
    4.140    6.7825
    4.155    6.8246
    4.170    6.2665
    4.185    6.1295
    4.200    5.6451
    4.215    6.0242
    4.230    5.8241
    4.245    5.4660
    4.260    5.7399
    4.275    5.6661
    4.290    6.0874
    4.305    5.4871
    4.320    5.6767
    4.335    5.2238
    4.350    5.3081
    4.365    5.0237
    4.380    5.0658
    4.395    5.3923
    4.410    5.0869
    4.425    4.8868
    4.440    5.0342
    4.455    5.1395
    4.470    4.9816
    4.485    4.9605
    4.500    5.0132
    4.515    4.9816
    4.530    4.5287
    4.545    4.9605
    4.560    5.1922
    4.575    4.9921
    4.590    5.1185
    4.605    5.1501
    4.620    5.0658
    4.635    5.0869
    4.650    5.0658
    4.665    4.9605
    4.680    4.7604
    4.695    5.0869
    4.710    5.2659
    4.725    5.0132
    4.740    5.1501
    4.755    5.2975
    4.770    4.7815
    4.785    4.7815
    4.800    4.8552
    4.815    5.2238
    4.830    5.1395
    4.845    4.6024
    4.860    4.9078
    4.875    4.7709
    4.890    4.6867
    4.905    4.6867
    4.920    4.5287
    4.935    5.2027
    4.950    5.0764
    4.965    5.1395
    4.980    5.2449
    4.995    5.2870
    5.010    5.2659
    5.025    5.5187
    5.040    5.2870
    5.055    5.6977
    5.070    5.5082
    5.085    5.9610
    5.100    6.0874
    5.115    6.1927
    5.130    6.1822
    5.145    6.4034
    5.160    7.3828
    5.175    7.1406
    5.190    7.1406
    5.205    7.8673
    5.220    8.3728
    5.235    9.0785
    5.250    9.1838
    5.265    9.7736
    5.280   10.5108
    5.295   10.5845
    5.310   10.9426
    5.325   12.8699
    5.340   13.6809
    5.355   15.0395
    5.370   16.1348
    5.385   17.4197
    5.400   19.7683
    5.415   22.1696
    5.430   24.5814
    5.445   27.9094
    5.460   32.4065
    5.475   38.5466
    5.490   45.2449
    5.505   49.0679
    5.520   48.0358
    5.535   44.4866
    5.550   34.8710
    5.565   23.6756
    5.580   14.0390
    5.595    8.1411
    5.610    5.9189
    5.625    5.4976
    5.640    5.3712
    5.655    5.2238
    5.670    5.0764
    5.685    5.2027
    5.700    4.5182
    5.715    4.6235
    5.730    4.8341
    5.745    4.7077
    5.760    4.5919
    5.775    4.3918
    5.790    4.6972
    5.805    4.2970
    5.820    4.2022
    5.835    4.4866
    5.850    4.2233
    5.865    4.5498
    5.880    4.3497
    5.895    4.5076
    5.910    4.5076
    5.925    4.3497
    5.940    4.2443
    5.955    4.2233
    5.970    4.3813
    5.985    4.4971
    6.000    4.6656
    6.015    4.2443
    6.030    4.3391
    6.045    4.3497
    6.060    4.3813
    6.075    4.1917
    6.090    4.1074
    6.105    4.2443
    6.120    4.3497
    6.135    4.2759
    6.150    4.2338
    6.165    4.4023
    6.180    4.3286
    6.195    4.3602
    6.210    4.1285
    6.225    4.2233
    6.240    4.4234
    6.255    4.2127
    6.270    4.2759
    6.285    3.9705
    6.300    4.1496
    6.315    4.2549
    6.330    4.5182
    6.345    4.3181
    6.360    4.7604
    6.375    4.5076
    6.390    4.3918
    6.405    4.6972
    6.420    4.4866
    6.435    4.2970
    6.450    4.1917
    6.465    4.2549
    6.480    4.1390
    6.495    4.2970
    6.510    4.4128
    6.525    4.2865
    6.540    4.4023
    6.555    4.6761
    6.570    4.5814
    6.585    4.8973
    6.600    4.6972
    6.615    4.8657
    6.630    4.7499
    6.645    4.8447
    6.660    5.0764
    6.675    5.1080
    6.690    5.0974
    6.705    5.4871
    6.720    5.5503
    6.735    6.4034
    6.750    6.3296
    6.765    5.9610
    6.780    6.0242
    6.795    5.6240
    6.810    5.3607
    6.825    5.1395
    6.840    4.8025
    6.855    4.1074
    6.870    4.2127
    6.885    4.2549
    6.900    4.2654
    6.915    4.2549
    6.930    4.4339
    6.945    4.1601
    6.960    3.9810
    6.975    4.1706
    6.990    4.2654
    7.005    4.3181
    7.020    4.4550
    7.035    4.5182
    7.050    4.1706
    7.065    4.5392
    7.080    4.2443
    7.095    4.0758
    7.110    4.3286
    7.125    4.2022
    7.140    4.3391
    7.155    4.1917
    7.170    4.3497
    7.185    4.3918
    7.200    4.3813
    7.215    4.1706
    7.230    4.2127
    7.245    4.2233
    7.260    4.2865
    7.275    4.4655
    7.290    4.0021
    7.305    4.2022
    7.320    4.3918
    7.335    4.2127
    7.350    4.3497
    7.365    4.2338
    7.380    4.4023
    7.395    4.1601
    7.410    4.3181
    7.425    4.2759
    7.440    4.4234
    7.455    4.4234
    7.470    4.4866
    7.485    4.7393
    7.500    4.7604
    7.515    4.9078
    7.530    5.0658
    7.545    5.1290
    7.560    5.3186
    7.575    5.7399
    7.590    5.5924
    7.605    5.6661
    7.620    5.9505
    7.635    6.2981
    7.650    7.1617
    7.665    7.4671
    7.680    7.5619
    7.695    8.3412
    7.710    9.0995
    7.725   10.5845
    7.740   11.8378
    7.755   12.9015
    7.770   16.3454
    7.785   17.8620
    7.800   19.7578
    7.815   19.7788
    7.830   18.7678
    7.845   16.2507
    7.860   12.3433
    7.875    8.8889
    7.890    6.4350
    7.905    5.1922
    7.920    4.6445
    7.935    4.4234
    7.950    4.3602
    7.965    4.5919
    7.980    4.7604
    7.995    4.1180
    8.010    4.1180
    8.025    4.2443
    8.040    4.2233
    8.055    3.7809
    8.070    3.7072
    8.085    4.0232
    8.100    4.1706
    8.115    4.4550
    8.130    4.4339
    8.145    4.4866
    8.160    4.1811
    8.175    4.2654
    8.190    4.0126
    8.205    4.3075
    8.220    3.8336
    8.235    4.0864
    8.250    4.2338
    8.265    3.9179
    8.280    4.0653
    8.295    4.1180
    8.310    4.1390
    8.325    4.4128
    8.340    4.4234
    8.355    4.0864
    8.370    4.0548
    8.385    3.7915
    8.400    4.3918
    8.415    4.0864
    8.430    4.0758
    8.445    4.0232
    8.460    4.0758
    8.475    3.9494
    8.490    4.3286
    8.505    4.3918
    8.520    4.3181
    8.535    4.2233
    8.550    4.5603
    8.565    4.5814
    8.580    4.6551
    8.595    4.7183
    8.610    4.6235
    8.625    4.7288
    8.640    5.1395
    8.655    5.1185
    8.670    5.3923
    8.685    5.9400
    8.700    5.8452
    8.715    6.7720
    8.730    7.4355
    8.745    7.0458
    8.760    6.7930
    8.775    5.8662
    8.790    5.4450
    8.805    4.6551
    8.820    3.9389
    8.835    4.1496
    8.850    4.3497
    8.865    4.1917
    8.880    4.0969
    8.895    4.5603
    8.910    4.4128
    8.925    4.0653
    8.940    3.8863
    8.955    4.1601
    8.970    3.9179
    8.985    3.8125
    9.000    4.1917
    9.015    4.0337
    9.030    3.8125
    9.045    3.5703
    9.060    4.0548
    9.075    4.0969
    9.090    4.3075
    9.105    4.2654
    9.120    3.9916
    9.135    3.8968
    9.150    4.3813
    9.165    4.3075
    9.180    4.0442
    9.195    4.0758
    9.210    4.0653
    9.225    4.0864
    9.240    4.2654
    9.255    4.2865
    9.270    4.3602
    9.285    4.2338
    9.300    4.5392
    9.315    4.7393
    9.330    4.6130
    9.345    4.5182
    9.360    5.1395
    9.375    5.2027
    9.390    5.4871
    9.405    5.5608
    9.420    5.8031
    9.435    6.2981
    9.450    7.4776
    9.465    8.3096
    9.480    9.3839
    9.495   10.6477
    9.510   12.1538
    9.525   14.1969
    9.540   17.1248
    9.555   20.1053
    9.570   22.2222
    9.585   21.9484
    9.600   20.2633
    9.615   16.5666
    9.630   12.9226
    9.645    9.1101
    9.660    6.2770
    9.675    4.8868
    9.690    4.4339
    9.705    4.4128
    9.720    4.4655
    9.735    3.9705
    9.750    4.0021
    9.765    4.0442
    9.780    4.1285
    9.795    4.1285
    9.810    3.8863
    9.825    3.9916
    9.840    4.0758
    9.855    4.1811
    9.870    3.8547
    9.885    3.9705
    9.900    3.9494
    9.915    4.0126
    9.930    3.8231
    9.945    4.0126
    9.960    4.3075
    9.975    3.8863
    9.990    4.2654
   10.005    4.0548
   10.020    4.0758
   10.035    4.2759
   10.050    4.3181
   10.065    4.3181
   10.080    4.1706
   10.095    3.8125
   10.110    4.2127
   10.125    4.4234
   10.140    4.1706
   10.155    4.4444
   10.170    4.5392
   10.185    4.4234
   10.200    4.6867
   10.215    5.1817
   10.230    5.4344
   10.245    5.7293
   10.260    5.7715
   10.275    6.4244
   10.290    7.7409
   10.305    8.4044
   10.320    9.1838
   10.335   10.3212
   10.350   10.7109
   10.365   10.8268
   10.380    9.1101
   10.395    8.0042
   10.410    6.3191
   10.425    5.1817
   10.440    4.6972
   10.455    4.4971
   10.470    4.2338
   10.485    4.2022
   10.500    4.5708
   10.515    4.2443
   10.530    4.1074
   10.545    3.9600
   10.560    3.8020
   10.575    3.8968
   10.590    4.1706
   10.605    4.2443
   10.620    3.8125
   10.635    4.1285
   10.650    3.8336
   10.665    4.2233
   10.680    4.3391
   10.695    3.8652
   10.710    3.6756
   10.725    4.0548
   10.740    4.2549
   10.755    3.8757
   10.770    4.1180
   10.785    3.9284
   10.800    4.0969
   10.815    4.1496
   10.830    4.1601
   10.845    4.3813
   10.860    4.2443
   10.875    4.4971
   10.890    4.5182
   10.905    4.8447
   10.920    5.0869
   10.935    5.3291
   10.950    5.5398
   10.965    5.9716
   10.980    6.3823
   10.995    7.5513
   11.010    8.3096
   11.025    9.2786
   11.040   10.5951
   11.055   11.6798
   11.070   12.2591
   11.085   11.1743
   11.100    9.9421
   11.115    8.3096
   11.130    6.8246
   11.145    5.4134
   11.160    4.5814
   11.175    4.1917
   11.190    4.3497
   11.205    4.2549
   11.220    3.8863
   11.235    3.9810
   11.250    3.8757
   11.265    4.0864
   11.280    3.9916
   11.295    3.7599
   11.310    3.9179
   11.325    3.8336
   11.340    3.9073
   11.355    3.7493
   11.370    4.0442
   11.385    3.8547
   11.400    3.8336
   11.415    3.7072
   11.430    3.3175
   11.445    3.8863
   11.460    3.9073
   11.475    4.1074
   11.490    4.0653
   11.505    4.0021
   11.520    4.1917
   11.535    4.0337
   11.550    3.9916
   11.565    3.9389
   11.580    4.4550
   11.595    4.5814
   11.610    4.8131
   11.625    4.7499
   11.640    5.1711
   11.655    6.0558
   11.670    7.1511
   11.685    7.8673
   11.700    9.0574
   11.715    9.8262
   11.730   11.3112
   11.745   11.1322
   11.760   11.2796
   11.775   10.0369
   11.790    8.2254
   11.805    6.3086
   11.820    5.2343
   11.835    4.4339
   11.850    4.1496
   11.865    4.2443
   11.880    3.9284
   11.895    4.0653
   11.910    3.8757
   11.925    3.9284
   11.940    4.2865
   11.955    3.8757
   11.970    3.9284
   11.985    3.8336
   12.000    3.4650
   12.015    3.7177
   12.030    3.7599
   12.045    3.5387
   12.060    3.8757
   12.075    4.0653
   12.090    3.8547
   12.105    3.9179
   12.120    3.8547
   12.135    4.0126
   12.150    3.8020
   12.165    3.8863
   12.180    3.8547
   12.195    3.5492
   12.210    3.9916
   12.225    4.0021
   12.240    3.9179
   12.255    4.1601
   12.270    3.9600
   12.285    4.0442
   12.300    4.2759
   12.315    4.3918
   12.330    4.6551
   12.345    4.8973
   12.360    5.6029
   12.375    5.4028
   12.390    5.6240
   12.405    4.8552
   12.420    4.5708
   12.435    4.2338
   12.450    4.0864
   12.465    3.8968
   12.480    3.9494
   12.495    4.0232
   12.510    3.8231
   12.525    4.1074
   12.540    3.7915
   12.555    4.0126
   12.570    3.6124
   12.585    3.5387
   12.600    3.6546
   12.615    3.7388
   12.630    3.7072
   12.645    3.6124
   12.660    4.1601
   12.675    3.7493
   12.690    3.8968
   12.705    3.9073
   12.720    3.8547
   12.735    3.8757
   12.750    3.9916
   12.765    3.8968
   12.780    3.8968
   12.795    3.8441
   12.810    3.8652
   12.825    4.1390
   12.840    3.9073
   12.855    4.1285
   12.870    4.3075
   12.885    4.6130
   12.900    5.4660
   12.915    5.8241
   12.930    6.6245
   12.945    7.4671
   12.960    7.9726
   12.975    9.0679
   12.990    9.6682
   13.005    9.0469
   13.020    8.1727
   13.035    7.2986
   13.050    5.9716
   13.065    4.9921
   13.080    4.0442
   13.095    4.1496
   13.110    3.8757
   13.125    3.6862
   13.140    3.7809
   13.155    3.5703
   13.170    3.8441
   13.185    4.1180
   13.200    3.9179
   13.215    3.6335
   13.230    3.4229
   13.245    3.7388
   13.260    3.7599
   13.275    3.6756
   13.290    3.8020
   13.305    3.8968
   13.320    3.7072
   13.335    3.3702
   13.350    3.9810
   13.365    3.6967
   13.380    3.6967
   13.395    3.9284
   13.410    4.2443
   13.425    4.0969
   13.440    4.1180
   13.455    4.0969
   13.470    4.3181
   13.485    4.9816
   13.500    5.1290
   13.515    5.3712
   13.530    6.1295
   13.545    6.3928
   13.560    6.7404
   13.575    6.5719
   13.590    6.8562
   13.605    6.0032
   13.620    5.1817
   13.635    4.8447
   13.650    4.2970
   13.665    4.1811
   13.680    3.5914
   13.695    3.7915
   13.710    3.6230
   13.725    3.6019
   13.740    3.7177
   13.755    3.6862
   13.770    3.8547
   13.785    3.7915
   13.800    3.4544
   13.815    3.7283
   13.830    3.5387
   13.845    3.7177
   13.860    3.9705
   13.875    3.9810
   13.890    3.8336
   13.905    3.7177
   13.920    3.8757
   13.935    3.6967
   13.950    3.8125
   13.965    3.7915
   13.980    3.8020
   13.995    4.0758
   14.010    4.3497
   14.025    4.5498
   14.040    4.7393
   14.055    5.4239
   14.070    5.4660
   14.085    6.4034
   14.100    6.5929
   14.115    7.6567
   14.130    7.9305
   14.145    7.7199
   14.160    7.4144
   14.175    6.8457
   14.190    5.7609
   14.205    5.0026
   14.220    4.1496
   14.235    4.1074
   14.250    3.9916
   14.265    3.8336
   14.280    3.7388
   14.295    3.8231
   14.310    3.8336
   14.325    3.6546
   14.340    3.6230
   14.355    3.8231
   14.370    3.7177
   14.385    3.6124
   14.400    3.6651
   14.415    3.4650
   14.430    3.6230
   14.445    3.8020
   14.460    3.7809
   14.475    4.0548
   14.490    3.9073
   14.505    3.6756
   14.520    3.3597
   14.535    3.6967
   14.550    3.7704
   14.565    3.6230
   14.580    3.8231
   14.595    3.6756
   14.610    3.5176
   14.625    3.7283
   14.640    3.7493
   14.655    3.5703
   14.670    3.4650
   14.685    3.4229
   14.700    3.3913
   14.715    3.5808
   14.730    3.6967
   14.745    3.8125
   14.760    4.0969
   14.775    4.1706
   14.790    3.7177
   14.805    3.8231
   14.820    3.9705
   14.835    3.4755
   14.850    3.5387
   14.865    3.6019
   14.880    3.6440
   14.895    3.6440
   14.910    3.9073
   14.925    3.9073
   14.940    3.6546
   14.955    3.7493
   14.970    3.6019
   14.985    3.9389
   15.000    4.0232
   15.015    3.9810
   15.030    3.7283
   15.045    3.7388
   15.060    3.8652
   15.075    3.9073
   15.090    3.9389
   15.105    4.3497
   15.120    4.6340
   15.135    4.7499
   15.150    4.9816
   15.165    5.3502
   15.180    5.3923
   15.195    5.6135
   15.210    5.4450
   15.225    5.3397
   15.240    4.8552
   15.255    4.5498
   15.270    4.3707
   15.285    4.0758
   15.300    3.7283
   15.315    3.9600
   15.330    3.7283
   15.345    3.5387
   15.360    3.5808
   15.375    3.4860
   15.390    3.3386
   15.405    3.7809
   15.420    3.9600
   15.435    3.5703
   15.450    3.6756
   15.465    3.5808
   15.480    3.7072
   15.495    3.4966
   15.510    3.6756
   15.525    3.8757
   15.540    3.5703
   15.555    3.5071
   15.570    3.6019
   15.585    3.7704
   15.600    3.8547
   15.615    3.8125
   15.630    3.6440
   15.645    3.5492
   15.660    3.7809
   15.675    3.6230
   15.690    3.7283
   15.705    3.4966
   15.720    3.4650
   15.735    3.7388
   15.750    4.0021
   15.765    3.5808
   15.780    3.3175
   15.795    3.7809
   15.810    3.5808
   15.825    3.4229
   15.840    3.6230
   15.855    3.6756
   15.870    3.5492
   15.885    3.4860
   15.900    3.5071
   15.915    3.6546
   15.930    3.8757
   15.945    3.8125
   15.960    3.7599
   15.975    3.6967
   15.990    3.8336
   16.005    3.8547
   16.020    3.6230
   16.035    3.6651
   16.050    4.2338
   16.065    4.1285
   16.080    4.1811
   16.095    4.2127
   16.110    4.5076
   16.125    4.5287
   16.140    5.0342
   16.155    5.2027
   16.170    5.0869
   16.185    5.2870
   16.200    5.0553
   16.215    4.8973
   16.230    4.7920
   16.245    4.5498
   16.260    3.9600
   16.275    3.7283
   16.290    3.5492
   16.305    3.9600
   16.320    3.8336
   16.335    3.5282
   16.350    3.7809
   16.365    3.8125
   16.380    4.1390
   16.395    3.5914
   16.410    3.8757
   16.425    4.0126
   16.440    3.7388
   16.455    3.9810
   16.470    3.8968
   16.485    3.5071
   16.500    3.5598
   16.515    3.8968
   16.530    3.9179
   16.545    4.1917
   16.560    4.2233
   16.575    4.5076
   16.590    4.8236
   16.605    5.2554
   16.620    5.7925
   16.635    6.0979
   16.650    5.9610
   16.665    5.7609
   16.680    5.0553
   16.695    5.0553
   16.710    4.7815
   16.725    4.2759
   16.740    4.2549
   16.755    3.7704
   16.770    3.5598
   16.785    3.5703
   16.800    3.8863
   16.815    3.7072
   16.830    3.7599
   16.845    3.4860
   16.860    3.4229
   16.875    3.8441
   16.890    4.0548
   16.905    3.7704
   16.920    3.8020
   16.935    4.1601
   16.950    3.6124
   16.965    3.7283
   16.980    4.1180
   16.995    4.0758
   17.010    4.3497
   17.025    4.4655
   17.040    5.3186
   17.055    5.4450
   17.070    5.5608
   17.085    6.4876
   17.100    6.9826
   17.115    7.2880
   17.130    7.0248
   17.145    6.3296
   17.160    5.9610
   17.175    5.0974
   17.190    4.6867
   17.205    4.5392
   17.220    3.9705
   17.235    3.6651
   17.250    3.5176
   17.265    3.8336
   17.280    3.6756
   17.295    3.9284
   17.310    3.5492
   17.325    3.6335
   17.340    3.7388
   17.355    3.5914
   17.370    3.4439
   17.385    3.4650
   17.400    3.7599
   17.415    3.7177
   17.430    3.9073
   17.445    4.0337
   17.460    3.8547
   17.475    4.0548
   17.490    3.9179
   17.505    4.3497
   17.520    4.1811
   17.535    4.0021
   17.550    4.1390
   17.565    4.4655
   17.580    4.4339
   17.595    4.2022
   17.610    4.3181
   17.625    3.8441
   17.640    3.7177
   17.655    3.8231
   17.670    3.5282
   17.685    3.4650
   17.700    3.6862
   17.715    3.5914
   17.730    3.5703
   17.745    3.7915
   17.760    3.7283
   17.775    3.7283
   17.790    3.7177
   17.805    3.5703
   17.820    3.6756
   17.835    3.9284
   17.850    3.6756
   17.865    3.7072
   17.880    3.8336
   17.895    3.8125
   17.910    4.0021
   17.925    3.9494
   17.940    4.1811
   17.955    4.4971
   17.970    4.6972
   17.985    4.7499
   18.000    4.6867
   18.015    4.4339
   18.030    4.3497
   18.045    4.2549
   18.060    4.2549
   18.075    3.8652
   18.090    3.5387
   18.105    3.8757
   18.120    3.8336
   18.135    3.8441
   18.150    3.6124
   18.165    3.9600
   18.180    3.7704
   18.195    3.6230
   18.210    3.7915
   18.225    3.6230
   18.240    3.6440
   18.255    3.5598
   18.270    3.3386
   18.285    3.4123
   18.300    4.1390
   18.315    4.0442
   18.330    3.9389
   18.345    4.1285
   18.360    4.2233
   18.375    4.2759
   18.390    4.7604
   18.405    4.8552
   18.420    5.1606
   18.435    4.8341
   18.450    4.6445
   18.465    4.3918
   18.480    4.5498
   18.495    4.4655
   18.510    3.7599
   18.525    3.6862
   18.540    4.0337
   18.555    3.9073
   18.570    3.5598
   18.585    3.9600
   18.600    3.7915
   18.615    3.8231
   18.630    3.7072
   18.645    4.1917
   18.660    3.8336
   18.675    3.4966
   18.690    3.5071
   18.705    3.8547
   18.720    3.6756
   18.735    3.6862
   18.750    3.9389
   18.765    4.1390
   18.780    4.0442
   18.795    4.1601
   18.810    4.3497
   18.825    4.3075
   18.840    4.1811
   18.855    4.4339
   18.870    4.3813
   18.885    4.1180
   18.900    3.9600
   18.915    4.1706
   18.930    3.9073
   18.945    3.4966
   18.960    3.5808
   18.975    3.9916
   18.990    3.7283
   19.005    3.7283
   19.020    3.8968
   19.035    3.5914
   19.050    3.6862
   19.065    3.3386
   19.080    3.4439
   19.095    3.6124
   19.110    3.4123
   19.125    3.4650
   19.140    3.9494
   19.155    3.8863
   19.170    3.7283
   19.185    3.6651
   19.200    3.8652
   19.215    3.9810
   19.230    3.9494
   19.245    3.8336
   19.260    4.0758
   19.275    3.8863
   19.290    3.8441
   19.305    4.0021
   19.320    4.1074
   19.335    3.8231
   19.350    3.7599
   19.365    3.7177
   19.380    3.9284
   19.395    3.5282
   19.410    3.7809
   19.425    3.8968
   19.440    4.0021
   19.455    3.6756
   19.470    3.7704
   19.485    3.8757
   19.500    3.8757
   19.515    3.7072
   19.530    3.5914
   19.545    4.1496
   19.560    4.2654
   19.575    4.2865
   19.590    5.0026
   19.605    4.8657
   19.620    5.4344
   19.635    5.4239
   19.650    5.8662
   19.665    5.4555
   19.680    5.5187
   19.695    5.3397
   19.710    4.7288
   19.725    4.5287
   19.740    4.2654
   19.755    3.8336
   19.770    3.5492
   19.785    3.6546
   19.800    4.0442
   19.815    3.8968
   19.830    3.7283
   19.845    3.8547
   19.860    3.7177
   19.875    3.9284
   19.890    3.7072
   19.905    3.6756
   19.920    3.6967
   19.935    3.7072
   19.950    3.8231
   19.965    3.6862
   19.980    3.8020
   19.995    3.9810
   20.010    3.8020
   20.025    3.9389
   20.040    4.4128
   20.055    3.8336
   20.070    3.7283
   20.085    3.8441
   20.100    3.9073
   20.115    4.0653
   20.130    3.7283
   20.145    3.7915
   20.160    3.7388
   20.175    3.6230
   20.190    3.8757
   20.205    4.0337
   20.220    3.8020
   20.235    3.6756
   20.250    3.6546
   20.265    3.9179
   20.280    4.0126
   20.295    4.1706
   20.310    4.1496
   20.325    4.3707
   20.340    4.8763
   20.355    5.5398
   20.370    5.6345
   20.385    6.1190
   20.400    6.5929
   20.415    7.0563
   20.430    7.4882
   20.445    7.2880
   20.460    6.5403
   20.475    6.2875
   20.490    5.8241
   20.505    5.0026
   20.520    4.7393
   20.535    4.2127
   20.550    4.0969
   20.565    3.8441
   20.580    3.7283
   20.595    3.3913
   20.610    3.5914
   20.625    3.5914
   20.640    3.4229
   20.655    3.7493
   20.670    3.8336
   20.685    3.7388
   20.700    3.6546
   20.715    3.8441
   20.730    3.8547
   20.745    3.9600
   20.760    3.8863
   20.775    3.7915
   20.790    4.1811
   20.805    4.0232
   20.820    3.9389
   20.835    4.0653
   20.850    4.1706
   20.865    3.8757
   20.880    3.6756
   20.895    3.6862
   20.910    3.8863
   20.925    3.8863
   20.940    3.8020
   20.955    3.9284
   20.970    3.7283
   20.985    3.4860
   21.000    3.6019
   21.015    3.8441
   21.030    3.7072
   21.045    3.8757
   21.060    3.5914
   21.075    3.9073
   21.090    3.7704
   21.105    3.6756
   21.120    3.8863
   21.135    3.6756
   21.150    3.6230
   21.165    3.9916
   21.180    4.1074
   21.195    3.8020
   21.210    3.8231
   21.225    3.8968
   21.240    4.1285
   21.255    3.8231
   21.270    3.5176
   21.285    3.7283
   21.300    3.8231
   21.315    3.6546
   21.330    3.6019
   21.345    3.7599
   21.360    3.8968
   21.375    3.8231
   21.390    3.9600
   21.405    3.8336
   21.420    4.0442
   21.435    3.9916
   21.450    3.7388
   21.465    3.4860
   21.480    3.7388
   21.495    3.7599
   21.510    3.6019
   21.525    3.8968
   21.540    3.7177
   21.555    3.7915
   21.570    4.0021
   21.585    3.7809
   21.600    3.8231
   21.615    3.5598
   21.630    4.1285
   21.645    3.8231
   21.660    3.9810
   21.675    3.6124
   21.690    3.5492
   21.705    3.4544
   21.720    3.6230
   21.735    4.0337
   21.750    4.0548
   21.765    3.9916
   21.780    3.7809
   21.795    3.8336
   21.810    3.9705
   21.825    4.3918
   21.840    4.5182
   21.855    4.7604
   21.870    4.9921
   21.885    5.0342
   21.900    5.6451
   21.915    5.3291
   21.930    5.2554
   21.945    4.8131
   21.960    4.5919
   21.975    4.5603
   21.990    4.4234
   22.005    4.1917
   22.020    4.1390
   22.035    4.1390
   22.050    3.9284
   22.065    3.7493
   22.080    3.6967
   22.095    3.8020
   22.110    4.1285
   22.125    4.0126
   22.140    3.7072
   22.155    4.0337
   22.170    3.9389
   22.185    4.0337
   22.200    4.3602
   22.215    4.3286
   22.230    4.2443
   22.245    4.2127
   22.260    4.5919
   22.275    4.8763
   22.290    4.6761
   22.305    4.6024
   22.320    4.2443
   22.335    4.2759
   22.350    4.4550
   22.365    4.1180
   22.380    4.0548
   22.395    4.0653
   22.410    4.0232
   22.425    3.8020
   22.440    3.9810
   22.455    4.2022
   22.470    4.0337
   22.485    4.3391
   22.500    4.2022
   22.515    4.4866
   22.530    4.9289
   22.545    4.8341
   22.560    5.4871
   22.575    6.1927
   22.590    6.3823
   22.605    6.4982
   22.620    6.6561
   22.635    6.7509
   22.650    6.7193
   22.665    6.3402
   22.680    6.0348
   22.695    5.5924
   22.710    4.8236
   22.725    4.5076
   22.740    4.2865
   22.755    4.1390
   22.770    3.9284
   22.785    4.0021
   22.800    4.2127
   22.815    4.0653
   22.830    4.4760
   22.845    4.6972
   22.860    5.0764
   22.875    5.1922
   22.890    5.2449
   22.905    6.1190
   22.920    6.9826
   22.935    7.3828
   22.950    7.6883
   22.965    8.2464
   22.980    8.1411
   22.995    7.7725
   23.010    7.0142
   23.025    6.8246
   23.040    5.8136
   23.055    5.4555
   23.070    4.6972
   23.085    4.4971
   23.100    4.2443
   23.115    3.9600
   23.130    3.9494
   23.145    3.7599
   23.160    3.7704
   23.175    4.2549
   23.190    4.1811
   23.205    4.0021
   23.220    4.2233
   23.235    4.5919
   23.250    4.8025
   23.265    4.8236
   23.280    4.8657
   23.295    4.7393
   23.310    4.8763
   23.325    4.7499
   23.340    4.5498
   23.355    4.7183
   23.370    4.6551
   23.385    4.2338
   23.400    4.1496
   23.415    4.1917
   23.430    3.8336
   23.445    3.8231
   23.460    3.8441
   23.475    3.9494
   23.490    3.8441
   23.505    3.9810
   23.520    4.0232
   23.535    4.0758
   23.550    3.8125
   23.565    4.0021
   23.580    4.2127
   23.595    4.1601
   23.610    4.4760
   23.625    4.2654
   23.640    3.9916
   23.655    4.3181
   23.670    4.0337
   23.685    4.2654
   23.700    4.2865
   23.715    4.1496
   23.730    3.8441
   23.745    3.8968
   23.760    4.1496
   23.775    3.4966
   23.790    3.7809
   23.805    4.0021
   23.820    3.7599
   23.835    3.8968
   23.850    4.2233
   23.865    4.0653
   23.880    3.9073
   23.895    4.0653
   23.910    4.6761
   23.925    4.8236
   23.940    4.7604
   23.955    4.9394
   23.970    5.1395
   23.985    5.2343
   24.000    5.2343
   24.015    4.9289
   24.030    5.0553
   24.045    4.6130
   24.060    4.3075
   24.075    3.8863
   24.090    4.0548
   24.105    3.4966
   24.120    3.6440
   24.135    3.9073
   24.150    3.7072
   24.165    3.9600
   24.180    3.9073
   24.195    4.1811
   24.210    3.7177
   24.225    3.9494
   24.240    3.9073
   24.255    3.8231
   24.270    3.7704
   24.285    4.1601
   24.300    3.9284
   24.315    4.1180
   24.330    3.6546
   24.345    4.0442
   24.360    3.7704
   24.375    3.7599
   24.390    3.8863
   24.405    3.8547
   24.420    3.6230
   24.435    3.8652
   24.450    3.5492
   24.465    3.8125
   24.480    3.7388
   24.495    3.5598
   24.510    3.8020
   24.525    3.8441
   24.540    4.2233
   24.555    4.1496
   24.570    4.2549
   24.585    4.1074
   24.600    4.0548
   24.615    4.0969
   24.630    4.1074
   24.645    4.2338
   24.660    4.3181
   24.675    4.2759
   24.690    3.8863
   24.705    3.7388
   24.720    3.7177
   24.735    3.7915
   24.750    3.7493
   24.765    3.9494
   24.780    3.8757
   24.795    3.9810
   24.810    3.7283
   24.825    3.8020
   24.840    3.6335
   24.855    3.6124
   24.870    3.8125
   24.885    4.0021
   24.900    4.2443
   24.915    4.0337
   24.930    3.8336
   24.945    4.0232
   24.960    3.8757
   24.975    4.0442
   24.990    4.0021
   25.005    3.8547
   25.020    4.1706
   25.035    4.0864
   25.050    3.7388
   25.065    3.6756
   25.080    3.6335
   25.095    3.5914
   25.110    3.7283
   25.125    3.7388
   25.140    3.8125
   25.155    3.6967
   25.170    3.9073
   25.185    3.7809
   25.200    3.9600
   25.215    3.8863
   25.230    4.1390
   25.245    4.4444
   25.260    4.5287
   25.275    4.1601
   25.290    3.8336
   25.305    3.8020
   25.320    4.3602
   25.335    4.2970
   25.350    3.8336
   25.365    3.8757
   25.380    3.5808
   25.395    3.6651
   25.410    3.5492
   25.425    3.7599
   25.440    3.8968
   25.455    3.7915
   25.470    3.9284
   25.485    3.8757
   25.500    3.9179
   25.515    3.9494
   25.530    4.0337
   25.545    4.4339
   25.560    4.4655
   25.575    4.6867
   25.590    4.7288
   25.605    4.3286
   25.620    4.0232
   25.635    4.0758
   25.650    4.1074
   25.665    3.8547
   25.680    3.7388
   25.695    4.0337
   25.710    3.7388
   25.725    4.0021
   25.740    4.2443
   25.755    4.1390
   25.770    3.8125
   25.785    4.4444
   25.800    4.7288
   25.815    4.8657
   25.830    5.6451
   25.845    6.0558
   25.860    6.0032
   25.875    5.9716
   25.890    5.8241
   25.905    5.7715
   25.920    5.9505
   25.935    5.6872
   25.950    4.9289
   25.965    4.4023
   25.980    4.4339
   25.995    4.3075
   26.010    3.8125
   26.025    3.7072
   26.040    3.8968
   26.055    3.5071
   26.070    3.5703
   26.085    3.6335
   26.100    3.7177
   26.115    3.8968
   26.130    4.0653
   26.145    3.8547
   26.160    4.3391
   26.175    4.0021
   26.190    4.0021
   26.205    4.0758
   26.220    3.7388
   26.235    4.1285
   26.250    3.8863
   26.265    4.0442
   26.280    3.7283
   26.295    3.7704
   26.310    3.6335
   26.325    3.5492
   26.340    3.6862
   26.355    3.7283
   26.370    3.9073
   26.385    4.0126
   26.400    3.9916
   26.415    4.0232
   26.430    4.2865
   26.445    4.4128
   26.460    4.7288
   26.475    4.4550
   26.490    4.4971
   26.505    4.7183
   26.520    4.3497
   26.535    4.2654
   26.550    4.3075
   26.565    4.1390
   26.580    4.2759
   26.595    4.0232
   26.610    3.6967
   26.625    3.7704
   26.640    3.8863
   26.655    3.6230
   26.670    3.7493
   26.685    3.6862
   26.700    3.7388
   26.715    3.6019
   26.730    3.7388
   26.745    3.5914
   26.760    3.6440
   26.775    3.5703
   26.790    3.6335
   26.805    3.7283
   26.820    3.6651
   26.835    3.8757
   26.850    3.9705
   26.865    3.8125
   26.880    3.4439
   26.895    3.5598
   26.910    3.3597
   26.925    3.5492
   26.940    3.5703
   26.955    3.7704
   26.970    3.8441
   26.985    3.7072
   27.000    4.3497
   27.015    4.2865
   27.030    4.2549
   27.045    4.4023
   27.060    4.4655
   27.075    4.6130
   27.090    4.7183
   27.105    4.5708
   27.120    4.4971
   27.135    4.5708
   27.150    4.3918
   27.165    4.1180
   27.180    4.0653
   27.195    4.0758
   27.210    3.5703
   27.225    3.7599
   27.240    3.8336
   27.255    3.7177
   27.270    3.4650
   27.285    3.9073
   27.300    3.7915
   27.315    3.6019
   27.330    3.6862
   27.345    3.7704
   27.360    3.6124
   27.375    3.7177
   27.390    3.5492
   27.405    3.4334
   27.420    3.8863
   27.435    3.5598
   27.450    3.7599
   27.465    3.4334
   27.480    3.6967
   27.495    3.5808
   27.510    3.7388
   27.525    3.6546
   27.540    3.5071
   27.555    3.5703
   27.570    3.7072
   27.585    3.8757
   27.600    3.8125
   27.615    4.0548
   27.630    4.3391
   27.645    4.2970
   27.660    4.0126
   27.675    4.3181
   27.690    4.3918
   27.705    3.9073
   27.720    3.9916
   27.735    3.9494
   27.750    3.9494
   27.765    3.8757
   27.780    3.7388
   27.795    3.3281
   27.810    3.3702
   27.825    3.5808
   27.840    4.0548
   27.855    3.9073
   27.870    3.6967
   27.885    3.7809
   27.900    4.0021
   27.915    3.7915
   27.930    4.0126
   27.945    3.9810
   27.960    4.1180
   27.975    3.9705
   27.990    4.0232
   28.005    4.2127
   28.020    3.9073
   28.035    3.8125
   28.050    3.7493
   28.065    3.7599
   28.080    3.4755
   28.095    3.6862
   28.110    3.6651
   28.125    3.7704
   28.140    3.9284
   28.155    3.9073
   28.170    4.2549
   28.185    4.4234
   28.200    4.5708
   28.215    4.4866
   28.230    4.4128
   28.245    4.4655
   28.260    4.6130
   28.275    4.6656
   28.290    4.6130
   28.305    4.3391
   28.320    4.1496
   28.335    3.9494
   28.350    4.1811
   28.365    3.8863
   28.380    3.7177
   28.395    3.7493
   28.410    3.8441
   28.425    3.6440
   28.440    4.0864
   28.455    4.2022
   28.470    3.7283
   28.485    3.8968
   28.500    4.3707
   28.515    4.1917
   28.530    4.4339
   28.545    4.4550
   28.560    4.4234
   28.575    4.1285
   28.590    3.8336
   28.605    3.8757
   28.620    3.9494
   28.635    3.7177
   28.650    3.4439
   28.665    3.4860
   28.680    3.2859
   28.695    3.3597
   28.710    3.3175
   28.725    3.5492
   28.740    3.5387
   28.755    3.5808
   28.770    3.5808
   28.785    3.7809
   28.800    3.6651
   28.815    3.4544
   28.830    3.3281
   28.845    3.5176
   28.860    3.2543
   28.875    3.6651
   28.890    3.4966
   28.905    3.5387
   28.920    3.5914
   28.935    3.9179
   28.950    3.9073
   28.965    3.8336
   28.980    3.5914
   28.995    3.6546
   29.010    3.8020
   29.025    3.7493
   29.040    3.7809
   29.055    3.6124
   29.070    3.6230
   29.085    3.8547
   29.100    3.7493
   29.115    3.4966
   29.130    3.8441
   29.145    3.8441
   29.160    3.7809
   29.175    3.4650
   29.190    3.6967
   29.205    3.4334
   29.220    3.6124
   29.235    3.5914
   29.250    3.7388
   29.265    4.0758
   29.280    3.8441
   29.295    4.2233
   29.310    4.3286
   29.325    3.9916
   29.340    4.1706
   29.355    4.3391
   29.370    4.1390
   29.385    3.9810
   29.400    4.1390
   29.415    3.8968
   29.430    3.9389
   29.445    3.6230
   29.460    3.3491
   29.475    3.3702
   29.490    3.8968
   29.505    3.5492
   29.520    3.5914
   29.535    3.3913
   29.550    3.4334
   29.565    3.6124
   29.580    3.5492
   29.595    3.4334
   29.610    3.2754
   29.625    3.1701
   29.640    3.6230
   29.655    3.6019
   29.670    3.3702
   29.685    3.6019
   29.700    3.4334
   29.715    3.3175
   29.730    3.2227
   29.745    3.5282
   29.760    3.6335
   29.775    3.4755
   29.790    3.4544
   29.805    3.1912
   29.820    3.4966
   29.835    3.7915
   29.850    3.8125
   29.865    4.0653
   29.880    4.3286
   29.895    3.6546
   29.910    4.0021
   29.925    3.7809
   29.940    4.1180
   29.955    3.7704
   29.970    3.6335
   29.985    3.8757
   30.000    3.6546
   30.015    3.6019
   30.030    3.3702
   30.045    3.5808
   30.060    3.6756
   30.075    3.5387
   30.090    3.5387
   30.105    3.7915
   30.120    3.4755
   30.135    3.7177
   30.150    3.5387
   30.165    3.3281
   30.180    3.4544
   30.195    3.5492
   30.210    3.5492
   30.225    3.4018
   30.240    3.1806
   30.255    3.6862
   30.270    3.5387
   30.285    3.4650
   30.300    3.2965
   30.315    3.4755
   30.330    3.4650
   30.345    3.6230
   30.360    3.7283
   30.375    3.8441
   30.390    3.5176
   30.405    3.3702
   30.420    3.3597
   30.435    3.5598
   30.450    3.3807
   30.465    3.4439
   30.480    3.5598
   30.495    3.6651
   30.510    3.6546
   30.525    3.4334
   30.540    3.3597
   30.555    3.4018
   30.570    3.4966
   30.585    3.5703
   30.600    3.6651
   30.615    3.4860
   30.630    3.4860
   30.645    3.6124
   30.660    3.6967
   30.675    3.7388
   30.690    3.7072
   30.705    3.6862
   30.720    3.9073
   30.735    3.7599
   30.750    3.6862
   30.765    3.4860
   30.780    3.6862
   30.795    3.5071
   30.810    3.4755
   30.825    3.2017
   30.840    3.2333
   30.855    3.6230
   30.870    3.6124
   30.885    3.4544
   30.900    3.2543
   30.915    3.3070
   30.930    3.5071
   30.945    3.4650
   30.960    3.0542
   30.975    3.2122
   30.990    3.6335
   31.005    3.4755
   31.020    3.2017
   31.035    3.3491
   31.050    3.5598
   31.065    3.3281
   31.080    3.4018
   31.095    3.4966
   31.110    3.4123
   31.125    3.2965
   31.140    3.1490
   31.155    3.1280
   31.170    3.3702
   31.185    3.4123
   31.200    3.3070
   31.215    3.1385
   31.230    3.2649
   31.245    3.4860
   31.260    3.5387
   31.275    3.6124
   31.290    3.3175
   31.305    3.2333
   31.320    3.4966
   31.335    3.3386
   31.350    3.3175
   31.365    3.4439
   31.380    3.2438
   31.395    3.4123
   31.410    3.2859
   31.425    3.6651
   31.440    3.7704
   31.455    3.9705
   31.470    3.8441
   31.485    3.5703
   31.500    3.5492
   31.515    3.4439
   31.530    3.5808
   31.545    3.3175
   31.560    3.3386
   31.575    3.3807
   31.590    3.5808
   31.605    3.4018
   31.620    3.4966
   31.635    3.5387
   31.650    3.4229
   31.665    3.6124
   31.680    3.3491
   31.695    3.3702
   31.710    3.1280
   31.725    3.3386
   31.740    3.5387
   31.755    3.7809
   31.770    3.3491
   31.785    3.3913
   31.800    3.1174
   31.815    3.3175
   31.830    3.4334
   31.845    3.4229
   31.860    3.3807
   31.875    3.2227
   31.890    3.2543
   31.905    3.1490
   31.920    3.3175
   31.935    3.5282
   31.950    3.3597
   31.965    3.2859
   31.980    3.5914
   31.995    3.8020
   32.010    3.4018
   32.025    3.3386
   32.040    3.4860
   32.055    3.5282
   32.070    3.4229
   32.085    3.4860
   32.100    3.2543
   32.115    3.3281
   32.130    3.1174
   32.145    3.2122
   32.160    3.3281
   32.175    3.4544
   32.190    3.2649
   32.205    3.5598
   32.220    3.6440
   32.235    3.4334
   32.250    3.4123
   32.265    3.1280
   32.280    3.4439
   32.295    3.2965
   32.310    3.4860
   32.325    3.2859
   32.340    3.1701
   32.355    3.3491
   32.370    3.7493
   32.385    3.4123
   32.400    3.2333
   32.415    3.2859
   32.430    3.2543
   32.445    3.0753
   32.460    3.1069
   32.475    3.3070
   32.490    3.1701
   32.505    3.5176
   32.520    3.3491
   32.535    3.4018
   32.550    3.5387
   32.565    3.2649
   32.580    3.0753
   32.595    3.2122
   32.610    3.0121
   32.625    3.2227
   32.640    3.3070
   32.655    3.2333
   32.670    3.2017
   32.685    2.9910
   32.700    3.2017
   32.715    3.4334
   32.730    3.1280
   32.745    3.1912
   32.760    3.5808
   32.775    3.4229
   32.790    3.1069
   32.805    3.3175
   32.820    3.0964
   32.835    3.0437
   32.850    3.2017
   32.865    3.3702
   32.880    3.5071
   32.895    3.4123
   32.910    3.5071
   32.925    3.5387
   32.940    3.5492
   32.955    3.5387
   32.970    3.6967
   32.985    3.6019
   33.000    3.7493
   33.015    3.5598
   33.030    3.7072
   33.045    3.4018
   33.060    3.2965
   33.075    3.3281
   33.090    3.0858
   33.105    3.1385
   33.120    3.1069
   33.135    3.0753
   33.150    3.2438
   33.165    3.3175
   33.180    3.3597
   33.195    3.3070
   33.210    3.4123
   33.225    3.4334
   33.240    3.3702
   33.255    2.9068
   33.270    3.1912
   33.285    3.1385
   33.300    3.2017
   33.315    3.2965
   33.330    3.5492
   33.345    3.1174
   33.360    3.3070
   33.375    3.3491
   33.390    3.4018
   33.405    3.4860
   33.420    3.2227
   33.435    3.1596
   33.450    3.3175
   33.465    3.2754
   33.480    3.4334
   33.495    3.3491
   33.510    3.3175
   33.525    3.2754
   33.540    3.2227
   33.555    3.0648
   33.570    3.3807
   33.585    3.2017
   33.600    3.4860
   33.615    3.3702
   33.630    3.4123
   33.645    3.3175
   33.660    3.3491
   33.675    3.6124
   33.690    3.3702
   33.705    3.0542
   33.720    3.3070
   33.735    3.3386
   33.750    3.2965
   33.765    3.1912
   33.780    3.2122
   33.795    3.1912
   33.810    3.2438
   33.825    3.4123
   33.840    3.6019
   33.855    3.4860
   33.870    3.2965
   33.885    3.3386
   33.900    3.4966
   33.915    3.5808
   33.930    3.5703
   33.945    3.5387
   33.960    3.6756
   33.975    3.5598
   33.990    3.6862
   34.005    3.4860
   34.020    3.3807
   34.035    3.4229
   34.050    3.5071
   34.065    3.3175
   34.080    3.2649
   34.095    3.2965
   34.110    3.2754
   34.125    3.2122
   34.140    3.3702
   34.155    3.3175
   34.170    3.1596
   34.185    3.4544
   34.200    3.0858
   34.215    3.1912
   34.230    3.4860
   34.245    3.3702
   34.260    3.2965
   34.275    3.3281
   34.290    3.6967
   34.305    3.1912
   34.320    3.3070
   34.335    3.1280
   34.350    3.4018
   34.365    3.3175
   34.380    3.0437
   34.395    3.3386
   34.410    3.3807
   34.425    3.5176
   34.440    3.4334
   34.455    3.1174
   34.470    3.5492
   34.485    3.2965
   34.500    3.0226
   34.515    3.2017
   34.530    3.3281
   34.545    3.3070
   34.560    3.2543
   34.575    2.9279
   34.590    3.2017
   34.605    3.1806
   34.620    3.2017
   34.635    3.0964
   34.650    3.0226
   34.665    3.2122
   34.680    3.4018
   34.695    3.0858
   34.710    3.2543
   34.725    2.9910
   34.740    3.3070
   34.755    3.2649
   34.770    3.1385
   34.785    2.7804
   34.800    2.7909
   34.815    2.9489
   34.830    3.2859
   34.845    3.3807
   34.860    3.4018
   34.875    3.2122
   34.890    3.3597
   34.905    3.4334
   34.920    3.3597
   34.935    3.3597
   34.950    3.4650
   34.965    3.3175
   34.980    3.2227
   34.995    3.0016
   35.010    3.0226
   35.025    2.9805
   35.040    3.2649
   35.055    3.0964
   35.070    3.0753
   35.085    3.1069
   35.100    3.1701
   35.115    3.0753
   35.130    2.9489
   35.145    3.0332
   35.160    2.8541
   35.175    3.0226
   35.190    3.0226
   35.205    3.0858
   35.220    2.8857
   35.235    2.7278
   35.250    3.0332
   35.265    3.1385
   35.280    2.8331
   35.295    3.2754
   35.310    3.1280
   35.325    2.9805
   35.340    3.1174
   35.355    3.0542
   35.370    3.0753
   35.385    3.1385
   35.400    3.5282
   35.415    3.2965
   35.430    3.1912
   35.445    3.2859
   35.460    3.0753
   35.475    3.2649
   35.490    3.1596
   35.505    3.1385
   35.520    3.1701
   35.535    3.1174
   35.550    3.2017
   35.565    3.0226
   35.580    3.0437
   35.595    3.0226
   35.610    3.0964
   35.625    2.9489
   35.640    2.8436
   35.655    3.1069
   35.670    3.0016
   35.685    3.1069
   35.700    3.1596
   35.715    3.0858
   35.730    3.0437
   35.745    3.0332
   35.760    3.0226
   35.775    3.3702
   35.790    3.0964
   35.805    3.0858
   35.820    3.1806
   35.835    3.0964
   35.850    3.2754
   35.865    3.1701
   35.880    2.9068
   35.895    3.3491
   35.910    3.3175
   35.925    3.3281
   35.940    2.9595
   35.955    3.2543
   35.970    3.0332
   35.985    3.1596
   36.000    3.5808
   36.015    3.3070
   36.030    3.1912
   36.045    3.3070
   36.060    3.2754
   36.075    3.0648
   36.090    2.9910
   36.105    3.1069
   36.120    2.9068
   36.135    2.9068
   36.150    3.3491
   36.165    3.2122
   36.180    2.9384
   36.195    2.9489
   36.210    3.2333
   36.225    3.2438
   36.240    2.8436
   36.255    2.9384
   36.270    3.2649
   36.285    3.1174
   36.300    3.0332
   36.315    3.0964
   36.330    3.1806
   36.345    3.1069
   36.360    3.0753
   36.375    3.0648
   36.390    2.8857
   36.405    3.1912
   36.420    2.9805
   36.435    3.0437
   36.450    2.9595
   36.465    3.0858
   36.480    3.0016
   36.495    2.8647
   36.510    3.2017
   36.525    3.1806
   36.540    3.1596
   36.555    3.0016
   36.570    3.0542
   36.585    3.1596
   36.600    3.1280
   36.615    3.2017
   36.630    3.2965
   36.645    3.3807
   36.660    3.3807
   36.675    3.6546
   36.690    3.3175
   36.705    3.2859
   36.720    3.4123
   36.735    3.1280
   36.750    3.3070
   36.765    3.3702
   36.780    3.1912
   36.795    3.1701
   36.810    3.0542
   36.825    3.1280
   36.840    3.2227
   36.855    3.1490
   36.870    2.7488
   36.885    2.7593
   36.900    2.9279
   36.915    2.9279
   36.930    2.9279
   36.945    2.7383
   36.960    2.8752
   36.975    2.9805
   36.990    2.9910
   37.005    3.1174
   37.020    2.9910
   37.035    3.0226
   37.050    3.2333
   37.065    3.0016
   37.080    3.4334
   37.095    3.4966
   37.110    3.3597
   37.125    3.2333
   37.140    3.4229
   37.155    3.5071
   37.170    3.2649
   37.185    3.3386
   37.200    3.3913
   37.215    3.3281
   37.230    3.2333
   37.245    3.1912
   37.260    3.1280
   37.275    3.1280
   37.290    3.0964
   37.305    2.8963
   37.320    3.1069
   37.335    2.8857
   37.350    3.0332
   37.365    2.9489
   37.380    3.1280
   37.395    3.0332
   37.410    3.1174
   37.425    3.1701
   37.440    2.8963
   37.455    2.9910
   37.470    2.8436
   37.485    2.8436
   37.500    3.0332
   37.515    3.3281
   37.530    3.3913
   37.545    3.0332
   37.560    3.0226
   37.575    2.9279
   37.590    2.9489
   37.605    2.8015
   37.620    2.9068
   37.635    3.0648
   37.650    3.2227
   37.665    2.9384
   37.680    2.9805
   37.695    3.0332
   37.710    3.1385
   37.725    2.8857
   37.740    3.2227
   37.755    2.9384
   37.770    2.8225
   37.785    2.8857
   37.800    3.3702
   37.815    3.2438
   37.830    3.0858
   37.845    3.2438
   37.860    3.2649
   37.875    3.0542
   37.890    2.8436
   37.905    3.0437
   37.920    2.9068
   37.935    3.2438
   37.950    3.0437
   37.965    2.7383
   37.980    2.9700
   37.995    3.0121
   38.010    3.1069
   38.025    3.4439
   38.040    3.3070
   38.055    3.0858
   38.070    2.9489
   38.085    3.1490
   38.100    3.0648
   38.115    3.3807
   38.130    3.0542
   38.145    2.9700
   38.160    3.1912
   38.175    3.0648
   38.190    3.0437
   38.205    2.8541
   38.220    3.0437
   38.235    2.8963
   38.250    3.0437
   38.265    3.1490
   38.280    3.1174
   38.295    3.1069
   38.310    2.9173
   38.325    2.8541
   38.340    2.8331
   38.355    3.0437
   38.370    3.2965
   38.385    3.2333
   38.400    3.1806
   38.415    2.9173
   38.430    2.8120
   38.445    3.0858
   38.460    2.9910
   38.475    3.1701
   38.490    3.1174
   38.505    3.0964
   38.520    3.0858
   38.535    3.0437
   38.550    2.9173
   38.565    3.0437
   38.580    2.8541
   38.595    2.6751
   38.610    3.0437
   38.625    3.0016
   38.640    2.8963
   38.655    2.8752
   38.670    2.8963
   38.685    2.8647
   38.700    2.9595
   38.715    2.7488
   38.730    3.0542
   38.745    3.1806
   38.760    2.8331
   38.775    3.1806
   38.790    3.0121
   38.805    2.6962
   38.820    2.8120
   38.835    3.0016
   38.850    3.1596
   38.865    3.2017
   38.880    3.0964
   38.895    2.8647
   38.910    2.7488
   38.925    2.7278
   38.940    3.0964
   38.955    3.0121
   38.970    3.0121
   38.985    3.0016
   39.000    3.0648
   39.015    2.9595
   39.030    3.2227
   39.045    3.2649
   39.060    3.0437
   39.075    2.9384
   39.090    2.8752
   39.105    2.8647
   39.120    3.0121
   39.135    2.8752
   39.150    3.1280
   39.165    2.8963
   39.180    3.1912
   39.195    2.7593
   39.210    2.9384
   39.225    3.1069
   39.240    3.2227
   39.255    3.1490
   39.270    2.9279
   39.285    2.8541
   39.300    2.8541
   39.315    3.1912
   39.330    2.9279
   39.345    3.0648
   39.360    3.1596
   39.375    3.3281
   39.390    2.9595
   39.405    3.0542
   39.420    3.2017
   39.435    3.4018
   39.450    3.1806
   39.465    2.8541
   39.480    3.1385
   39.495    3.2754
   39.510    2.9910
   39.525    2.9384
   39.540    2.8963
   39.555    3.1385
   39.570    3.2333
   39.585    3.0964
   39.600    2.9279
   39.615    2.8436
   39.630    2.8963
   39.645    2.9489
   39.660    2.9910
   39.675    2.9384
   39.690    2.8963
   39.705    3.1280
   39.720    2.8225
   39.735    2.9279
   39.750    3.2333
   39.765    2.8857
   39.780    3.0226
   39.795    3.0964
   39.810    2.9489
   39.825    2.9489
   39.840    2.9910
   39.855    3.2438
   39.870    3.1174
   39.885    3.1596
   39.900    3.3597
   39.915    2.9910
   39.930    2.9173
   39.945    3.1280
   39.960    3.1806
   39.975    3.0121
   39.990    2.8752
