    1.500   24.4550
    1.515   25.0237
    1.530   23.8968
    1.545   24.1706
    1.560   24.0548
    1.575   24.1074
    1.590   23.6546
    1.605   22.8857
    1.620   22.3065
    1.635   22.7909
    1.650   22.4539
    1.665   21.2428
    1.680   21.4113
    1.695   21.6219
    1.710   21.6851
    1.725   21.4639
    1.740   21.0216
    1.755   20.4107
    1.770   20.7478
    1.785   20.5582
    1.800   19.8947
    1.815   20.4107
    1.830   19.8526
    1.845   19.5050
    1.860   18.8204
    1.875   18.9468
    1.890   18.5571
    1.905   19.2101
    1.920   18.9152
    1.935   18.6940
    1.950   18.4729
    1.965   18.2517
    1.980   18.0727
    1.995   18.2306
    2.010   17.4408
    2.025   17.5355
    2.040   17.6725
    2.055   17.8620
    2.070   17.6935
    2.085   16.6403
    2.100   16.9774
    2.115   17.0195
    2.130   17.0511
    2.145   17.2617
    2.160   16.6087
    2.175   16.3876
    2.190   16.9563
    2.205   16.6193
    2.220   16.4824
    2.235   16.2928
    2.250   15.9663
    2.265   15.7346
    2.280   16.0084
    2.295   16.2928
    2.310   16.1243
    2.325   16.1453
    2.340   16.2928
    2.355   15.9136
    2.370   16.2191
    2.385   16.0400
    2.400   15.5134
    2.415   15.9663
    2.430   15.5240
    2.445   15.5134
    2.460   15.4502
    2.475   15.3976
    2.490   14.8183
    2.505   15.3555
    2.520   15.1659
    2.535   15.4924
    2.550   15.0500
    2.565   15.4186
    2.580   15.5977
    2.595   15.6293
    2.610   15.3870
    2.625   15.1027
    2.640   15.8820
    2.655   16.5456
    2.670   16.2507
    2.685   15.5029
    2.700   15.3344
    2.715   16.0927
    2.730   15.9031
    2.745   15.4081
    2.760   15.5872
    2.775   15.1553
    2.790   15.8610
    2.805   15.7030
    2.820   15.9242
    2.835   15.9347
    2.850   15.4186
    2.865   16.1032
    2.880   16.5140
    2.895   16.0611
    2.910   16.9036
    2.925   16.3244
    2.940   16.1769
    2.955   16.8720
    2.970   16.9984
    2.985   17.2091
    3.000   17.0827
    3.015   16.7773
    3.030   17.6198
    3.045   18.1148
    3.060   18.0621
    3.075   17.6514
    3.090   18.1464
    3.105   18.8204
    3.120   18.6519
    3.135   19.2944
    3.150   18.0621
    3.165   19.3154
    3.180   19.3576
    3.195   19.8526
    3.210   20.5055
    3.225   21.5798
    3.240   21.4639
    3.255   22.1169
    3.270   22.5803
    3.285   22.9173
    3.300   23.7809
    3.315   23.5387
    3.330   24.5287
    3.345   25.5398
    3.360   25.4344
    3.375   26.6772
    3.390   27.6777
    3.405   27.7620
    3.420   28.7520
    3.435   29.4787
    3.450   29.5840
    3.465   29.8999
    3.480   28.7625
    3.495   27.5197
    3.510   27.5619
    3.525   25.5292
    3.540   24.6972
    3.555   23.8231
    3.570   22.1485
    3.585   21.7167
    3.600   20.4107
    3.615   20.3581
    3.630   20.7688
    3.645   20.7583
    3.660   19.9263
    3.675   20.6214
    3.690   20.6108
    3.705   21.2954
    3.720   21.3691
    3.735   21.3586
    3.750   22.7593
    3.765   22.4118
    3.780   23.0964
    3.795   23.4755
    3.810   24.3181
    3.825   24.5814
    3.840   26.2981
    3.855   27.6988
    3.870   27.5408
    3.885   26.6035
    3.900   25.6767
    3.915   24.8236
    3.930   22.4961
    3.945   19.6314
    3.960   18.2728
    3.975   17.4934
    3.990   16.8931
    4.005   15.7873
    4.020   15.7346
    4.035   15.3449
    4.050   14.8394
    4.065   14.5761
    4.080   14.7762
    4.095   14.4076
    4.110   14.4602
    4.125   13.4913
    4.140   13.5124
    4.155   13.3017
    4.170   12.6488
    4.185   12.6172
    4.200   11.5850
    4.215   11.8273
    4.230   11.8167
    4.245   11.7325
    4.260   11.5113
    4.275   10.7320
    4.290   10.4265
    4.305   10.7425
    4.320   10.5951
    4.335   10.3318
    4.350   10.1527
    4.365    9.7420
    4.380    9.9315
    4.395   10.4371
    4.410    9.8052
    4.425    9.6367
    4.440   10.1948
    4.455    9.6788
    4.470    9.3944
    4.485    9.3312
    4.500    8.5413
    4.515    9.1101
    4.530    9.2259
    4.545    8.8468
    4.560    9.2259
    4.575    8.2991
    4.590    8.6467
    4.605    8.9205
    4.620    8.7204
    4.635    9.0258
    4.650    8.7836
    4.665    9.1311
    4.680    8.8889
    4.695    8.8152
    4.710    8.3623
    4.725    8.1833
    4.740    8.6993
    4.755    8.7414
    4.770    8.1517
    4.785    8.2675
    4.800    8.7836
    4.815    8.4044
    4.830    8.1727
    4.845    8.9837
    4.860    8.7204
    4.875    8.3518
    4.890    8.3202
    4.905    8.7204
    4.920    8.2149
    4.935    8.1095
    4.950    8.5624
    4.965    8.2675
    4.980    8.0569
    4.995    7.8357
    5.010    8.2780
    5.025    8.8362
    5.040    8.2780
    5.055    8.5097
    5.070    8.5413
    5.085    8.5097
    5.100    8.0779
    5.115    7.9410
    5.130    8.1201
    5.145    8.2464
    5.160    8.4360
    5.175    8.2359
    5.190    8.1622
    5.205    8.1411
    5.220    8.4150
    5.235    8.6151
    5.250    8.5835
    5.265    8.7309
    5.280    8.9837
    5.295    8.8362
    5.310    8.4887
    5.325    8.9521
    5.340    9.0258
    5.355    8.7730
    5.370    8.9310
    5.385    9.0785
    5.400    9.2680
    5.415    9.4681
    5.430    9.4260
    5.445    9.6577
    5.460    9.6788
    5.475    9.9631
    5.490   10.2370
    5.505   10.1106
    5.520   10.1106
    5.535    9.3944
    5.550    8.5729
    5.565    8.2991
    5.580    8.3202
    5.595    8.3623
    5.610    8.0147
    5.625    7.7830
    5.640    7.4250
    5.655    7.6672
    5.670    7.3723
    5.685    7.1406
    5.700    7.6461
    5.715    7.5513
    5.730    7.3407
    5.745    7.6777
    5.760    7.7093
    5.775    7.7409
    5.790    7.2775
    5.805    6.8668
    5.820    7.6777
    5.835    7.7093
    5.850    7.2565
    5.865    7.1933
    5.880    7.6461
    5.895    7.3407
    5.910    7.2775
    5.925    7.3407
    5.940    7.2775
    5.955    7.2038
    5.970    7.3828
    5.985    7.6567
    6.000    7.0353
    6.015    7.2775
    6.030    7.3934
    6.045    7.7725
    6.060    7.6672
    6.075    7.3723
    6.090    7.0353
    6.105    7.3723
    6.120    6.9616
    6.135    7.1511
    6.150    7.7093
    6.165    7.3828
    6.180    7.3828
    6.195    7.4671
    6.210    7.1617
    6.225    6.8141
    6.240    7.3091
    6.255    7.4566
    6.270    7.3302
    6.285    7.3407
    6.300    7.2459
    6.315    7.4882
    6.330    7.2986
    6.345    7.1511
    6.360    7.2880
    6.375    7.2986
    6.390    7.3407
    6.405    7.4987
    6.420    7.6145
    6.435    7.7409
    6.450    7.6883
    6.465    7.6567
    6.480    7.8673
    6.495    7.8884
    6.510    7.8568
    6.525    7.6988
    6.540    7.5408
    6.555    7.6461
    6.570    7.8041
    6.585    7.8884
    6.600    7.4671
    6.615    7.8252
    6.630    7.5513
    6.645    7.6040
    6.660    7.9410
    6.675    7.7304
    6.690    8.1938
    6.705    8.2254
    6.720    8.4571
    6.735    8.6993
    6.750    8.5203
    6.765    8.6361
    6.780    8.2570
    6.795    8.7625
    6.810    8.4992
    6.825    8.3518
    6.840    8.2570
    6.855    8.2780
    6.870    8.2675
    6.885    8.3834
    6.900    8.8046
    6.915    9.1311
    6.930    8.6993
    6.945    8.5413
    6.960    8.7098
    6.975    8.6677
    6.990    8.5729
    7.005    8.6045
    7.020    8.3096
    7.035    7.9410
    7.050    7.9410
    7.065    7.7725
    7.080    7.9937
    7.095    7.9726
    7.110    7.7830
    7.125    7.8041
    7.140    8.1517
    7.155    7.5829
    7.170    7.7199
    7.185    7.7620
    7.200    7.7830
    7.215    8.0358
    7.230    7.6567
    7.245    7.7304
    7.260    7.5619
    7.275    7.3512
    7.290    7.2986
    7.305    7.7304
    7.320    7.5513
    7.335    7.3196
    7.350    7.8252
    7.365    7.8357
    7.380    7.5092
    7.395    7.6883
    7.410    7.6356
    7.425    7.7409
    7.440    7.6883
    7.455    7.9726
    7.470    7.9516
    7.485    7.3407
    7.500    7.5724
    7.515    7.6145
    7.530    7.5619
    7.545    7.8146
    7.560    7.8357
    7.575    7.9831
    7.590    8.0358
    7.605    7.6672
    7.620    8.1938
    7.635    8.2675
    7.650    7.8989
    7.665    8.0042
    7.680    8.2991
    7.695    8.6993
    7.710    8.3518
    7.725    8.6256
    7.740    8.0990
    7.755    8.1517
    7.770    8.1727
    7.785    8.4571
    7.800    8.2570
    7.815    8.5097
    7.830    8.3623
    7.845    8.3202
    7.860    8.2464
    7.875    8.0358
    7.890    8.4781
    7.905    8.0674
    7.920    7.9937
    7.935    8.4466
    7.950    7.9094
    7.965    8.3623
    7.980    8.0674
    7.995    7.9937
    8.010    7.9516
    8.025    7.7830
    8.040    8.4466
    8.055    8.2675
    8.070    8.0042
    8.085    8.2043
    8.100    8.0253
    8.115    7.9937
    8.130    8.0569
    8.145    7.9094
    8.160    8.1411
    8.175    7.6883
    8.190    8.3202
    8.205    8.0358
    8.220    7.8252
    8.235    7.5197
    8.250    7.8146
    8.265    7.5724
    8.280    7.6883
    8.295    8.0990
    8.310    7.8989
    8.325    8.0674
    8.340    7.8884
    8.355    7.7936
    8.370    7.6883
    8.385    7.7199
    8.400    7.8252
    8.415    8.0990
    8.430    7.8357
    8.445    7.7620
    8.460    7.6356
    8.475    7.6356
    8.490    7.5513
    8.505    7.7936
    8.520    8.0358
    8.535    7.8357
    8.550    7.7620
    8.565    7.6251
    8.580    7.4566
    8.595    7.6567
    8.610    7.5724
    8.625    7.2459
    8.640    7.5619
    8.655    7.7514
    8.670    7.6356
    8.685    7.9516
    8.700    7.8357
    8.715    7.6145
    8.730    7.9410
    8.745    7.4250
    8.760    7.0985
    8.775    7.3934
    8.790    7.6145
    8.805    7.7725
    8.820    7.9516
    8.835    8.0042
    8.850    7.3828
    8.865    7.4144
    8.880    7.7093
    8.895    7.3723
    8.910    7.6145
    8.925    7.6672
    8.940    7.5092
    8.955    7.4882
    8.970    7.8252
    8.985    7.4355
    9.000    7.5092
    9.015    7.6040
    9.030    8.0147
    9.045    7.4776
    9.060    7.0774
    9.075    7.6567
    9.090    7.6356
    9.105    7.4144
    9.120    7.3302
    9.135    7.3934
    9.150    7.4355
    9.165    7.5829
    9.180    6.9616
    9.195    7.1933
    9.210    7.3091
    9.225    7.3618
    9.240    7.2986
    9.255    7.4250
    9.270    7.3196
    9.285    7.3934
    9.300    7.3091
    9.315    7.4776
    9.330    7.6988
    9.345    7.4776
    9.360    7.5092
    9.375    7.3091
    9.390    7.9094
    9.405    7.7620
    9.420    7.6777
    9.435    7.4671
    9.450    7.3828
    9.465    7.7725
    9.480    8.2675
    9.495    8.0253
    9.510    8.6572
    9.525    8.0253
    9.540    8.1517
    9.555    8.2464
    9.570    8.3202
    9.585    8.2043
    9.600    7.7093
    9.615    7.6777
    9.630    7.7830
    9.645    7.4987
    9.660    7.5092
    9.675    7.6672
    9.690    7.1933
    9.705    7.5619
    9.720    6.9405
    9.735    7.3934
    9.750    7.1617
    9.765    7.3196
    9.780    7.3512
    9.795    7.4250
    9.810    6.9616
    9.825    7.1090
    9.840    7.2143
    9.855    7.2880
    9.870    7.3196
    9.885    7.2143
    9.900    6.5929
    9.915    6.8773
    9.930    6.9405
    9.945    7.1617
    9.960    7.2670
    9.975    6.7615
    9.990    7.1090
   10.005    7.5513
   10.020    7.3934
   10.035    7.4144
   10.050    7.6883
   10.065    7.2670
   10.080    7.1195
   10.095    6.9932
   10.110    7.0248
   10.125    7.2670
   10.140    7.5408
   10.155    7.0985
   10.170    7.1406
   10.185    7.5829
   10.200    7.4987
   10.215    7.1617
   10.230    7.2354
   10.245    7.6040
   10.260    7.5092
   10.275    7.4882
   10.290    7.2565
   10.305    7.7304
   10.320    7.4776
   10.335    7.1195
   10.350    7.3723
   10.365    7.6145
   10.380    7.0879
   10.395    7.3723
   10.410    7.2880
   10.425    7.3196
   10.440    7.2986
   10.455    7.3828
   10.470    6.9194
   10.485    6.7930
   10.500    7.0248
   10.515    7.0458
   10.530    6.8457
   10.545    7.1511
   10.560    7.1406
   10.575    7.0669
   10.590    7.2670
   10.605    7.0879
   10.620    7.0353
   10.635    7.1406
   10.650    7.0142
   10.665    7.1933
   10.680    6.8036
   10.695    7.3723
   10.710    7.4144
   10.725    6.8773
   10.740    6.9300
   10.755    7.0563
   10.770    7.2143
   10.785    7.0458
   10.800    7.2143
   10.815    6.8352
   10.830    6.9510
   10.845    7.0458
   10.860    6.6983
   10.875    7.0563
   10.890    7.3091
   10.905    6.8457
   10.920    7.2459
   10.935    7.0353
   10.950    6.9194
   10.965    7.0774
   10.980    7.0353
   10.995    7.4776
   11.010    7.6461
   11.025    7.0458
   11.040    6.8457
   11.055    6.9405
   11.070    6.9405
   11.085    6.8036
   11.100    6.9089
   11.115    7.2880
   11.130    6.9405
   11.145    6.6140
   11.160    6.4876
   11.175    6.8878
   11.190    7.0458
   11.205    7.2670
   11.220    7.0458
   11.235    6.9616
   11.250    6.6983
   11.265    6.5192
   11.280    6.9932
   11.295    6.7825
   11.310    6.9194
   11.325    6.8457
   11.340    7.0669
   11.355    7.4355
   11.370    7.0458
   11.385    6.7088
   11.400    6.3507
   11.415    6.6456
   11.430    6.8668
   11.445    7.3302
   11.460    6.9089
   11.475    6.7193
   11.490    6.9932
   11.505    6.8562
   11.520    6.9932
   11.535    7.2038
   11.550    6.7825
   11.565    7.1511
   11.580    6.8773
   11.595    6.7509
   11.610    6.5613
   11.625    6.9405
   11.640    7.3512
   11.655    7.2038
   11.670    7.0353
   11.685    6.9089
   11.700    6.9089
   11.715    7.3723
   11.730    7.4460
   11.745    7.0985
   11.760    7.1301
   11.775    6.6877
   11.790    6.9300
   11.805    6.7509
   11.820    6.7404
   11.835    6.3402
   11.850    6.5298
   11.865    6.4560
   11.880    6.5087
   11.895    6.8036
   11.910    6.8246
   11.925    6.7509
   11.940    6.7193
   11.955    6.9405
   11.970    6.6561
   11.985    6.3928
   12.000    6.4982
   12.015    6.9616
   12.030    6.7615
   12.045    6.9194
   12.060    6.8036
   12.075    6.7088
   12.090    7.0563
   12.105    6.9510
   12.120    6.7615
   12.135    6.6351
   12.150    6.5087
   12.165    6.7930
   12.180    6.7509
   12.195    6.4244
   12.210    6.6772
   12.225    6.6456
   12.240    6.6561
   12.255    6.3718
   12.270    6.7404
   12.285    6.7299
   12.300    6.6983
   12.315    6.7404
   12.330    6.7615
   12.345    6.4034
   12.360    6.7509
   12.375    6.4876
   12.390    6.7615
   12.405    6.7088
   12.420    6.8668
   12.435    6.3718
   12.450    6.5929
   12.465    6.9194
   12.480    6.8457
   12.495    6.8352
   12.510    6.4876
   12.525    6.0558
   12.540    6.1822
   12.555    6.3296
   12.570    6.5192
   12.585    6.5087
   12.600    6.4982
   12.615    6.7615
   12.630    6.6561
   12.645    6.6351
   12.660    6.4244
   12.675    6.5929
   12.690    6.8984
   12.705    6.6983
   12.720    6.6667
   12.735    6.7720
   12.750    6.3402
   12.765    6.6561
   12.780    6.6667
   12.795    6.9616
   12.810    6.5613
   12.825    6.4982
   12.840    6.4876
   12.855    6.6140
   12.870    6.4139
   12.885    6.4244
   12.900    6.6456
   12.915    6.7509
   12.930    6.7509
   12.945    6.7088
   12.960    6.2770
   12.975    6.3612
   12.990    6.5192
   13.005    6.8036
   13.020    6.4876
   13.035    6.1822
   13.050    6.6983
   13.065    6.8878
   13.080    6.2770
   13.095    6.1506
   13.110    6.7299
   13.125    6.9405
   13.140    6.6667
   13.155    6.6245
   13.170    6.4876
   13.185    6.0874
   13.200    6.5192
   13.215    6.0979
   13.230    6.4771
   13.245    6.5929
   13.260    6.2138
   13.275    6.4350
   13.290    6.6983
   13.305    6.0032
   13.320    6.2138
   13.335    6.4244
   13.350    6.1611
   13.365    6.4139
   13.380    6.5613
   13.395    6.5192
   13.410    6.5929
   13.425    6.3823
   13.440    6.2243
   13.455    6.6877
   13.470    6.1085
   13.485    6.3507
   13.500    6.8457
   13.515    6.4771
   13.530    6.4244
   13.545    6.6140
   13.560    6.4771
   13.575    6.3086
   13.590    6.4034
   13.605    6.5298
   13.620    6.5403
   13.635    6.0348
   13.650    6.1085
   13.665    6.8246
   13.680    6.3507
   13.695    6.2770
   13.710    6.1822
   13.725    6.4455
   13.740    6.1611
   13.755    6.3507
   13.770    6.2033
   13.785    6.8773
   13.800    6.5508
   13.815    6.2454
   13.830    6.4666
   13.845    6.5403
   13.860    6.1717
   13.875    6.0242
   13.890    6.6245
   13.905    6.3718
   13.920    6.3296
   13.935    6.2665
   13.950    6.2559
   13.965    6.2665
   13.980    6.4876
   13.995    6.3612
   14.010    6.5613
   14.025    6.5087
   14.040    6.6877
   14.055    6.2033
   14.070    6.6983
   14.085    6.5403
   14.100    6.3507
   14.115    6.3086
   14.130    6.5613
   14.145    6.3823
   14.160    6.3718
   14.175    6.3191
   14.190    6.3402
   14.205    6.3718
   14.220    6.3296
   14.235    6.5719
   14.250    6.4666
   14.265    6.5192
   14.280    6.5508
   14.295    6.2033
   14.310    6.1085
   14.325    6.5087
   14.340    6.2138
   14.355    5.9926
   14.370    6.1717
   14.385    6.0137
   14.400    6.3718
   14.415    6.3296
   14.430    6.1401
   14.445    6.2665
   14.460    6.5719
   14.475    6.4876
   14.490    6.1611
   14.505    6.2454
   14.520    6.3402
   14.535    6.2033
   14.550    6.4876
   14.565    6.7615
   14.580    6.7720
   14.595    6.5403
   14.610    6.4244
   14.625    6.4350
   14.640    6.0453
   14.655    6.2138
   14.670    6.5824
   14.685    6.4666
   14.700    6.2349
   14.715    6.1611
   14.730    6.2349
   14.745    6.4982
   14.760    6.2665
   14.775    6.7299
   14.790    6.3507
   14.805    5.7293
   14.820    6.4666
   14.835    6.3718
   14.850    6.2349
   14.865    6.4771
   14.880    6.5403
   14.895    6.2349
   14.910    6.4244
   14.925    6.6561
   14.940    6.2770
   14.955    6.0453
   14.970    6.1927
   14.985    5.9821
   15.000    6.4560
   15.015    6.7193
   15.030    6.4139
   15.045    6.7299
   15.060    6.5613
   15.075    6.2454
   15.090    6.4982
   15.105    6.6772
   15.120    6.4244
   15.135    6.8984
   15.150    6.8878
   15.165    6.9721
   15.180    6.9510
   15.195    6.4666
   15.210    6.4139
   15.225    6.1085
   15.240    6.4034
   15.255    6.5087
   15.270    6.3402
   15.285    6.3296
   15.300    6.3507
   15.315    6.5719
   15.330    6.4771
   15.345    6.2770
   15.360    6.3823
   15.375    6.1822
   15.390    6.3086
   15.405    6.6772
   15.420    6.5719
   15.435    6.6983
   15.450    6.4771
   15.465    6.4560
   15.480    5.9716
   15.495    6.4455
   15.510    6.5298
   15.525    6.6561
   15.540    6.6035
   15.555    6.7615
   15.570    6.4876
   15.585    6.6035
   15.600    6.7088
   15.615    6.6877
   15.630    6.2349
   15.645    6.3718
   15.660    6.6456
   15.675    6.4034
   15.690    6.3823
   15.705    6.5087
   15.720    6.5824
   15.735    6.5087
   15.750    6.5192
   15.765    6.5613
   15.780    6.6772
   15.795    6.3507
   15.810    6.1190
   15.825    5.8978
   15.840    6.3823
   15.855    6.1506
   15.870    6.2454
   15.885    6.2033
   15.900    6.4034
   15.915    6.6035
   15.930    6.3296
   15.945    6.4982
   15.960    6.5087
   15.975    6.4350
   15.990    6.4771
   16.005    6.1927
   16.020    6.2454
   16.035    6.6667
   16.050    6.3402
   16.065    6.4666
   16.080    6.4034
   16.095    6.6667
   16.110    6.6456
   16.125    6.3402
   16.140    6.1927
   16.155    6.2454
   16.170    6.6035
   16.185    6.5298
   16.200    6.2559
   16.215    6.6772
   16.230    6.2559
   16.245    6.3191
   16.260    6.7088
   16.275    6.8141
   16.290    6.6456
   16.305    6.3823
   16.320    6.3296
   16.335    6.4139
   16.350    6.6456
   16.365    6.4666
   16.380    6.8562
   16.395    6.9616
   16.410    6.7088
   16.425    6.5298
   16.440    6.6140
   16.455    6.3191
   16.470    6.3718
   16.485    6.4666
   16.500    6.2981
   16.515    6.2770
   16.530    6.3718
   16.545    6.4560
   16.560    6.6456
   16.575    6.4455
   16.590    6.5087
   16.605    6.3191
   16.620    6.4666
   16.635    6.4139
   16.650    6.7825
   16.665    6.4034
   16.680    6.7088
   16.695    6.4455
   16.710    6.4560
   16.725    6.2981
   16.740    6.2559
   16.755    6.3823
   16.770    6.4244
   16.785    6.6456
   16.800    6.7193
   16.815    6.6456
   16.830    6.6561
   16.845    6.2665
   16.860    6.6561
   16.875    6.5613
   16.890    6.7615
   16.905    6.0453
   16.920    6.3718
   16.935    6.5613
   16.950    6.2665
   16.965    6.8352
   16.980    6.2454
   16.995    6.0769
   17.010    6.6983
   17.025    6.6351
   17.040    6.5403
   17.055    6.4139
   17.070    6.4350
   17.085    6.9194
   17.100    6.6456
   17.115    6.4876
   17.130    6.3612
   17.145    6.6456
   17.160    6.6245
   17.175    7.2670
   17.190    6.9089
   17.205    6.6667
   17.220    6.4560
   17.235    6.6035
   17.250    6.5087
   17.265    6.4876
   17.280    6.5508
   17.295    6.4771
   17.310    6.3928
   17.325    6.4244
   17.340    6.1927
   17.355    6.3191
   17.370    6.3823
   17.385    6.2033
   17.400    6.1611
   17.415    6.3086
   17.430    6.8562
   17.445    6.5192
   17.460    6.3191
   17.475    6.8668
   17.490    6.7825
   17.505    6.6140
   17.520    6.5298
   17.535    6.5824
   17.550    6.2349
   17.565    6.6351
   17.580    6.8352
   17.595    6.2349
   17.610    6.1717
   17.625    7.1090
   17.640    7.0142
   17.655    6.5719
   17.670    6.7299
   17.685    7.0353
   17.700    6.2770
   17.715    6.4034
   17.730    6.8352
   17.745    6.7299
   17.760    6.5929
   17.775    6.6877
   17.790    6.8878
   17.805    6.5508
   17.820    6.3718
   17.835    6.4876
   17.850    6.7930
   17.865    6.0979
   17.880    6.3928
   17.895    6.2559
   17.910    6.4139
   17.925    6.7193
   17.940    6.7720
   17.955    6.8773
   17.970    6.5087
   17.985    6.9510
   18.000    6.5719
   18.015    6.6983
   18.030    6.9721
   18.045    6.7720
   18.060    6.3718
   18.075    6.3612
   18.090    6.8878
   18.105    6.8668
   18.120    6.8562
   18.135    6.6245
   18.150    6.3718
   18.165    6.5192
   18.180    6.6351
   18.195    6.4560
   18.210    6.6667
   18.225    7.1195
   18.240    6.5929
   18.255    6.6456
   18.270    6.5824
   18.285    6.7509
   18.300    6.5508
   18.315    6.8668
   18.330    6.8141
   18.345    6.6983
   18.360    6.7509
   18.375    6.6667
   18.390    6.6772
   18.405    6.5719
   18.420    6.5613
   18.435    6.5298
   18.450    6.8773
   18.465    6.4455
   18.480    6.8457
   18.495    6.7720
   18.510    6.8773
   18.525    6.8878
   18.540    6.5824
   18.555    6.6877
   18.570    6.4560
   18.585    6.1927
   18.600    6.5824
   18.615    6.9089
   18.630    6.8352
   18.645    6.4771
   18.660    6.6561
   18.675    6.4034
   18.690    6.6772
   18.705    6.6456
   18.720    6.6983
   18.735    6.7193
   18.750    6.4560
   18.765    6.6772
   18.780    6.8668
   18.795    6.8457
   18.810    6.3612
   18.825    6.6351
   18.840    6.4244
   18.855    6.5824
   18.870    6.3612
   18.885    6.6351
   18.900    7.0458
   18.915    7.0669
   18.930    7.1301
   18.945    6.6772
   18.960    7.1827
   18.975    7.4882
   18.990    7.2249
   19.005    6.6877
   19.020    7.0458
   19.035    7.1511
   19.050    7.1511
   19.065    6.9405
   19.080    7.0248
   19.095    6.7193
   19.110    6.5298
   19.125    6.3086
   19.140    6.6140
   19.155    6.8562
   19.170    6.6351
   19.185    6.6561
   19.200    6.3296
   19.215    6.5613
   19.230    6.6667
   19.245    6.2665
   19.260    6.0874
   19.275    6.6561
   19.290    6.1822
   19.305    6.5508
   19.320    6.5613
   19.335    6.9721
   19.350    7.0142
   19.365    6.5929
   19.380    6.4666
   19.395    6.7193
   19.410    6.8562
   19.425    6.8036
   19.440    6.4771
   19.455    6.9826
   19.470    6.7088
   19.485    6.7088
   19.500    7.2880
   19.515    6.6140
   19.530    6.7088
   19.545    6.9721
   19.560    6.9826
   19.575    6.7509
   19.590    6.6772
   19.605    7.0037
   19.620    7.0458
   19.635    6.7930
   19.650    6.7299
   19.665    6.5929
   19.680    6.2454
   19.695    6.1085
   19.710    6.5929
   19.725    6.9616
   19.740    6.8036
   19.755    6.6140
   19.770    6.8246
   19.785    6.8036
   19.800    6.7825
   19.815    6.9510
   19.830    6.8457
   19.845    6.5824
   19.860    6.8878
   19.875    6.5719
   19.890    6.4244
   19.905    6.7720
   19.920    6.7193
   19.935    6.5719
   19.950    6.7193
   19.965    6.6351
   19.980    6.8246
   19.995    6.3718
   20.010    6.4455
   20.025    6.6561
   20.040    6.3402
   20.055    6.7825
   20.070    6.5298
   20.085    6.5719
   20.100    6.5824
   20.115    6.8773
   20.130    6.8141
   20.145    6.6877
   20.160    6.6035
   20.175    7.1195
   20.190    7.1090
   20.205    6.7404
   20.220    6.3402
   20.235    6.7404
   20.250    6.8457
   20.265    6.9616
   20.280    7.0669
   20.295    6.5929
   20.310    6.7720
   20.325    7.0248
   20.340    6.7825
   20.355    7.2986
   20.370    7.4566
   20.385    6.8352
   20.400    6.9510
   20.415    6.7404
   20.430    6.8562
   20.445    6.8984
   20.460    6.6772
   20.475    6.7825
   20.490    7.1827
   20.505    6.7509
   20.520    7.0248
   20.535    6.9089
   20.550    6.8668
   20.565    6.8141
   20.580    6.8878
   20.595    6.7088
   20.610    6.7720
   20.625    6.6877
   20.640    6.9089
   20.655    7.0037
   20.670    6.9826
   20.685    6.6667
   20.700    6.6561
   20.715    6.6245
   20.730    6.7615
   20.745    6.5824
   20.760    6.9510
   20.775    7.0458
   20.790    7.1406
   20.805    7.4355
   20.820    6.6351
   20.835    6.8878
   20.850    7.0037
   20.865    6.7193
   20.880    6.7404
   20.895    6.9826
   20.910    7.0458
   20.925    6.6983
   20.940    6.6667
   20.955    6.9932
   20.970    7.1301
   20.985    7.0879
   21.000    6.5613
   21.015    6.8878
   21.030    6.6351
   21.045    6.5192
   21.060    7.0774
   21.075    7.1827
   21.090    6.9089
   21.105    6.9089
   21.120    7.1933
   21.135    6.5824
   21.150    6.6667
   21.165    6.7930
   21.180    6.6983
   21.195    6.8246
   21.210    6.8668
   21.225    6.7404
   21.240    7.2249
   21.255    7.2038
   21.270    7.1195
   21.285    6.9405
   21.300    6.8984
   21.315    6.9616
   21.330    7.1933
   21.345    7.1722
   21.360    7.0879
   21.375    7.2143
   21.390    6.8246
   21.405    6.9194
   21.420    6.9300
   21.435    6.8352
   21.450    6.6983
   21.465    6.7615
   21.480    6.9932
   21.495    6.9089
   21.510    6.6035
   21.525    6.6877
   21.540    6.7930
   21.555    6.5508
   21.570    6.9616
   21.585    6.9826
   21.600    7.2670
   21.615    6.7088
   21.630    6.9826
   21.645    7.1933
   21.660    6.7720
   21.675    6.7615
   21.690    6.7404
   21.705    7.1301
   21.720    7.3618
   21.735    7.2354
   21.750    6.9510
   21.765    6.8562
   21.780    6.8352
   21.795    6.7930
   21.810    7.2565
   21.825    6.9616
   21.840    6.6245
   21.855    6.6667
   21.870    6.9616
   21.885    6.9826
   21.900    6.6877
   21.915    6.8246
   21.930    6.8457
   21.945    6.8773
   21.960    6.9616
   21.975    6.9721
   21.990    6.8036
   22.005    7.0353
   22.020    6.6667
   22.035    6.7193
   22.050    6.8984
   22.065    7.1090
   22.080    7.0353
   22.095    6.7720
   22.110    6.8457
   22.125    7.0248
   22.140    6.8141
   22.155    6.1927
   22.170    6.5298
   22.185    7.0774
   22.200    6.7615
   22.215    6.6877
   22.230    6.9194
   22.245    7.0037
   22.260    7.0142
   22.275    6.8457
   22.290    6.9405
   22.305    6.9300
   22.320    6.7930
   22.335    6.9932
   22.350    6.9194
   22.365    6.9194
   22.380    6.6983
   22.395    7.2459
   22.410    6.9932
   22.425    7.2565
   22.440    7.1301
   22.455    6.9405
   22.470    6.7509
   22.485    6.8036
   22.500    6.7615
   22.515    6.6456
   22.530    7.2775
   22.545    7.1090
   22.560    7.4144
   22.575    7.2038
   22.590    7.2565
   22.605    7.0563
   22.620    7.2249
   22.635    6.9089
   22.650    6.6983
   22.665    7.1301
   22.680    6.8984
   22.695    7.0353
   22.710    7.0669
   22.725    6.9616
   22.740    6.7509
   22.755    6.8562
   22.770    6.8246
   22.785    6.6877
   22.800    6.7193
   22.815    6.7193
   22.830    6.9510
   22.845    6.5824
   22.860    6.9300
   22.875    6.9932
   22.890    6.9194
   22.905    7.0563
   22.920    7.1827
   22.935    7.2354
   22.950    6.8141
   22.965    6.8562
   22.980    6.4560
   22.995    6.8352
   23.010    7.0142
   23.025    7.2986
   23.040    7.2565
   23.055    6.8352
   23.070    6.5929
   23.085    6.7930
   23.100    6.8984
   23.115    6.7193
   23.130    6.3507
   23.145    6.6983
   23.160    6.9405
   23.175    6.8668
   23.190    7.5197
   23.205    6.9721
   23.220    6.6983
   23.235    6.7088
   23.250    6.5929
   23.265    6.9300
   23.280    6.4982
   23.295    6.8984
   23.310    6.7299
   23.325    6.4455
   23.340    6.8457
   23.355    6.7299
   23.370    6.3823
   23.385    7.0353
   23.400    6.6667
   23.415    6.3402
   23.430    6.7825
   23.445    6.4244
   23.460    6.3718
   23.475    6.7299
   23.490    7.1406
   23.505    6.8773
   23.520    6.7299
   23.535    6.8457
   23.550    6.9300
   23.565    6.9194
   23.580    6.8036
   23.595    6.7615
   23.610    7.0879
   23.625    6.8562
   23.640    6.8141
   23.655    6.8878
   23.670    6.7509
   23.685    6.5403
   23.700    6.3296
   23.715    6.6772
   23.730    6.7825
   23.745    6.7404
   23.760    6.7299
   23.775    6.7404
   23.790    6.7720
   23.805    6.6140
   23.820    6.7088
   23.835    6.6877
   23.850    7.1406
   23.865    7.0142
   23.880    6.7615
   23.895    6.6667
   23.910    6.6456
   23.925    6.2981
   23.940    6.8352
   23.955    6.5929
   23.970    6.4982
   23.985    6.6983
   24.000    6.5087
   24.015    6.8036
   24.030    6.4666
   24.045    6.5719
   24.060    6.5192
   24.075    6.8984
   24.090    6.9089
   24.105    6.5192
   24.120    6.5929
   24.135    6.5824
   24.150    6.5613
   24.165    6.6772
   24.180    6.8036
   24.195    6.2770
   24.210    6.3823
   24.225    6.6245
   24.240    6.9510
   24.255    6.5087
   24.270    6.6351
   24.285    6.7193
   24.300    6.2875
   24.315    6.4350
   24.330    6.3718
   24.345    6.3612
   24.360    6.5929
   24.375    6.4244
   24.390    6.4244
   24.405    6.6140
   24.420    7.0037
   24.435    6.7509
   24.450    6.8457
   24.465    6.4982
   24.480    6.3612
   24.495    6.5929
   24.510    6.4666
   24.525    6.7088
   24.540    6.9721
   24.555    6.6351
   24.570    6.4876
   24.585    7.0037
   24.600    6.7930
   24.615    6.3296
   24.630    6.2875
   24.645    6.3823
   24.660    6.7088
   24.675    6.7615
   24.690    6.9510
   24.705    6.5192
   24.720    6.3507
   24.735    6.3718
   24.750    6.3086
   24.765    6.1927
   24.780    6.3718
   24.795    5.9610
   24.810    6.4560
   24.825    6.6140
   24.840    6.6351
   24.855    6.6561
   24.870    6.5719
   24.885    7.0037
   24.900    6.7404
   24.915    6.3612
   24.930    6.4666
   24.945    6.5192
   24.960    6.3507
   24.975    6.6667
   24.990    6.2033
   25.005    6.5824
   25.020    6.1506
   25.035    6.2559
   25.050    6.1295
   25.065    6.6561
   25.080    6.5298
   25.095    6.5508
   25.110    6.4455
   25.125    6.2770
   25.140    6.5508
   25.155    6.3086
   25.170    6.4455
   25.185    6.6456
   25.200    6.4244
   25.215    6.2033
   25.230    6.1611
   25.245    6.3928
   25.260    6.5613
   25.275    6.5929
   25.290    6.6772
   25.305    6.3928
   25.320    5.9400
   25.335    6.6245
   25.350    6.4560
   25.365    6.6140
   25.380    6.3718
   25.395    6.5087
   25.410    6.6983
   25.425    6.4139
   25.440    6.5824
   25.455    6.6667
   25.470    6.6245
   25.485    6.4139
   25.500    6.6245
   25.515    6.5403
   25.530    6.2665
   25.545    6.8984
   25.560    6.4771
   25.575    6.3296
   25.590    6.6245
   25.605    6.2875
   25.620    6.4350
   25.635    6.6035
   25.650    6.4350
   25.665    6.7404
   25.680    6.1401
   25.695    6.5298
   25.710    6.9616
   25.725    6.5508
   25.740    6.6456
   25.755    6.6772
   25.770    6.8141
   25.785    6.5824
   25.800    6.4455
   25.815    6.5087
   25.830    6.6245
   25.845    6.2033
   25.860    6.4771
   25.875    6.4350
   25.890    6.4771
   25.905    6.2770
   25.920    6.4350
   25.935    6.4771
   25.950    6.4982
   25.965    6.5929
   25.980    6.1401
   25.995    6.0769
   26.010    6.3086
   26.025    6.6667
   26.040    6.4982
   26.055    6.4771
   26.070    6.7720
   26.085    6.3823
   26.100    6.5929
   26.115    6.4560
   26.130    6.1085
   26.145    6.2875
   26.160    6.4034
   26.175    6.6561
   26.190    6.5087
   26.205    5.9400
   26.220    6.4139
   26.235    6.1085
   26.250    6.2559
   26.265    6.7193
   26.280    6.3191
   26.295    5.9926
   26.310    5.8241
   26.325    5.7399
   26.340    6.3086
   26.355    6.3612
   26.370    6.4244
   26.385    6.0137
   26.400    6.0032
   26.415    6.0769
   26.430    6.3507
   26.445    6.2454
   26.460    6.1822
   26.475    6.2033
   26.490    6.0453
   26.505    6.2454
   26.520    6.3612
   26.535    5.9189
   26.550    6.2559
   26.565    6.3086
   26.580    6.6245
   26.595    5.8452
   26.610    6.0348
   26.625    6.0348
   26.640    6.2875
   26.655    6.3928
   26.670    6.1190
   26.685    6.1401
   26.700    6.3296
   26.715    6.3823
   26.730    6.1190
   26.745    6.1927
   26.760    6.2243
   26.775    5.9610
   26.790    6.2349
   26.805    6.4350
   26.820    6.0348
   26.835    5.9400
   26.850    6.0242
   26.865    6.1927
   26.880    6.0664
   26.895    6.0558
   26.910    6.1085
   26.925    6.1717
   26.940    6.1085
   26.955    6.1611
   26.970    6.0979
   26.985    6.2454
   27.000    6.2875
   27.015    6.1295
   27.030    6.7088
   27.045    6.5192
   27.060    6.4034
   27.075    6.4455
   27.090    6.1190
   27.105    5.9400
   27.120    6.3296
   27.135    5.9505
   27.150    5.9294
   27.165    5.9716
   27.180    6.2559
   27.195    6.1927
   27.210    5.9084
   27.225    5.9821
   27.240    6.0032
   27.255    6.1822
   27.270    6.4455
   27.285    6.1295
   27.300    6.1295
   27.315    6.0453
   27.330    6.0769
   27.345    6.0769
   27.360    6.0769
   27.375    6.3507
   27.390    6.3296
   27.405    6.2875
   27.420    6.1506
   27.435    6.2665
   27.450    6.0558
   27.465    6.1506
   27.480    6.0874
   27.495    5.7820
   27.510    6.0979
   27.525    6.1190
   27.540    5.9610
   27.555    6.2875
   27.570    6.0453
   27.585    6.0979
   27.600    6.0874
   27.615    6.2138
   27.630    5.9505
   27.645    5.9505
   27.660    6.1611
   27.675    6.2243
   27.690    5.8768
   27.705    6.0979
   27.720    5.9084
   27.735    5.9084
   27.750    6.0137
   27.765    5.8452
   27.780    6.1927
   27.795    5.7504
   27.810    6.0348
   27.825    5.6556
   27.840    6.1506
   27.855    6.3928
   27.870    6.0664
   27.885    5.6872
   27.900    6.3823
   27.915    6.2138
   27.930    6.0032
   27.945    5.7188
   27.960    6.1401
   27.975    6.4244
   27.990    5.9821
   28.005    6.2454
   28.020    6.3718
   28.035    6.2138
   28.050    6.1717
   28.065    6.4244
   28.080    6.3823
   28.095    6.1822
   28.110    5.7083
   28.125    5.9294
   28.140    6.1822
   28.155    6.1927
   28.170    6.0874
   28.185    5.8873
   28.200    5.8031
   28.215    5.8978
   28.230    5.6977
   28.245    5.9294
   28.260    5.8557
   28.275    5.8136
   28.290    5.9294
   28.305    6.0032
   28.320    5.8557
   28.335    5.5292
   28.350    5.3818
   28.365    5.6661
   28.380    5.9610
   28.395    5.8452
   28.410    5.8768
   28.425    5.7188
   28.440    5.7715
   28.455    5.8347
   28.470    6.0664
   28.485    5.9716
   28.500    5.8978
   28.515    5.8662
   28.530    6.1822
   28.545    5.9926
   28.560    5.8347
   28.575    5.5924
   28.590    5.7504
   28.605    5.9400
   28.620    5.9505
   28.635    5.8557
   28.650    6.0664
   28.665    5.6872
   28.680    5.5714
   28.695    6.1401
   28.710    5.8347
   28.725    5.7925
   28.740    5.3291
   28.755    5.6135
   28.770    5.6872
   28.785    5.6872
   28.800    5.6345
   28.815    5.7504
   28.830    5.6135
   28.845    5.9189
   28.860    5.9189
   28.875    6.2875
   28.890    6.0979
   28.905    5.8031
   28.920    5.9505
   28.935    5.8557
   28.950    5.8768
   28.965    5.6345
   28.980    5.8873
   28.995    6.1822
   29.010    5.9400
   29.025    5.8557
   29.040    6.0558
   29.055    6.2138
   29.070    5.9084
   29.085    5.7925
   29.100    5.6556
   29.115    5.6872
   29.130    5.7715
   29.145    5.4239
   29.160    5.9400
   29.175    6.0242
   29.190    5.9400
   29.205    5.8873
   29.220    5.7399
   29.235    5.4450
   29.250    5.8136
   29.265    5.8347
   29.280    5.5924
   29.295    6.1401
   29.310    5.8452
   29.325    5.6451
   29.340    6.0348
   29.355    5.4976
   29.370    5.9716
   29.385    6.1085
   29.400    5.6872
   29.415    5.8241
   29.430    5.6345
   29.445    5.9189
   29.460    6.0242
   29.475    5.4766
   29.490    5.8452
   29.505    5.6240
   29.520    6.0453
   29.535    5.8662
   29.550    5.9400
   29.565    5.3818
   29.580    5.5187
   29.595    5.6345
   29.610    5.5714
   29.625    5.5082
   29.640    5.4134
   29.655    5.6345
   29.670    5.6767
   29.685    5.4660
   29.700    5.7609
   29.715    5.6767
   29.730    5.4555
   29.745    5.6240
   29.760    5.6135
   29.775    5.5924
   29.790    6.0032
   29.805    5.8241
   29.820    5.7504
   29.835    5.8557
   29.850    5.6872
   29.865    5.5924
   29.880    5.4766
   29.895    5.9926
   29.910    5.7083
   29.925    5.5503
   29.940    5.3291
   29.955    5.4344
   29.970    5.5819
   29.985    5.6135
   30.000    5.7715
   30.015    5.6451
   30.030    5.7188
   30.045    5.6451
   30.060    5.5608
   30.075    5.8557
   30.090    5.5924
   30.105    5.7293
   30.120    5.4344
   30.135    5.4134
   30.150    5.3712
   30.165    5.4134
   30.180    5.5714
   30.195    5.6345
   30.210    5.3923
   30.225    5.7293
   30.240    5.5082
   30.255    5.7188
   30.270    5.9189
   30.285    5.6556
   30.300    5.6135
   30.315    5.6767
   30.330    5.5503
   30.345    5.6872
   30.360    5.8557
   30.375    5.8557
   30.390    5.3712
   30.405    5.4766
   30.420    5.7188
   30.435    5.5924
   30.450    5.5714
   30.465    5.7609
   30.480    5.4134
   30.495    5.4555
   30.510    5.5503
   30.525    5.4028
   30.540    5.3818
   30.555    5.6029
   30.570    5.4871
   30.585    5.6345
   30.600    5.7504
   30.615    5.5819
   30.630    5.6661
   30.645    5.5924
   30.660    5.5819
   30.675    5.6029
   30.690    5.4555
   30.705    5.6872
   30.720    5.5187
   30.735    5.5819
   30.750    5.5714
   30.765    5.4871
   30.780    5.7609
   30.795    5.5608
   30.810    5.5187
   30.825    5.5082
   30.840    5.6977
   30.855    6.0664
   30.870    5.9189
   30.885    5.4028
   30.900    5.4028
   30.915    5.3607
   30.930    5.9189
   30.945    5.5292
   30.960    5.6345
   30.975    5.2343
   30.990    5.5292
   31.005    5.5292
   31.020    5.2027
   31.035    5.4766
   31.050    5.6451
   31.065    5.3502
   31.080    5.2133
   31.095    5.0658
   31.110    5.3502
   31.125    5.7399
   31.140    5.8031
   31.155    5.8136
   31.170    5.2870
   31.185    5.5608
   31.200    5.2659
   31.215    5.7715
   31.230    5.4555
   31.245    5.8241
   31.260    5.5503
   31.275    5.4028
   31.290    5.1290
   31.305    5.5924
   31.320    5.6977
   31.335    5.1185
   31.350    5.4239
   31.365    5.5082
   31.380    5.3186
   31.395    5.4766
   31.410    5.5187
   31.425    5.7083
   31.440    5.6977
   31.455    5.3502
   31.470    5.6029
   31.485    5.3818
   31.500    5.4134
   31.515    5.2870
   31.530    5.4450
   31.545    5.2343
   31.560    5.2238
   31.575    5.6029
   31.590    5.3923
   31.605    5.4028
   31.620    5.8662
   31.635    5.3712
   31.650    5.2765
   31.665    5.3712
   31.680    5.5082
   31.695    5.4028
   31.710    5.3923
   31.725    5.5292
   31.740    5.5082
   31.755    5.3818
   31.770    5.5082
   31.785    5.7820
   31.800    5.5819
   31.815    5.3397
   31.830    5.6240
   31.845    5.7609
   31.860    5.4871
   31.875    5.6872
   31.890    5.5714
   31.905    4.9605
   31.920    4.9605
   31.935    5.4555
   31.950    5.4239
   31.965    5.2975
   31.980    5.7083
   31.995    5.7188
   32.010    6.0032
   32.025    5.5082
   32.040    5.8347
   32.055    6.0242
   32.070    5.9610
   32.085    5.9610
   32.100    6.0242
   32.115    5.9189
   32.130    5.5714
   32.145    5.5714
   32.160    5.2659
   32.175    5.4134
   32.190    5.4660
   32.205    5.3291
   32.220    5.3186
   32.235    5.1711
   32.250    5.1711
   32.265    5.0869
   32.280    5.3081
   32.295    5.0658
   32.310    5.0448
   32.325    4.9500
   32.340    5.1290
   32.355    5.1395
   32.370    5.0237
   32.385    5.0132
   32.400    5.2343
   32.415    5.2343
   32.430    5.1606
   32.445    5.3081
   32.460    5.2343
   32.475    5.2870
   32.490    5.0869
   32.505    5.1711
   32.520    5.3081
   32.535    5.4028
   32.550    5.2449
   32.565    5.0974
   32.580    5.4028
   32.595    5.4871
   32.610    5.2659
   32.625    5.3081
   32.640    5.2238
   32.655    5.2975
   32.670    4.9710
   32.685    5.3502
   32.700    5.4134
   32.715    5.0764
   32.730    5.2765
   32.745    5.5924
   32.760    5.5398
   32.775    5.3818
   32.790    5.1922
   32.805    5.0974
   32.820    5.2659
   32.835    5.2765
   32.850    5.3291
   32.865    5.3081
   32.880    5.2449
   32.895    5.3712
   32.910    5.1606
   32.925    5.0448
   32.940    5.1080
   32.955    4.9394
   32.970    4.6867
   32.985    5.5503
   33.000    5.0553
   33.015    4.9710
   33.030    5.0764
   33.045    5.0026
   33.060    5.2765
   33.075    5.1185
   33.090    5.3712
   33.105    5.2343
   33.120    5.0974
   33.135    5.1290
   33.150    5.1501
   33.165    5.2238
   33.180    5.2027
   33.195    5.3607
   33.210    5.0132
   33.225    5.2133
   33.240    5.0448
   33.255    5.0869
   33.270    5.0026
   33.285    5.1501
   33.300    5.2133
   33.315    5.0764
   33.330    5.0132
   33.345    5.1185
   33.360    5.5714
   33.375    5.2765
   33.390    5.0448
   33.405    5.1922
   33.420    5.1922
   33.435    4.8447
   33.450    4.9500
   33.465    4.8973
   33.480    5.4134
   33.495    5.1711
   33.510    4.9710
   33.525    4.8341
   33.540    5.1290
   33.555    5.2133
   33.570    4.9289
   33.585    5.0132
   33.600    4.9605
   33.615    5.2449
   33.630    5.2343
   33.645    4.8657
   33.660    5.0869
   33.675    4.9710
   33.690    4.8131
   33.705    5.0026
   33.720    5.2027
   33.735    5.2027
   33.750    5.0974
   33.765    5.3397
   33.780    5.4766
   33.795    5.5608
   33.810    5.2027
   33.825    5.5082
   33.840    5.3923
   33.855    5.1395
   33.870    5.7504
   33.885    5.5187
   33.900    5.2027
   33.915    5.2343
   33.930    5.2975
   33.945    5.2554
   33.960    5.3818
   33.975    5.2659
   33.990    5.4766
   34.005    5.4660
   34.020    5.3818
   34.035    5.1817
   34.050    5.1185
   34.065    5.1185
   34.080    4.8657
   34.095    4.5603
   34.110    4.8131
   34.125    4.7920
   34.140    5.1922
   34.155    5.0764
   34.170    4.9710
   34.185    4.9605
   34.200    5.1185
   34.215    4.9394
   34.230    5.2659
   34.245    5.0974
   34.260    4.8973
   34.275    4.7920
   34.290    5.0764
   34.305    4.9500
   34.320    5.2449
   34.335    5.3923
   34.350    5.0132
   34.365    4.8236
   34.380    4.7815
   34.395    4.7288
   34.410    5.0764
   34.425    4.5603
   34.440    4.8657
   34.455    4.7815
   34.470    4.9605
   34.485    4.8447
   34.500    5.1080
   34.515    4.9394
   34.530    5.2343
   34.545    4.6024
   34.560    4.6130
   34.575    4.7393
   34.590    4.7920
   34.605    5.0448
   34.620    5.2027
   34.635    5.1501
   34.650    5.0026
   34.665    5.0132
   34.680    4.9394
   34.695    4.9816
   34.710    4.8552
   34.725    4.8868
   34.740    4.6340
   34.755    4.7709
   34.770    4.7183
   34.785    4.9289
   34.800    4.8131
   34.815    5.1080
   34.830    4.8236
   34.845    5.0342
   34.860    4.7499
   34.875    4.8973
   34.890    4.7393
   34.905    4.6761
   34.920    5.1711
   34.935    4.9500
   34.950    4.7499
   34.965    5.0132
   34.980    4.8236
   34.995    4.6761
   35.010    4.8973
   35.025    4.7288
   35.040    4.8868
   35.055    4.7499
   35.070    5.0026
   35.085    4.9078
   35.100    5.1080
   35.115    4.9710
   35.130    4.9078
   35.145    4.8131
   35.160    4.4128
   35.175    4.8131
   35.190    4.8341
   35.205    4.9078
   35.220    4.7920
   35.235    4.8657
   35.250    4.8236
   35.265    4.4550
   35.280    4.8025
   35.295    4.7077
   35.310    5.1080
   35.325    5.1185
   35.340    4.9289
   35.355    4.7393
   35.370    4.8552
   35.385    4.9921
   35.400    4.6551
   35.415    4.6551
   35.430    4.7709
   35.445    4.6235
   35.460    4.6867
   35.475    4.9710
   35.490    5.0553
   35.505    5.0658
   35.520    4.9710
   35.535    5.3818
   35.550    4.9816
   35.565    4.7709
   35.580    4.8447
   35.595    4.8868
   35.610    4.7393
   35.625    4.7815
   35.640    4.7815
   35.655    4.9605
   35.670    5.0132
   35.685    4.6867
   35.700    4.5076
   35.715    4.7499
   35.730    4.6656
   35.745    4.6656
   35.760    4.7709
   35.775    4.7183
   35.790    4.7499
   35.805    4.5182
   35.820    4.8131
   35.835    4.8973
   35.850    4.8973
   35.865    4.6867
   35.880    4.7920
   35.895    4.5287
   35.910    4.6656
   35.925    4.6445
   35.940    4.7077
   35.955    4.8025
   35.970    4.9394
   35.985    4.7077
   36.000    4.7288
   36.015    4.6445
   36.030    4.7288
   36.045    4.8236
   36.060    4.9816
   36.075    4.6235
   36.090    4.8341
   36.105    4.9816
   36.120    5.1185
   36.135    4.9078
   36.150    4.8341
   36.165    4.6551
   36.180    4.7288
   36.195    4.6445
   36.210    4.7183
   36.225    4.4760
   36.240    4.7077
   36.255    4.8341
   36.270    5.2554
   36.285    5.0869
   36.300    5.0658
   36.315    4.9500
   36.330    4.9605
   36.345    4.5814
   36.360    4.4550
   36.375    4.7077
   36.390    4.4444
   36.405    4.4971
   36.420    4.4971
   36.435    4.4339
   36.450    4.7077
   36.465    4.6445
   36.480    4.8973
   36.495    4.8973
   36.510    5.0132
   36.525    4.8552
   36.540    4.4866
   36.555    4.7183
   36.570    4.6340
   36.585    4.7393
   36.600    4.8236
   36.615    4.5392
   36.630    4.6024
   36.645    4.9394
   36.660    4.5814
   36.675    4.6024
   36.690    4.9289
   36.705    4.9078
   36.720    4.7393
   36.735    4.7815
   36.750    4.9394
   36.765    5.1817
   36.780    4.5814
   36.795    4.5498
   36.810    4.8236
   36.825    4.7393
   36.840    4.8657
   36.855    4.7920
   36.870    4.3391
   36.885    4.3286
   36.900    4.3813
   36.915    4.6867
   36.930    4.4550
   36.945    4.4655
   36.960    4.9184
   36.975    4.5814
   36.990    4.6445
   37.005    4.7499
   37.020    4.9921
   37.035    5.0869
   37.050    4.5182
   37.065    4.4023
   37.080    4.5708
   37.095    4.4866
   37.110    4.3181
   37.125    4.4444
   37.140    4.6340
   37.155    4.9816
   37.170    4.7920
   37.185    4.3813
   37.200    4.4128
   37.215    4.6551
   37.230    4.5498
   37.245    4.7815
   37.260    4.8763
   37.275    4.4866
   37.290    4.7288
   37.305    4.8552
   37.320    4.8552
   37.335    4.4550
   37.350    4.6130
   37.365    4.5392
   37.380    4.4550
   37.395    4.6130
   37.410    4.7393
   37.425    4.6656
   37.440    4.6656
   37.455    4.6656
   37.470    4.6972
   37.485    4.8763
   37.500    4.7077
   37.515    4.4971
   37.530    4.4234
   37.545    4.7077
   37.560    4.8552
   37.575    4.7499
   37.590    4.9078
   37.605    4.4971
   37.620    4.4023
   37.635    4.3181
   37.650    4.4655
   37.665    4.6761
   37.680    4.3707
   37.695    4.7077
   37.710    4.5287
   37.725    4.3707
   37.740    4.6972
   37.755    4.7920
   37.770    4.7288
   37.785    4.4866
   37.800    4.6972
   37.815    4.7499
   37.830    4.7077
   37.845    4.9289
   37.860    4.7183
   37.875    4.9184
   37.890    4.9394
   37.905    5.0026
   37.920    4.6867
   37.935    4.8025
   37.950    4.6551
   37.965    5.1080
   37.980    4.7183
   37.995    4.9500
   38.010    4.6761
   38.025    4.3813
   38.040    4.8025
   38.055    4.7183
   38.070    4.6656
   38.085    4.5814
   38.100    4.6235
   38.115    4.6445
   38.130    4.7288
   38.145    4.7393
   38.160    4.4760
   38.175    4.5182
   38.190    4.4866
   38.205    4.5287
   38.220    4.7709
   38.235    4.6656
   38.250    4.5182
   38.265    5.0658
   38.280    4.6340
   38.295    4.5182
   38.310    4.3391
   38.325    4.7183
   38.340    4.5814
   38.355    4.5287
   38.370    4.9394
   38.385    4.9184
   38.400    4.3918
   38.415    4.7920
   38.430    4.4444
   38.445    4.2654
   38.460    4.4234
   38.475    4.4971
   38.490    4.6445
   38.505    4.6340
   38.520    4.5708
   38.535    4.5708
   38.550    4.9921
   38.565    4.7815
   38.580    4.5814
   38.595    4.5287
   38.610    4.8341
   38.625    4.7393
   38.640    4.7288
   38.655    4.8763
   38.670    4.8447
   38.685    4.6867
   38.700    4.4655
   38.715    4.6445
   38.730    4.5603
   38.745    4.5708
   38.760    4.6972
   38.775    5.0026
   38.790    4.5814
   38.805    4.7815
   38.820    4.5498
   38.835    4.4234
   38.850    4.4655
   38.865    4.5708
   38.880    4.5708
   38.895    4.7815
   38.910    4.3918
   38.925    4.5814
   38.940    4.5603
   38.955    4.5603
   38.970    4.9184
   38.985    4.8657
   39.000    4.6340
   39.015    4.8552
   39.030    4.7393
   39.045    4.9605
   39.060    4.8763
   39.075    4.5708
   39.090    4.7288
   39.105    4.8868
   39.120    4.5708
   39.135    4.2338
   39.150    4.7183
   39.165    4.6656
   39.180    4.5287
   39.195    4.4128
   39.210    4.2443
   39.225    4.4866
   39.240    4.4128
   39.255    4.4655
   39.270    4.7709
   39.285    4.5076
   39.300    4.4234
   39.315    4.4866
   39.330    3.9389
   39.345    3.9494
   39.360    4.3707
   39.375    4.7920
   39.390    4.6130
   39.405    4.8868
   39.420    4.7393
   39.435    4.4550
   39.450    4.4971
   39.465    4.5603
   39.480    4.5708
   39.495    4.6445
   39.510    4.5182
   39.525    4.4023
   39.540    4.6130
   39.555    4.8341
   39.570    4.6761
   39.585    4.1180
   39.600    4.2970
   39.615    4.5076
   39.630    4.5076
   39.645    4.1390
   39.660    4.3497
   39.675    4.5919
   39.690    4.6761
   39.705    4.6972
   39.720    4.6656
   39.735    4.6656
   39.750    4.7709
   39.765    4.7920
   39.780    4.7604
   39.795    4.8973
   39.810    4.5392
   39.825    4.3075
   39.840    4.3918
   39.855    4.4444
   39.870    4.8657
   39.885    4.7393
   39.900    4.7077
   39.915    4.7499
   39.930    4.6340
   39.945    4.6024
   39.960    4.5814
   39.975    4.3918
   39.990    4.1390
